timestamp,bvp
1631018753890,-17.29
1631018753906,-19.89
1631018753921,-23.9
1631018753937,-29.12
1631018753953,-34.49
1631018753968,-38.5
1631018753984,-39.78
1631018754000,-37.75
1631018754015,-32.89
1631018754031,-26.59
1631018754046,-20.64
1631018754062,-16.74
1631018754078,-15.96
1631018754093,-18.57
1631018754109,-24.09
1631018754125,-31.47
1631018754140,-39.48
1631018754156,-47.01
1631018754171,-53.36
1631018754187,-58.2
1631018754203,-61.49
1631018754218,-63.25
1631018754234,-63.5
1631018754250,-62.21
1631018754265,-59.49
1631018754281,-55.62
1631018754296,-51.05
1631018754312,-46.18
1631018754328,-41.24
1631018754343,-36.27
1631018754359,-31.21
1631018754375,-26.12
1631018754390,-21.22
1631018754406,-16.86
1631018754421,-13.27
1631018754437,-10.42
1631018754453,-7.98
1631018754468,-5.45
1631018754484,-2.48
1631018754500,1.11
1631018754515,5.24
1631018754531,9.72
1631018754546,14.32
1631018754562,18.77
1631018754578,22.71
1631018754593,25.77
1631018754609,27.57
1631018754625,27.93
1631018754640,27.01
1631018754656,25.24
1631018754671,23.22
1631018754687,21.43
1631018754703,20.11
1631018754718,19.23
1631018754734,18.54
1631018754750,17.83
1631018754765,16.9
1631018754781,15.67
1631018754796,14.08
1631018754812,11.99
1631018754828,9.26
1631018754843,5.79
1631018754859,1.63
1631018754875,-2.9
1631018754890,-7.26
1631018754906,-10.84
1631018754921,-13.06
1631018754937,-13.54
1631018754953,-12.14
1631018754968,-8.93
1631018754984,-4.19
1631018755000,1.71
1631018755015,8.26
1631018755031,14.91
1631018755046,21.11
1631018755062,26.4
1631018755078,30.5
1631018755093,33.33
1631018755109,34.98
1631018755125,35.62
1631018755140,35.4
1631018755156,34.46
1631018755171,32.98
1631018755187,31.13
1631018755203,29.16
1631018755218,27.26
1631018755234,25.59
1631018755250,24.23
1631018755265,23.16
1631018755281,22.31
1631018755296,21.51
1631018755312,20.52
1631018755328,19.09
1631018755343,17.06
1631018755359,14.44
1631018755375,11.44
1631018755390,8.38
1631018755406,5.54
1631018755421,3.04
1631018755437,0.77
1631018755453,-1.51
1631018755468,-4.11
1631018755484,-7.24
1631018755500,-11.04
1631018755515,-15.53
1631018755531,-20.59
1631018755546,-25.95
1631018755562,-31.19
1631018755578,-35.7
1631018755593,-38.84
1631018755609,-40.07
1631018755625,-39.05
1631018755640,-35.75
1631018755656,-30.42
1631018755671,-23.49
1631018755687,-15.45
1631018755703,-6.8
1631018755718,2.08
1631018755734,10.83
1631018755750,19.1
1631018755765,26.54
1631018755781,32.77
1631018755796,37.52
1631018755812,40.68
1631018755828,42.39
1631018755843,42.99
1631018755859,42.93
1631018755875,42.62
1631018755890,42.29
1631018755906,41.97
1631018755921,41.52
1631018755937,40.76
1631018755953,39.58
1631018755968,38.03
1631018755984,36.33
1631018756000,34.8
1631018756015,33.79
1631018756031,33.56
1631018756046,34.13
1631018756062,35.21
1631018756078,36.26
1631018756093,36.5
1631018756109,35.22
1631018756125,31.88
1631018756140,26.39
1631018756156,19.03
1631018756171,10.44
1631018756187,1.42
1631018756203,-7.34
1631018756218,-15.23
1631018756234,-21.89
1631018756250,-27.08
1631018756265,-30.72
1631018756281,-32.8
1631018756296,-33.5
1631018756312,-33.11
1631018756328,-31.99
1631018756343,-30.48
1631018756359,-28.79
1631018756375,-26.96
1631018756390,-24.85
1631018756406,-22.26
1631018756421,-19.09
1631018756437,-15.4
1631018756453,-11.37
1631018756468,-7.25
1631018756484,-3.07
1631018756500,1.55
1631018756515,7.43
1631018756531,15.75
1631018756546,27.68
1631018756562,44.01
1631018756578,64.8
1631018756593,89.27
1631018756609,115.89
1631018756625,142.61
1631018756640,167.01
1631018756656,186.62
1631018756671,199.26
1631018756687,203.43
1631018756703,198.72
1631018756718,185.91
1631018756734,166.75
1631018756750,143.55
1631018756765,118.63
1631018756781,94.04
1631018756796,71.35
1631018756812,51.69
1631018756828,35.73
1631018756843,23.53
1631018756859,14.47
1631018756875,7.32
1631018756890,0.62
1631018756906,-6.84
1631018756921,-15.57
1631018756937,-25.36
1631018756953,-35.45
1631018756968,-44.94
1631018756984,-53.06
1631018757000,-59.26
1631018757015,-63.16
1631018757031,-64.57
1631018757046,-63.5
1631018757062,-60.27
1631018757078,-55.51
1631018757093,-50.02
1631018757109,-44.44
1631018757125,-39.0
1631018757140,-33.56
1631018757156,-27.77
1631018757171,-21.44
1631018757187,-14.82
1631018757203,-8.55
1631018757218,-3.4
1631018757234,0.11
1631018757250,1.95
1631018757265,2.6
1631018757281,2.78
1631018757296,3.1
1631018757312,3.88
1631018757328,5.09
1631018757343,6.49
1631018757359,7.82
1631018757375,8.92
1631018757390,9.76
1631018757406,10.32
1631018757421,10.58
1631018757437,10.47
1631018757453,9.88
1631018757468,8.71
1631018757484,6.92
1631018757500,4.61
1631018757515,2.03
1631018757531,-0.46
1631018757546,-2.51
1631018757562,-3.92
1631018757578,-4.74
1631018757593,-5.3
1631018757609,-6.07
1631018757625,-7.5
1631018757640,-9.81
1631018757656,-12.95
1631018757671,-16.62
1631018757687,-20.38
1631018757703,-23.7
1631018757718,-26.1
1631018757734,-27.25
1631018757750,-26.95
1631018757765,-25.27
1631018757781,-22.44
1631018757796,-18.81
1631018757812,-14.77
1631018757828,-10.65
1631018757843,-6.74
1631018757859,-3.26
1631018757875,-0.43
1631018757890,1.61
1631018757906,2.79
1631018757921,3.13
1631018757937,2.76
1631018757953,1.84
1631018757968,0.59
1631018757984,-0.78
1631018758000,-2.06
1631018758015,-3.07
1631018758031,-3.71
1631018758046,-4.02
1631018758062,-4.2
1631018758078,-4.48
1631018758093,-5.04
1631018758109,-5.86
1631018758125,-6.73
1631018758140,-7.37
1631018758156,-7.61
1631018758171,-7.5
1631018758187,-7.35
1631018758203,-7.51
1631018758218,-8.24
1631018758234,-9.53
1631018758250,-11.17
1631018758265,-12.82
1631018758281,-14.27
1631018758296,-15.45
1631018758312,-16.5
1631018758328,-17.62
1631018758343,-19.02
1631018758359,-20.78
1631018758375,-22.88
1631018758390,-25.16
1631018758406,-27.33
1631018758421,-29.05
1631018758437,-29.87
1631018758453,-29.46
1631018758468,-27.64
1631018758484,-24.52
1631018758500,-20.47
1631018758515,-16.03
1631018758531,-11.75
1631018758546,-7.99
1631018758562,-4.89
1631018758578,-2.34
1631018758593,-0.15
1631018758609,1.84
1631018758625,3.63
1631018758640,5.13
1631018758656,6.22
1631018758671,6.84
1631018758687,7.04
1631018758703,6.92
1631018758718,6.59
1631018758734,6.11
1631018758750,5.52
1631018758765,4.86
1631018758781,4.24
1631018758796,3.79
1631018758812,3.63
1631018758828,3.81
1631018758843,4.26
1631018758859,4.82
1631018758875,5.31
1631018758890,5.62
1631018758906,5.66
1631018758921,5.39
1631018758937,4.79
1631018758953,3.82
1631018758968,2.51
1631018758984,0.96
1631018759000,-0.66
1631018759015,-2.22
1631018759031,-3.63
1631018759046,-4.92
1631018759062,-6.17
1631018759078,-7.47
1631018759093,-8.85
1631018759109,-10.27
1631018759125,-11.73
1631018759140,-13.28
1631018759156,-15.04
1631018759171,-17.14
1631018759187,-19.55
1631018759203,-22.1
1631018759218,-24.43
1631018759234,-26.12
1631018759250,-26.79
1631018759265,-26.24
1631018759281,-24.43
1631018759296,-21.52
1631018759312,-17.77
1631018759328,-13.51
1631018759343,-9.07
1631018759359,-4.71
1631018759375,-0.62
1631018759390,3.11
1631018759406,6.37
1631018759421,9.08
1631018759437,11.14
1631018759453,12.53
1631018759468,13.24
1631018759484,13.39
1631018759500,13.11
1631018759515,12.55
1631018759531,11.82
1631018759546,10.97
1631018759562,10.09
1631018759578,9.27
1631018759593,8.6
1631018759609,8.16
1631018759625,7.96
1631018759640,7.92
1631018759656,7.96
1631018759671,7.97
1631018759687,7.91
1631018759703,7.82
1631018759718,7.76
1631018759734,7.8
1631018759750,7.92
1631018759765,8.03
1631018759781,7.98
1631018759796,7.63
1631018759812,6.88
1631018759828,5.78
1631018759843,4.49
1631018759859,3.17
1631018759875,1.98
1631018759890,0.95
1631018759906,0.02
1631018759921,-0.93
1631018759937,-2.0
1631018759953,-3.21
1631018759968,-4.52
1631018759984,-5.84
1631018760000,-7.11
1631018760015,-8.34
1631018760031,-9.6
1631018760046,-11.01
1631018760062,-12.68
1631018760078,-14.69
1631018760093,-17.07
1631018760109,-19.8
1631018760125,-22.79
1631018760140,-25.78
1631018760156,-28.37
1631018760171,-30.05
1631018760187,-30.33
1631018760203,-28.9
1631018760218,-25.73
1631018760234,-21.12
1631018760250,-15.61
1631018760265,-9.83
1631018760281,-4.35
1631018760296,0.47
1631018760312,4.49
1631018760328,7.76
1631018760343,10.43
1631018760359,12.62
1631018760375,14.33
1631018760390,15.44
1631018760406,15.74
1631018760421,15.09
1631018760437,13.48
1631018760453,11.16
1631018760468,8.51
1631018760484,5.92
1631018760500,3.67
1631018760515,1.84
1631018760531,0.39
1631018760546,-0.68
1631018760562,-1.19
1631018760578,-0.79
1631018760593,0.91
1631018760609,4.12
1631018760625,8.69
1631018760640,14.07
1631018760656,19.51
1631018760671,24.31
1631018760687,28.05
1631018760703,30.67
1631018760718,32.36
1631018760734,33.35
1631018760750,33.69
1631018760765,33.19
1631018760781,31.56
1631018760796,28.6
1631018760812,24.45
1631018760828,19.56
1631018760843,14.54
1631018760859,9.96
1631018760875,6.09
1631018760890,2.83
1631018760906,-0.16
1631018760921,-3.28
1631018760937,-6.82
1631018760953,-10.8
1631018760968,-15.04
1631018760984,-19.2
1631018761000,-23.0
1631018761015,-26.13
1631018761031,-28.36
1631018761046,-29.36
1631018761062,-28.81
1631018761078,-26.44
1631018761093,-22.23
1631018761109,-16.49
1631018761125,-9.88
1631018761140,-3.23
1631018761156,2.68
1631018761171,7.32
1631018761187,10.5
1631018761203,12.33
1631018761218,13.01
1631018761234,12.73
1631018761250,11.58
1631018761265,9.66
1631018761281,7.14
1631018761296,4.29
1631018761312,1.41
1631018761328,-1.21
1631018761343,-3.42
1631018761359,-5.27
1631018761375,-6.88
1631018761390,-8.42
1631018761406,-9.96
1631018761421,-11.44
1631018761437,-12.7
1631018761453,-13.65
1631018761468,-14.25
1631018761484,-14.6
1631018761500,-14.87
1631018761515,-15.21
1631018761531,-15.67
1631018761546,-16.22
1631018761562,-16.76
1631018761578,-17.2
1631018761593,-17.53
1631018761609,-17.8
1631018761625,-18.09
1631018761640,-18.5
1631018761656,-19.11
1631018761671,-19.9
1631018761687,-20.79
1631018761703,-21.56
1631018761718,-21.94
1631018761734,-21.76
1631018761750,-20.98
1631018761765,-19.82
1631018761781,-18.67
1631018761796,-17.93
1631018761812,-17.86
1631018761828,-18.42
1631018761843,-19.32
1631018761859,-20.12
1631018761875,-20.36
1631018761890,-19.7
1631018761906,-18.04
1631018761921,-15.46
1631018761937,-12.2
1631018761953,-8.63
1631018761968,-5.12
1631018761984,-1.96
1631018762000,0.67
1631018762015,2.73
1631018762031,4.29
1631018762046,5.44
1631018762062,6.23
1631018762078,6.7
1631018762093,6.84
1631018762109,6.68
1631018762125,6.28
1631018762140,5.69
1631018762156,4.97
1631018762171,4.14
1631018762187,3.21
1631018762203,2.24
1631018762218,1.28
1631018762234,0.43
1631018762250,-0.26
1631018762265,-0.78
1631018762281,-1.18
1631018762296,-1.62
1631018762312,-2.2
1631018762328,-3.03
1631018762343,-4.11
1631018762359,-5.37
1631018762375,-6.74
1631018762390,-8.18
1631018762406,-9.77
1631018762421,-11.67
1631018762437,-14.0
1631018762453,-16.82
1631018762468,-19.97
1631018762484,-23.18
1631018762500,-26.15
1631018762515,-28.67
1631018762531,-30.76
1631018762546,-32.65
1631018762562,-34.62
1631018762578,-36.82
1631018762593,-39.17
1631018762609,-41.27
1631018762625,-42.56
1631018762640,-42.54
1631018762656,-40.98
1631018762671,-37.96
1631018762687,-33.87
1631018762703,-29.19
1631018762718,-24.34
1631018762734,-19.52
1631018762750,-14.81
1631018762765,-10.21
1631018762781,-5.75
1631018762796,-1.59
1631018762812,2.04
1631018762828,4.92
1631018762843,6.88
1631018762859,7.87
1631018762875,7.93
1631018762890,7.16
1631018762906,5.7
1631018762921,3.66
1631018762937,1.2
1631018762953,-1.5
1631018762968,-4.22
1631018762984,-6.68
1631018763000,-8.65
1631018763015,-9.97
1631018763031,-10.69
1631018763046,-11.04
1631018763062,-11.45
1631018763078,-12.38
1631018763093,-14.24
1631018763109,-17.23
1631018763125,-21.33
1631018763140,-26.34
1631018763156,-31.95
1631018763171,-37.86
1631018763187,-43.84
1631018763203,-49.73
1631018763218,-55.47
1631018763234,-61.09
1631018763250,-66.74
1631018763265,-72.68
1631018763281,-79.15
1631018763296,-86.24
1631018763312,-93.67
1631018763328,-100.64
1631018763343,-105.97
1631018763359,-108.35
1631018763375,-106.74
1631018763390,-100.72
1631018763406,-90.65
1631018763421,-77.57
1631018763437,-62.9
1631018763453,-48.05
1631018763468,-34.13
1631018763484,-21.81
1631018763500,-11.3
1631018763515,-2.47
1631018763531,5.09
1631018763546,11.83
1631018763562,18.26
1631018763578,24.81
1631018763593,31.83
1631018763609,39.47
1631018763625,47.63
1631018763640,55.82
1631018763656,63.25
1631018763671,69.01
1631018763687,72.31
1631018763703,72.81
1631018763718,70.75
1631018763734,66.9
1631018763750,62.3
1631018763765,57.89
1631018763781,54.22
1631018763796,51.4
1631018763812,49.16
1631018763828,47.14
1631018763843,45.07
1631018763859,42.87
1631018763875,40.66
1631018763890,38.58
1631018763906,36.74
1631018763921,35.22
1631018763937,34.07
1631018763953,33.4
1631018763968,33.4
1631018763984,34.24
1631018764000,35.9
1631018764015,38.08
1631018764031,40.27
1631018764046,41.86
1631018764062,42.43
1631018764078,41.97
1631018764093,40.86
1631018764109,39.79
1631018764125,39.47
1631018764140,40.28
1631018764156,42.16
1631018764171,44.64
1631018764187,46.99
1631018764203,48.55
1631018764218,48.93
1631018764234,48.06
1631018764250,46.17
1631018764265,43.54
1631018764281,40.41
1631018764296,36.9
1631018764312,33.12
1631018764328,29.23
1631018764343,25.54
1631018764359,22.41
1631018764375,20.12
1631018764390,18.69
1631018764406,17.85
1631018764421,17.1
1631018764437,15.96
1631018764453,14.1
1631018764468,11.45
1631018764484,8.19
1631018764500,4.6
1631018764515,0.91
1631018764531,-2.71
1631018764546,-6.2
1631018764562,-9.45
1631018764578,-12.3
1631018764593,-14.53
1631018764609,-15.95
1631018764625,-16.55
1631018764640,-16.59
1631018764656,-16.52
1631018764671,-16.82
1631018764687,-17.81
1631018764703,-19.45
1631018764718,-21.31
1631018764734,-22.68
1631018764750,-22.84
1631018764765,-21.31
1631018764781,-18.05
1631018764796,-13.53
1631018764812,-8.55
1631018764828,-4.02
1631018764843,-0.55
1631018764859,1.73
1631018764875,3.24
1631018764890,4.75
1631018764906,7.03
1631018764921,10.53
1631018764937,15.22
1631018764953,20.72
1631018764968,26.48
1631018764984,31.99
1631018765000,36.98
1631018765015,41.3
1631018765031,44.83
1631018765046,47.43
1631018765062,48.97
1631018765078,49.33
1631018765093,48.54
1631018765109,46.76
1631018765125,44.24
1631018765140,41.2
1631018765156,37.82
1631018765171,34.19
1631018765187,30.34
1631018765203,26.29
1631018765218,22.11
1631018765234,17.92
1631018765250,13.9
1631018765265,10.18
1631018765281,6.83
1631018765296,3.71
1631018765312,0.61
1631018765328,-2.76
1631018765343,-6.57
1631018765359,-10.86
1631018765375,-15.43
1631018765390,-19.86
1631018765406,-23.67
1631018765421,-26.32
1631018765437,-27.38
1631018765453,-26.64
1631018765468,-24.12
1631018765484,-20.12
1631018765500,-15.12
1631018765515,-9.67
1631018765531,-4.22
1631018765546,0.95
1631018765562,5.76
1631018765578,10.18
1631018765593,14.18
1631018765609,17.69
1631018765625,20.56
1631018765640,22.64
1631018765656,23.87
1631018765671,24.31
1631018765687,24.14
1631018765703,23.59
1631018765718,22.84
1631018765734,22.05
1631018765750,21.27
1631018765765,20.48
1631018765781,19.67
1631018765796,18.82
1631018765812,17.93
1631018765828,17.03
1631018765843,16.11
1631018765859,15.13
1631018765875,13.98
1631018765890,12.56
1631018765906,10.77
1631018765921,8.64
1631018765937,6.3
1631018765953,3.96
1631018765968,1.81
1631018765984,-0.07
1631018766000,-1.78
1631018766015,-3.58
1631018766031,-5.76
1631018766046,-8.54
1631018766062,-11.9
1631018766078,-15.55
1631018766093,-19.01
1631018766109,-21.67
1631018766125,-22.99
1631018766140,-22.67
1631018766156,-20.66
1631018766171,-17.19
1631018766187,-12.65
1631018766203,-7.54
1631018766218,-2.29
1631018766234,2.73
1631018766250,7.25
1631018766265,11.09
1631018766281,14.16
1631018766296,16.39
1631018766312,17.8
1631018766328,18.5
1631018766343,18.67
1631018766359,18.55
1631018766375,18.35
1631018766390,18.21
1631018766406,18.13
1631018766421,18.04
1631018766437,17.82
1631018766453,17.42
1631018766468,16.85
1631018766484,16.21
1631018766500,15.61
1631018766515,15.13
1631018766531,14.78
1631018766546,14.5
1631018766562,14.13
1631018766578,13.56
1631018766593,12.7
1631018766609,11.57
1631018766625,10.26
1631018766640,8.86
1631018766656,7.45
1631018766671,6.03
1631018766687,4.56
1631018766703,2.94
1631018766718,1.11
1631018766734,-1.04
1631018766750,-3.66
1631018766765,-6.94
1631018766781,-11.02
1631018766796,-15.83
1631018766812,-21.04
1631018766828,-26.02
1631018766843,-30.02
1631018766859,-32.44
1631018766875,-33.0
1631018766890,-31.83
1631018766906,-29.31
1631018766921,-25.98
1631018766937,-22.26
1631018766953,-18.49
1631018766968,-14.85
1631018766984,-11.48
1631018767000,-8.54
1631018767015,-6.12
1631018767031,-4.27
1631018767046,-2.99
1631018767062,-2.16
1631018767078,-1.64
1631018767093,-1.26
1631018767109,-0.89
1631018767125,-0.48
1631018767140,-0.04
1631018767156,0.34
1631018767171,0.59
1631018767187,0.64
1631018767203,0.5
1631018767218,0.22
1631018767234,-0.17
1631018767250,-0.64
1631018767265,-1.25
1631018767281,-2.07
1631018767296,-3.13
1631018767312,-4.4
1631018767328,-5.78
1631018767343,-7.13
1631018767359,-8.32
1631018767375,-9.26
1631018767390,-9.95
1631018767406,-10.39
1631018767421,-10.67
1631018767437,-10.82
1631018767453,-10.89
1631018767468,-10.93
1631018767484,-10.99
1631018767500,-11.2
1631018767515,-11.71
1631018767531,-12.68
1631018767546,-14.18
1631018767562,-16.06
1631018767578,-17.91
1631018767593,-19.15
1631018767609,-19.15
1631018767625,-17.54
1631018767640,-14.25
1631018767656,-9.65
1631018767671,-4.31
1631018767687,1.13
1631018767703,6.13
1631018767718,10.35
1631018767734,13.57
1631018767750,15.73
1631018767765,16.8
1631018767781,16.86
1631018767796,16.12
1631018767812,14.84
1631018767828,13.35
1631018767843,11.91
1631018767859,10.7
1631018767875,9.78
1631018767890,9.17
1631018767906,8.8
1631018767921,8.6
1631018767937,8.45
1631018767953,8.25
1631018767968,7.93
1631018767984,7.48
1631018768000,6.98
1631018768015,6.52
1631018768031,6.14
1631018768046,5.81
1631018768062,5.4
1631018768078,4.74
1631018768093,3.74
1631018768109,2.47
1631018768125,1.11
1631018768140,-0.14
1631018768156,-1.15
1631018768171,-1.92
1631018768187,-2.53
1631018768203,-3.09
1631018768218,-3.61
1631018768234,-4.05
1631018768250,-4.35
1631018768265,-4.54
1631018768281,-4.81
1631018768296,-5.41
1631018768312,-6.57
1631018768328,-8.26
1631018768343,-10.28
1631018768359,-12.16
1631018768375,-13.44
1631018768390,-13.74
1631018768406,-12.89
1631018768421,-10.95
1631018768437,-8.22
1631018768453,-5.1
1631018768468,-1.97
1631018768484,0.9
1631018768500,3.42
1631018768515,5.59
1631018768531,7.45
1631018768546,8.96
1631018768562,10.01
1631018768578,10.47
1631018768593,10.32
1631018768609,9.73
1631018768625,8.97
1631018768640,8.31
1631018768656,7.85
1631018768671,7.49
1631018768687,7.05
1631018768703,6.38
1631018768718,5.54
1631018768734,4.72
1631018768750,4.16
1631018768765,3.98
1631018768781,4.09
1631018768796,4.26
1631018768812,4.22
1631018768828,3.81
1631018768843,3.06
1631018768859,2.12
1631018768875,1.15
1631018768890,0.25
1631018768906,-0.57
1631018768921,-1.38
1631018768937,-2.23
1631018768953,-3.13
1631018768968,-4.04
1631018768984,-4.9
1631018769000,-5.67
1631018769015,-6.41
1631018769031,-7.25
1631018769046,-8.35
1631018769062,-9.87
1631018769078,-11.86
1631018769093,-14.27
1631018769109,-16.89
1631018769125,-19.43
1631018769140,-21.55
1631018769156,-22.86
1631018769171,-23.07
1631018769187,-22.0
1631018769203,-19.65
1631018769218,-16.27
1631018769234,-12.29
1631018769250,-8.17
1631018769265,-4.32
1631018769281,-0.99
1631018769296,1.76
1631018769312,3.98
1631018769328,5.72
1631018769343,6.99
1631018769359,7.76
1631018769375,8.02
1631018769390,7.83
1631018769406,7.37
1631018769421,6.85
1631018769437,6.39
1631018769453,6.04
1631018769468,5.74
1631018769484,5.37
1631018769500,4.86
1631018769515,4.23
1631018769531,3.63
1631018769546,3.19
1631018769562,2.99
1631018769578,2.97
1631018769593,2.94
1631018769609,2.68
1631018769625,2.01
1631018769640,0.95
1631018769656,-0.37
1631018769671,-1.74
1631018769687,-2.99
1631018769703,-4.04
1631018769718,-4.96
1631018769734,-5.84
1631018769750,-6.76
1631018769765,-7.79
1631018769781,-9.0
1631018769796,-10.42
1631018769812,-12.1
1631018769828,-14.06
1631018769843,-16.23
1631018769859,-18.45
1631018769875,-20.46
1631018769890,-21.97
1631018769906,-22.7
1631018769921,-22.42
1631018769937,-21.06
1631018769953,-18.7
1631018769968,-15.58
1631018769984,-11.98
1631018770000,-8.19
1631018770015,-4.38
1631018770031,-0.67
1631018770046,2.88
1631018770062,6.12
1631018770078,8.82
1631018770093,10.79
1631018770109,11.92
1631018770125,12.3
1631018770140,12.13
1631018770156,11.63
1631018770171,10.94
1631018770187,10.06
1631018770203,9.01
1631018770218,7.82
1631018770234,6.66
1631018770250,5.7
1631018770265,5.06
1631018770281,4.7
1631018770296,4.47
1631018770312,4.15
1631018770328,3.58
1631018770343,2.69
1631018770359,1.51
1631018770375,0.14
1631018770390,-1.35
1631018770406,-2.92
1631018770421,-4.56
1631018770437,-6.25
1631018770453,-8.01
1631018770468,-9.77
1631018770484,-11.49
1631018770500,-13.08
1631018770515,-14.51
1631018770531,-15.85
1631018770546,-17.22
1631018770562,-18.8
1631018770578,-20.71
1631018770593,-22.95
1631018770609,-25.33
1631018770625,-27.53
1631018770640,-29.14
1631018770656,-29.78
1631018770671,-29.18
1631018770687,-27.25
1631018770703,-24.08
1631018770718,-19.93
1631018770734,-15.15
1631018770750,-10.08
1631018770765,-5.05
1631018770781,-0.31
1631018770796,3.94
1631018770812,7.51
1631018770828,10.31
1631018770843,12.33
1631018770859,13.62
1631018770875,14.34
1631018770890,14.64
1631018770906,14.66
1631018770921,14.45
1631018770937,14.04
1631018770953,13.42
1631018770968,12.63
1631018770984,11.73
1631018771000,10.82
1631018771015,9.98
1631018771031,9.23
1631018771046,8.54
1631018771062,7.83
1631018771078,6.99
1631018771093,5.96
1631018771109,4.73
1631018771125,3.36
1631018771140,1.98
1631018771156,0.67
1631018771171,-0.57
1631018771187,-1.82
1631018771203,-3.2
1631018771218,-4.79
1631018771234,-6.59
1631018771250,-8.48
1631018771265,-10.39
1631018771281,-12.33
1631018771296,-14.41
1631018771312,-16.78
1631018771328,-19.49
1631018771343,-22.36
1631018771359,-25.02
1631018771375,-26.99
1631018771390,-27.81
1631018771406,-27.17
1631018771421,-24.96
1631018771437,-21.33
1631018771453,-16.56
1631018771468,-11.03
1631018771484,-5.16
1631018771500,0.64
1631018771515,6.01
1631018771531,10.65
1631018771546,14.35
1631018771562,17.01
1631018771578,18.66
1631018771593,19.46
1631018771609,19.66
1631018771625,19.51
1631018771640,19.24
1631018771656,18.94
1631018771671,18.63
1631018771687,18.24
1631018771703,17.77
1631018771718,17.19
1631018771734,16.55
1631018771750,15.88
1631018771765,15.18
1631018771781,14.44
1631018771796,13.69
1631018771812,12.99
1631018771828,12.43
1631018771843,12.0
1631018771859,11.61
1631018771875,11.07
1631018771890,10.17
1631018771906,8.81
1631018771921,7.03
1631018771937,5.04
1631018771953,3.05
1631018771968,1.25
1631018771984,-0.32
1631018772000,-1.75
1631018772015,-3.23
1631018772031,-4.99
1631018772046,-7.22
1631018772062,-9.99
1631018772078,-13.18
1631018772093,-16.44
1631018772109,-19.21
1631018772125,-20.89
1631018772140,-21.0
1631018772156,-19.34
1631018772171,-16.06
1631018772187,-11.61
1631018772203,-6.56
1631018772218,-1.45
1631018772234,3.35
1631018772250,7.63
1631018772265,11.35
1631018772281,14.54
1631018772296,17.24
1631018772312,19.46
1631018772328,21.18
1631018772343,22.34
1631018772359,22.9
1631018772375,22.9
1631018772390,22.44
1631018772406,21.66
1631018772421,20.66
1631018772437,19.51
1631018772453,18.26
1631018772468,16.94
1631018772484,15.62
1631018772500,14.41
1631018772515,13.4
1631018772531,12.63
1631018772546,12.02
1631018772562,11.45
1631018772578,10.76
1631018772593,9.88
1631018772609,8.78
1631018772625,7.53
1631018772640,6.18
1631018772656,4.8
1631018772671,3.4
1631018772687,1.97
1631018772703,0.48
1631018772718,-1.04
1631018772734,-2.59
1631018772750,-4.15
1631018772765,-5.7
1631018772781,-7.28
1631018772796,-8.93
1631018772812,-10.71
1631018772828,-12.65
1631018772843,-14.75
1631018772859,-16.96
1631018772875,-19.2
1631018772890,-21.34
1631018772906,-23.22
1631018772921,-24.62
1631018772937,-25.27
1631018772953,-24.89
1631018772968,-23.25
1631018772984,-20.3
1631018773000,-16.14
1631018773015,-11.09
1631018773031,-5.56
1631018773046,0.05
1631018773062,5.4
1631018773078,10.25
1631018773093,14.43
1631018773109,17.86
1631018773125,20.45
1631018773140,22.22
1631018773156,23.23
1631018773171,23.59
1631018773187,23.45
1631018773203,22.92
1631018773218,22.09
1631018773234,20.98
1631018773250,19.65
1631018773265,18.16
1631018773281,16.63
1631018773296,15.22
1631018773312,14.1
1631018773328,13.36
1631018773343,12.95
1631018773359,12.72
1631018773375,12.4
1631018773390,11.77
1631018773406,10.69
1631018773421,9.21
1631018773437,7.52
1631018773453,5.86
1631018773468,4.46
1631018773484,3.4
1631018773500,2.66
1631018773515,2.08
1631018773531,1.43
1631018773546,0.49
1631018773562,-0.91
1631018773578,-2.81
1631018773593,-5.12
1631018773609,-7.57
1631018773625,-9.84
1631018773640,-11.67
1631018773656,-13.01
1631018773671,-13.98
1631018773687,-14.86
1631018773703,-15.97
1631018773718,-17.53
1631018773734,-19.6
1631018773750,-21.99
1631018773765,-24.34
1631018773781,-26.18
1631018773796,-27.01
1631018773812,-26.47
1631018773828,-24.39
1631018773843,-20.9
1631018773859,-16.32
1631018773875,-11.11
1631018773890,-5.74
1631018773906,-0.59
1631018773921,4.07
1631018773937,8.09
1631018773953,11.44
1631018773968,14.1
1631018773984,16.14
1631018774000,17.6
1631018774015,18.53
1631018774031,18.97
1631018774046,18.94
1631018774062,18.52
1631018774078,17.82
1631018774093,16.97
1631018774109,16.13
1631018774125,15.38
1631018774140,14.74
1631018774156,14.17
1631018774171,13.65
1631018774187,13.15
1631018774203,12.71
1631018774218,12.35
1631018774234,12.04
1631018774250,11.69
1631018774265,11.15
1631018774281,10.29
1631018774296,9.09
1631018774312,7.66
1631018774328,6.21
1631018774343,4.93
1631018774359,3.92
1631018774375,3.1
1631018774390,2.3
1631018774406,1.32
1631018774421,0.07
1631018774437,-1.46
1631018774453,-3.17
1631018774468,-4.95
1631018774484,-6.66
1631018774500,-8.19
1631018774515,-9.43
1631018774531,-10.36
1631018774546,-11.03
1631018774562,-11.64
1631018774578,-12.44
1631018774593,-13.66
1631018774609,-15.39
1631018774625,-17.52
1631018774640,-19.77
1631018774656,-21.77
1631018774671,-23.12
1631018774687,-23.5
1631018774703,-22.68
1631018774718,-20.54
1631018774734,-17.16
1631018774750,-12.82
1631018774765,-7.95
1631018774781,-3.08
1631018774796,1.37
1631018774812,5.15
1631018774828,8.22
1631018774843,10.64
1631018774859,12.51
1631018774875,13.89
1631018774890,14.8
1631018774906,15.27
1631018774921,15.37
1631018774937,15.2
1631018774953,14.87
1631018774968,14.39
1631018774984,13.78
1631018775000,13.05
1631018775015,12.24
1631018775031,11.43
1631018775046,10.7
1631018775062,10.08
1631018775078,9.52
1631018775093,8.95
1631018775109,8.29
1631018775125,7.51
1631018775140,6.65
1631018775156,5.73
1631018775171,4.75
1631018775187,3.66
1631018775203,2.39
1631018775218,0.95
1631018775234,-0.59
1631018775250,-2.03
1631018775265,-3.22
1631018775281,-4.12
1631018775296,-4.88
1631018775312,-5.76
1631018775328,-6.97
1631018775343,-8.53
1631018775359,-10.27
1631018775375,-11.86
1631018775390,-13.1
1631018775406,-13.95
1631018775421,-14.65
1631018775437,-15.5
1631018775453,-16.75
1631018775468,-18.43
1631018775484,-20.33
1631018775500,-22.14
1631018775515,-23.51
1631018775531,-24.18
1631018775546,-24.02
1631018775562,-22.99
1631018775578,-21.11
1631018775593,-18.45
1631018775609,-15.11
1631018775625,-11.27
1631018775640,-7.14
1631018775656,-2.97
1631018775671,0.98
1631018775687,4.5
1631018775703,7.48
1631018775718,9.86
1631018775734,11.65
1631018775750,12.89
1631018775765,13.6
1631018775781,13.8
1631018775796,13.49
1631018775812,12.73
1631018775828,11.63
1631018775843,10.37
1631018775859,9.15
1631018775875,8.13
1631018775890,7.39
1631018775906,6.94
1631018775921,6.72
1631018775937,6.61
1631018775953,6.45
1631018775968,6.14
1631018775984,5.59
1631018776000,4.83
1631018776015,3.97
1631018776031,3.16
1631018776046,2.47
1631018776062,1.93
1631018776078,1.43
1631018776093,0.83
1631018776109,0.02
1631018776125,-1.05
1631018776140,-2.29
1631018776156,-3.64
1631018776171,-5.02
1631018776187,-6.43
1631018776203,-7.84
1631018776218,-9.24
1631018776234,-10.55
1631018776250,-11.68
1631018776265,-12.61
1631018776281,-13.41
1631018776296,-14.24
1631018776312,-15.25
1631018776328,-16.56
1631018776343,-18.18
1631018776359,-19.98
1631018776375,-21.71
1631018776390,-23.05
1631018776406,-23.66
1631018776421,-23.25
1631018776437,-21.64
1631018776453,-18.87
1631018776468,-15.14
1631018776484,-10.76
1631018776500,-6.14
1631018776515,-1.61
1631018776531,2.56
1631018776546,6.12
1631018776562,8.93
1631018776578,10.91
1631018776593,12.1
1631018776609,12.7
1631018776625,12.99
1631018776640,13.23
1631018776656,13.59
1631018776671,14.01
1631018776687,14.26
1631018776703,14.08
1631018776718,13.28
1631018776734,11.88
1631018776750,10.11
1631018776765,8.29
1631018776781,6.77
1631018776796,5.75
1631018776812,5.27
1631018776828,5.19
1631018776843,5.29
1631018776859,5.33
1631018776875,5.14
1631018776890,4.63
1631018776906,3.79
1631018776921,2.69
1631018776937,1.43
1631018776953,0.13
1631018776968,-1.11
1631018776984,-2.19
1631018777000,-3.06
1631018777015,-3.74
1631018777031,-4.34
1631018777046,-5.04
1631018777062,-6.0
1631018777078,-7.28
1631018777093,-8.84
1631018777109,-10.58
1631018777125,-12.38
1631018777140,-14.18
1631018777156,-16.0
1631018777171,-17.91
1631018777187,-19.89
1631018777203,-21.81
1631018777218,-23.37
1631018777234,-24.23
1631018777250,-24.04
1631018777265,-22.63
1631018777281,-20.03
1631018777296,-16.48
1631018777312,-12.33
1631018777328,-7.94
1631018777343,-3.62
1631018777359,0.44
1631018777375,4.11
1631018777390,7.31
1631018777406,9.93
1631018777421,11.89
1631018777437,13.13
1631018777453,13.68
1631018777468,13.62
1631018777484,13.11
1631018777500,12.32
1631018777515,11.44
1631018777531,10.57
1631018777546,9.77
1631018777562,9.04
1631018777578,8.35
1631018777593,7.74
1631018777609,7.23
1631018777625,6.9
1631018777640,6.75
1631018777656,6.73
1631018777671,6.7
1631018777687,6.53
1631018777703,6.1
1631018777718,5.4
1631018777734,4.47
1631018777750,3.34
1631018777765,2.08
1631018777781,0.68
1631018777796,-0.81
1631018777812,-2.37
1631018777828,-3.94
1631018777843,-5.52
1631018777859,-7.09
1631018777875,-8.71
1631018777890,-10.39
1631018777906,-12.14
1631018777921,-13.91
1631018777937,-15.67
1631018777953,-17.45
1631018777968,-19.23
1631018777984,-20.97
1631018778000,-22.51
1631018778015,-23.55
1631018778031,-23.78
1631018778046,-22.92
1631018778062,-20.87
1631018778078,-17.71
1631018778093,-13.69
1631018778109,-9.13
1631018778125,-4.37
1631018778140,0.28
1631018778156,4.54
1631018778171,8.2
1631018778187,11.11
1631018778203,13.21
1631018778218,14.51
1631018778234,15.09
1631018778250,15.1
1631018778265,14.69
1631018778281,14.01
1631018778296,13.23
1631018778312,12.44
1631018778328,11.69
1631018778343,10.98
1631018778359,10.24
1631018778375,9.41
1631018778390,8.47
1631018778406,7.44
1631018778421,6.41
1631018778437,5.42
1631018778453,4.47
1631018778468,3.51
1631018778484,2.44
1631018778500,1.19
1631018778515,-0.24
1631018778531,-1.77
1631018778546,-3.32
1631018778562,-4.83
1631018778578,-6.32
1631018778593,-7.89
1631018778609,-9.62
1631018778625,-11.54
1631018778640,-13.61
1631018778656,-15.74
1631018778671,-17.89
1631018778687,-20.07
1631018778703,-22.32
1631018778718,-24.62
1631018778734,-26.78
1631018778750,-28.4
1631018778765,-29.0
1631018778781,-28.17
1631018778796,-25.74
1631018778812,-21.84
1631018778828,-16.85
1631018778843,-11.31
1631018778859,-5.67
1631018778875,-0.28
1631018778890,4.65
1631018778906,9.0
1631018778921,12.63
1631018778937,15.43
1631018778953,17.33
1631018778968,18.39
1631018778984,18.76
1631018779000,18.69
1631018779015,18.36
1631018779031,17.92
1631018779046,17.39
1631018779062,16.74
1631018779078,15.94
1631018779093,15.01
1631018779109,14.02
1631018779125,13.08
1631018779140,12.29
1631018779156,11.68
1631018779171,11.22
1631018779187,10.75
1631018779203,10.09
1631018779218,9.0
1631018779234,7.34
1631018779250,5.12
1631018779265,2.5
1631018779281,-0.23
1631018779296,-2.73
1631018779312,-4.76
1631018779328,-6.24
1631018779343,-7.3
1631018779359,-8.26
1631018779375,-9.53
1631018779390,-11.42
1631018779406,-14.04
1631018779421,-17.19
1631018779437,-20.37
1631018779453,-22.94
1631018779468,-24.26
1631018779484,-23.91
1631018779500,-21.78
1631018779515,-18.08
1631018779531,-13.27
1631018779546,-7.87
1631018779562,-2.4
1631018779578,2.76
1631018779593,7.33
1631018779609,11.17
1631018779625,14.21
1631018779640,16.45
1631018779656,17.93
1631018779671,18.69
1631018779687,18.85
1631018779703,18.53
1631018779718,17.88
1631018779734,17.06
1631018779750,16.2
1631018779765,15.32
1631018779781,14.42
1631018779796,13.45
1631018779812,12.4
1631018779828,11.38
1631018779843,10.53
1631018779859,9.97
1631018779875,9.75
1631018779890,9.73
1631018779906,9.65
1631018779921,9.21
1631018779937,8.17
1631018779953,6.49
1631018779968,4.28
1631018779984,1.76
1631018780000,-0.8
1631018780015,-3.18
1631018780031,-5.25
1631018780046,-7.01
1631018780062,-8.61
1631018780078,-10.28
1631018780093,-12.25
1631018780109,-14.6
1631018780125,-17.21
1631018780140,-19.71
1631018780156,-21.58
1631018780171,-22.3
1631018780187,-21.52
1631018780203,-19.11
1631018780218,-15.2
1631018780234,-10.13
1631018780250,-4.37
1631018780265,1.58
1631018780281,7.23
1631018780296,12.23
1631018780312,16.34
1631018780328,19.45
1631018780343,21.56
1631018780359,22.71
1631018780375,22.97
1631018780390,22.49
1631018780406,21.48
1631018780421,20.19
1631018780437,18.85
1631018780453,17.62
1631018780468,16.46
1631018780484,15.31
1631018780500,14.05
1631018780515,12.69
1631018780531,11.33
1631018780546,10.11
1631018780562,9.11
1631018780578,8.24
1631018780593,7.34
1631018780609,6.27
1631018780625,4.95
1631018780640,3.42
1631018780656,1.79
1631018780671,0.16
1631018780687,-1.42
1631018780703,-2.97
1631018780718,-4.5
1631018780734,-6.02
1631018780750,-7.57
1631018780765,-9.22
1631018780781,-11.1
1631018780796,-13.35
1631018780812,-16.01
1631018780828,-18.92
1631018780843,-21.76
1631018780859,-24.07
1631018780875,-25.38
1631018780890,-25.33
1631018780906,-23.73
1631018780921,-20.59
1631018780937,-16.12
1631018780953,-10.73
1631018780968,-4.94
1631018780984,0.7
1631018781000,5.78
1631018781015,10.09
1631018781031,13.62
1631018781046,16.5
1631018781062,18.84
1631018781078,20.68
1631018781093,21.92
1631018781109,22.49
1631018781125,22.33
1631018781140,21.54
1631018781156,20.32
1631018781171,18.89
1631018781187,17.45
1631018781203,16.14
1631018781218,15.03
1631018781234,14.11
1631018781250,13.36
1631018781265,12.71
1631018781281,12.08
1631018781296,11.38
1631018781312,10.52
1631018781328,9.46
1631018781343,8.21
1631018781359,6.79
1631018781375,5.22
1631018781390,3.53
1631018781406,1.76
1631018781421,-0.09
1631018781437,-1.99
1631018781453,-3.92
1631018781468,-5.85
1631018781484,-7.78
1631018781500,-9.72
1631018781515,-11.76
1631018781531,-13.99
1631018781546,-16.53
1631018781562,-19.4
1631018781578,-22.45
1631018781593,-25.41
1631018781609,-27.79
1631018781625,-29.08
1631018781640,-28.83
1631018781656,-26.79
1631018781671,-23.0
1631018781687,-17.8
1631018781703,-11.76
1631018781718,-5.52
1631018781734,0.39
1631018781750,5.61
1631018781765,10.0
1631018781781,13.56
1631018781796,16.34
1631018781812,18.42
1631018781828,19.82
1631018781843,20.58
1631018781859,20.74
1631018781875,20.4
1631018781890,19.67
1631018781906,18.67
1631018781921,17.51
1631018781937,16.28
1631018781953,15.06
1631018781968,13.94
1631018781984,12.96
1631018782000,12.19
1631018782015,11.63
1631018782031,11.28
1631018782046,11.07
1631018782062,10.86
1631018782078,10.44
1631018782093,9.57
1631018782109,8.12
1631018782125,6.09
1631018782140,3.67
1631018782156,1.18
1631018782171,-1.1
1631018782187,-2.99
1631018782203,-4.51
1631018782218,-5.78
1631018782234,-7.01
1631018782250,-8.35
1631018782265,-9.91
1631018782281,-11.7
1631018782296,-13.7
1631018782312,-15.79
1631018782328,-17.84
1631018782343,-19.63
1631018782359,-20.92
1631018782375,-21.42
1631018782390,-20.86
1631018782406,-19.06
1631018782421,-15.99
1631018782437,-11.81
1631018782453,-6.91
1631018782468,-1.81
1631018782484,3.0
1631018782500,7.17
1631018782515,10.53
1631018782531,13.09
1631018782546,14.93
1631018782562,16.1
1631018782578,16.62
1631018782593,16.55
1631018782609,15.99
1631018782625,15.15
1631018782640,14.23
1631018782656,13.34
1631018782671,12.52
1631018782687,11.72
1631018782703,10.91
1631018782718,10.08
1631018782734,9.24
1631018782750,8.41
1631018782765,7.57
1631018782781,6.71
1631018782796,5.84
1631018782812,5.0
1631018782828,4.19
1631018782843,3.33
1631018782859,2.29
1631018782875,0.96
1631018782890,-0.67
1631018782906,-2.49
1631018782921,-4.29
1631018782937,-5.91
1631018782953,-7.28
1631018782968,-8.49
1631018782984,-9.7
1631018783000,-11.09
1631018783015,-12.77
1631018783031,-14.75
1631018783046,-16.95
1631018783062,-19.2
1631018783078,-21.22
1631018783093,-22.69
1631018783109,-23.28
1631018783125,-22.71
1631018783140,-20.85
1631018783156,-17.71
1631018783171,-13.52
1631018783187,-8.6
1631018783203,-3.4
1631018783218,1.59
1631018783234,5.98
1631018783250,9.49
1631018783265,12.05
1631018783281,13.78
1631018783296,14.85
1631018783312,15.43
1631018783328,15.59
1631018783343,15.33
1631018783359,14.66
1631018783375,13.64
1631018783390,12.41
1631018783406,11.14
1631018783421,9.97
1631018783437,8.91
1631018783453,7.93
1631018783468,6.94
1631018783484,5.96
1631018783500,5.02
1631018783515,4.22
1631018783531,3.58
1631018783546,3.02
1631018783562,2.41
1631018783578,1.61
1631018783593,0.51
1631018783609,-0.91
1631018783625,-2.56
1631018783640,-4.31
1631018783656,-6.0
1631018783671,-7.55
1631018783687,-8.95
1631018783703,-10.3
1631018783718,-11.75
1631018783734,-13.45
1631018783750,-15.45
1631018783765,-17.69
1631018783781,-19.98
1631018783796,-22.03
1631018783812,-23.53
1631018783828,-24.19
1631018783843,-23.8
1631018783859,-22.26
1631018783875,-19.58
1631018783890,-15.94
1631018783906,-11.62
1631018783921,-6.97
1631018783937,-2.35
1631018783953,1.97
1631018783968,5.84
1631018783984,9.19
1631018784000,11.98
1631018784015,14.12
1631018784031,15.54
1631018784046,16.21
1631018784062,16.2
1631018784078,15.67
1631018784093,14.8
1631018784109,13.73
1631018784125,12.55
1631018784140,11.26
1631018784156,9.89
1631018784171,8.51
1631018784187,7.25
1631018784203,6.22
1631018784218,5.44
1631018784234,4.88
1631018784250,4.39
1631018784265,3.83
1631018784281,3.11
1631018784296,2.19
1631018784312,1.11
1631018784328,-0.07
1631018784343,-1.28
1631018784359,-2.47
1631018784375,-3.62
1631018784390,-4.75
1631018784406,-5.9
1631018784421,-7.09
1631018784437,-8.35
1631018784453,-9.66
1631018784468,-11.05
1631018784484,-12.57
1631018784500,-14.28
1631018784515,-16.24
1631018784531,-18.41
1631018784546,-20.59
1631018784562,-22.41
1631018784578,-23.44
1631018784593,-23.28
1631018784609,-21.74
1631018784625,-18.83
1631018784640,-14.76
1631018784656,-9.9
1631018784671,-4.66
1631018784687,0.58
1631018784703,5.45
1631018784718,9.66
1631018784734,12.98
1631018784750,15.26
1631018784765,16.46
1631018784781,16.65
1631018784796,16.08
1631018784812,15.07
1631018784828,13.93
1631018784843,12.91
1631018784859,12.13
1631018784875,11.55
1631018784890,11.05
1631018784906,10.48
1631018784921,9.71
1631018784937,8.72
1631018784953,7.58
1631018784968,6.36
1631018784984,5.15
1631018785000,4.02
1631018785015,2.99
1631018785031,2.04
1631018785046,1.18
1631018785062,0.34
1631018785078,-0.54
1631018785093,-1.53
1631018785109,-2.7
1631018785125,-4.05
1631018785140,-5.49
1631018785156,-6.96
1631018785171,-8.4
1631018785187,-9.81
1631018785203,-11.26
1631018785218,-12.84
1631018785234,-14.58
1631018785250,-16.42
1631018785265,-18.18
1631018785281,-19.63
1631018785296,-20.53
1631018785312,-20.67
1631018785328,-19.9
1631018785343,-18.17
1631018785359,-15.5
1631018785375,-11.99
1631018785390,-7.8
1631018785406,-3.19
1631018785421,1.52
1631018785437,5.96
1631018785453,9.8
1631018785468,12.76
1631018785484,14.72
1631018785500,15.71
1631018785515,15.88
1631018785531,15.45
1631018785546,14.61
1631018785562,13.54
1631018785578,12.36
1631018785593,11.17
1631018785609,10.08
1631018785625,9.13
1631018785640,8.33
1631018785656,7.62
1631018785671,6.92
1631018785687,6.13
1631018785703,5.26
1631018785718,4.31
1631018785734,3.32
1631018785750,2.31
1631018785765,1.25
1631018785781,0.12
1631018785796,-1.1
1631018785812,-2.39
1631018785828,-3.71
1631018785843,-4.98
1631018785859,-6.2
1631018785875,-7.38
1631018785890,-8.6
1631018785906,-9.95
1631018785921,-11.5
1631018785937,-13.3
1631018785953,-15.3
1631018785968,-17.39
1631018785984,-19.38
1631018786000,-21.08
1631018786015,-22.28
1631018786031,-22.77
1631018786046,-22.39
1631018786062,-20.98
1631018786078,-18.49
1631018786093,-15.01
1631018786109,-10.78
1631018786125,-6.15
1631018786140,-1.51
1631018786156,2.79
1631018786171,6.54
1631018786187,9.62
1631018786203,12.03
1631018786218,13.79
1631018786234,14.94
1631018786250,15.52
1631018786265,15.55
1631018786281,15.09
1631018786296,14.2
1631018786312,12.99
1631018786328,11.56
1631018786343,10.02
1631018786359,8.49
1631018786375,7.05
1631018786390,5.78
1631018786406,4.75
1631018786421,3.97
1631018786437,3.39
1631018786453,2.89
1631018786468,2.28
1631018786484,1.36
1631018786500,0.06
1631018786515,-1.59
1631018786531,-3.41
1631018786546,-5.19
1631018786562,-6.79
1631018786578,-8.2
1631018786593,-9.54
1631018786609,-10.99
1631018786625,-12.71
1631018786640,-14.77
1631018786656,-17.19
1631018786671,-19.9
1631018786687,-22.81
1631018786703,-25.69
1631018786718,-28.23
1631018786734,-30.02
1631018786750,-30.66
1631018786765,-29.93
1631018786781,-27.78
1631018786796,-24.44
1631018786812,-20.25
1631018786828,-15.64
1631018786843,-11.01
1631018786859,-6.72
1631018786875,-3.08
1631018786890,-0.28
1631018786906,1.58
1631018786921,2.5
1631018786937,2.58
1631018786953,1.96
1631018786968,0.78
1631018786984,-0.83
1631018787000,-2.72
1631018787015,-4.74
1631018787031,-6.76
1631018787046,-8.65
1631018787062,-10.29
1631018787078,-11.55
1631018787093,-12.21
1631018787109,-12.02
1631018787125,-10.78
1631018787140,-8.44
1631018787156,-5.2
1631018787171,-1.44
1631018787187,2.36
1631018787203,5.85
1631018787218,8.8
1631018787234,11.16
1631018787250,12.99
1631018787265,14.36
1631018787281,15.3
1631018787296,15.79
1631018787312,15.81
1631018787328,15.31
1631018787343,14.27
1631018787359,12.66
1631018787375,10.49
1631018787390,7.87
1631018787406,5.01
1631018787421,2.29
1631018787437,0.16
1631018787453,-0.94
1631018787468,-0.71
1631018787484,0.9
1631018787500,3.7
1631018787515,7.33
1631018787531,11.36
1631018787546,15.37
1631018787562,18.98
1631018787578,21.9
1631018787593,23.89
1631018787609,24.8
1631018787625,24.66
1631018787640,23.66
1631018787656,22.15
1631018787671,20.52
1631018787687,19.07
1631018787703,17.92
1631018787718,17.01
1631018787734,16.18
1631018787750,15.25
1631018787765,14.07
1631018787781,12.64
1631018787796,11.04
1631018787812,9.4
1631018787828,7.88
1631018787843,6.54
1631018787859,5.38
1631018787875,4.3
1631018787890,3.21
1631018787906,2.06
1631018787921,0.88
1631018787937,-0.3
1631018787953,-1.43
1631018787968,-2.58
1631018787984,-3.87
1631018788000,-5.43
1631018788015,-7.35
1631018788031,-9.6
1631018788046,-12.06
1631018788062,-14.58
1631018788078,-16.96
1631018788093,-18.98
1631018788109,-20.4
1631018788125,-20.95
1631018788140,-20.39
1631018788156,-18.58
1631018788171,-15.56
1631018788187,-11.58
1631018788203,-7.02
1631018788218,-2.33
1631018788234,2.13
1631018788250,6.07
1631018788265,9.39
1631018788281,12.07
1631018788296,14.13
1631018788312,15.59
1631018788328,16.42
1631018788343,16.62
1631018788359,16.13
1631018788375,15.0
1631018788390,13.36
1631018788406,11.45
1631018788421,9.6
1631018788437,8.13
1631018788453,7.21
1631018788468,6.8
1631018788484,6.67
1631018788500,6.51
1631018788515,6.06
1631018788531,5.19
1631018788546,3.94
1631018788562,2.42
1631018788578,0.77
1631018788593,-0.9
1631018788609,-2.54
1631018788625,-4.07
1631018788640,-5.45
1631018788656,-6.64
1631018788671,-7.7
1631018788687,-8.8
1631018788703,-10.17
1631018788718,-12.02
1631018788734,-14.44
1631018788750,-17.34
1631018788765,-20.38
1631018788781,-23.06
1631018788796,-24.79
1631018788812,-25.11
1631018788828,-23.75
1631018788843,-20.78
1631018788859,-16.5
1631018788875,-11.39
1631018788890,-5.95
1631018788906,-0.61
1631018788921,4.26
1631018788937,8.43
1631018788953,11.75
1631018788968,14.19
1631018788984,15.85
1631018789000,16.85
1631018789015,17.36
1631018789031,17.49
1631018789046,17.29
1631018789062,16.76
1631018789078,15.88
1631018789093,14.68
1631018789109,13.24
1631018789125,11.67
1631018789140,10.14
1631018789156,8.83
1631018789171,7.88
1631018789187,7.35
1631018789203,7.18
1631018789218,7.15
1631018789234,6.95
1631018789250,6.31
1631018789265,5.08
1631018789281,3.35
1631018789296,1.33
1631018789312,-0.66
1631018789328,-2.45
1631018789343,-3.97
1631018789359,-5.34
1631018789375,-6.72
1631018789390,-8.25
1631018789406,-9.97
1631018789421,-11.8
1631018789437,-13.64
1631018789453,-15.31
1631018789468,-16.69
1631018789484,-17.62
1631018789500,-17.93
1631018789515,-17.41
1631018789531,-15.85
1631018789546,-13.1
1631018789562,-9.19
1631018789578,-4.32
1631018789593,1.09
1631018789609,6.52
1631018789625,11.42
1631018789640,15.36
1631018789656,18.09
1631018789671,19.56
1631018789687,19.9
1631018789703,19.37
1631018789718,18.26
1631018789734,16.89
1631018789750,15.46
1631018789765,14.09
1631018789781,12.86
1631018789796,11.8
1631018789812,10.94
1631018789828,10.29
1631018789843,9.82
1631018789859,9.38
1631018789875,8.78
1631018789890,7.88
1631018789906,6.67
1631018789921,5.3
1631018789937,3.97
1631018789953,2.85
1631018789968,1.94
1631018789984,1.08
1631018790000,0.08
1631018790015,-1.18
1631018790031,-2.66
1631018790046,-4.21
1631018790062,-5.71
1631018790078,-7.16
1631018790093,-8.63
1631018790109,-10.28
1631018790125,-12.16
1631018790140,-14.2
1631018790156,-16.19
1631018790171,-17.86
1631018790187,-18.91
1631018790203,-19.05
1631018790218,-18.1
1631018790234,-16.0
1631018790250,-12.86
1631018790265,-8.96
1631018790281,-4.66
1631018790296,-0.3
1631018790312,3.85
1631018790328,7.65
1631018790343,10.98
1631018790359,13.72
1631018790375,15.71
1631018790390,16.76
1631018790406,16.82
1631018790421,15.99
1631018790437,14.55
1631018790453,12.92
1631018790468,11.43
1631018790484,10.28
1631018790500,9.47
1631018790515,8.86
1631018790531,8.33
1631018790546,7.78
1631018790562,7.25
1631018790578,6.78
1631018790593,6.36
1631018790609,5.88
1631018790625,5.17
1631018790640,4.09
1631018790656,2.65
1631018790671,1.02
1631018790687,-0.57
1631018790703,-1.9
1631018790718,-2.9
1631018790734,-3.68
1631018790750,-4.46
1631018790765,-5.46
1631018790781,-6.84
1631018790796,-8.63
1631018790812,-10.8
1631018790828,-13.23
1631018790843,-15.72
1631018790859,-18.04
1631018790875,-19.92
1631018790890,-21.09
1631018790906,-21.33
1631018790921,-20.49
1631018790937,-18.51
1631018790953,-15.46
1631018790968,-11.53
1631018790984,-7.03
1631018791000,-2.34
1631018791015,2.15
1631018791031,6.17
1631018791046,9.57
1631018791062,12.32
1631018791078,14.44
1631018791093,15.93
1631018791109,16.74
1631018791125,16.87
1631018791140,16.37
1631018791156,15.41
1631018791171,14.23
1631018791187,12.99
1631018791203,11.81
1631018791218,10.69
1631018791234,9.63
1631018791250,8.67
1631018791265,7.86
1631018791281,7.22
1631018791296,6.73
1631018791312,6.29
1631018791328,5.81
1631018791343,5.23
1631018791359,4.52
1631018791375,3.68
1631018791390,2.67
1631018791406,1.46
1631018791421,0.05
1631018791437,-1.5
1631018791453,-3.05
1631018791468,-4.49
1631018791484,-5.77
1631018791500,-6.95
1631018791515,-8.15
1631018791531,-9.53
1631018791546,-11.18
1631018791562,-13.14
1631018791578,-15.34
1631018791593,-17.66
1631018791609,-19.93
1631018791625,-21.88
1631018791640,-23.21
1631018791656,-23.61
1631018791671,-22.83
1631018791687,-20.77
1631018791703,-17.51
1631018791718,-13.32
1631018791734,-8.58
1631018791750,-3.69
1631018791765,1.0
1631018791781,5.27
1631018791796,8.97
1631018791812,12.05
1631018791828,14.47
1631018791843,16.17
1631018791859,17.18
1631018791875,17.56
1631018791890,17.45
1631018791906,17.01
1631018791921,16.4
1631018791937,15.65
1631018791953,14.79
1631018791968,13.8
1631018791984,12.72
1631018792000,11.69
1631018792015,10.81
1631018792031,10.18
1631018792046,9.79
1631018792062,9.55
1631018792078,9.29
1631018792093,8.88
1631018792109,8.25
1631018792125,7.37
1631018792140,6.28
1631018792156,5.06
1631018792171,3.8
1631018792187,2.58
1631018792203,1.47
1631018792218,0.5
1631018792234,-0.34
1631018792250,-1.12
1631018792265,-1.94
1631018792281,-2.93
1631018792296,-4.15
1631018792312,-5.65
1631018792328,-7.4
1631018792343,-9.27
1631018792359,-11.12
1631018792375,-12.78
1631018792390,-14.19
1631018792406,-15.42
1631018792421,-16.6
1631018792437,-17.87
1631018792453,-19.25
1631018792468,-20.56
1631018792484,-21.5
1631018792500,-21.72
1631018792515,-20.94
1631018792531,-19.02
1631018792546,-16.04
1631018792562,-12.18
1631018792578,-7.79
1631018792593,-3.23
1631018792609,1.1
1631018792625,4.88
1631018792640,7.92
1631018792656,10.18
1631018792671,11.67
1631018792687,12.53
1631018792703,12.85
1631018792718,12.74
1631018792734,12.3
1631018792750,11.66
1631018792765,10.94
1631018792781,10.27
1631018792796,9.73
1631018792812,9.32
1631018792828,9.03
1631018792843,8.8
1631018792859,8.56
1631018792875,8.27
1631018792890,7.93
1631018792906,7.55
1631018792921,7.19
1631018792937,6.88
1631018792953,6.58
1631018792968,6.21
1631018792984,5.67
1631018793000,4.89
1631018793015,3.91
1631018793031,2.83
1631018793046,1.77
1631018793062,0.78
1631018793078,-0.14
1631018793093,-1.11
1631018793109,-2.2
1631018793125,-3.47
1631018793140,-4.85
1631018793156,-6.23
1631018793171,-7.46
1631018793187,-8.47
1631018793203,-9.26
1631018793218,-9.9
1631018793234,-10.58
1631018793250,-11.46
1631018793265,-12.63
1631018793281,-14.14
1631018793296,-15.87
1631018793312,-17.63
1631018793328,-19.15
1631018793343,-20.13
1631018793359,-20.29
1631018793375,-19.41
1631018793390,-17.38
1631018793406,-14.27
1631018793421,-10.31
1631018793437,-5.91
1631018793453,-1.49
1631018793468,2.56
1631018793484,5.96
1631018793500,8.59
1631018793515,10.42
1631018793531,11.55
1631018793546,12.12
1631018793562,12.34
1631018793578,12.39
1631018793593,12.39
1631018793609,12.33
1631018793625,12.07
1631018793640,11.45
1631018793656,10.41
1631018793671,9.06
1631018793687,7.65
1631018793703,6.46
1631018793718,5.74
1631018793734,5.53
1631018793750,5.72
1631018793765,6.11
1631018793781,6.47
1631018793796,6.65
1631018793812,6.54
1631018793828,6.11
1631018793843,5.35
1631018793859,4.28
1631018793875,2.96
1631018793890,1.51
1631018793906,0.06
1631018793921,-1.3
1631018793937,-2.54
1631018793953,-3.74
1631018793968,-5.02
1631018793984,-6.48
1631018794000,-8.09
1631018794015,-9.69
1631018794031,-11.09
1631018794046,-12.13
1631018794062,-12.84
1631018794078,-13.38
1631018794093,-13.95
1631018794109,-14.72
1631018794125,-15.7
1631018794140,-16.83
1631018794156,-17.99
1631018794171,-19.04
1631018794187,-19.84
1631018794203,-20.2
1631018794218,-19.88
1631018794234,-18.64
1631018794250,-16.37
1631018794265,-13.14
1631018794281,-9.2
1631018794296,-4.93
1631018794312,-0.69
1631018794328,3.24
1631018794343,6.69
1631018794359,9.5
1631018794375,11.6
1631018794390,12.93
1631018794406,13.56
1631018794421,13.63
1631018794437,13.36
1631018794453,12.92
1631018794468,12.4
1631018794484,11.82
1631018794500,11.15
1631018794515,10.37
1631018794531,9.52
1631018794546,8.64
1631018794562,7.78
1631018794578,6.96
1631018794593,6.22
1631018794609,5.6
1631018794625,5.15
1631018794640,4.84
1631018794656,4.61
1631018794671,4.34
1631018794687,3.89
1631018794703,3.17
1631018794718,2.18
1631018794734,0.97
1631018794750,-0.4
1631018794765,-1.83
1631018794781,-3.3
1631018794796,-4.74
1631018794812,-6.14
1631018794828,-7.49
1631018794843,-8.78
1631018794859,-10.03
1631018794875,-11.24
1631018794890,-12.42
1631018794906,-13.62
1631018794921,-14.94
1631018794937,-16.49
1631018794953,-18.33
1631018794968,-20.38
1631018794984,-22.43
1631018795000,-24.15
1631018795015,-25.22
1631018795031,-25.42
1631018795046,-24.64
1631018795062,-22.86
1631018795078,-20.11
1631018795093,-16.46
1631018795109,-12.13
1631018795125,-7.46
1631018795140,-2.9
1631018795156,1.11
1631018795171,4.33
1631018795187,6.74
1631018795203,8.54
1631018795218,9.97
1631018795234,11.16
1631018795250,12.1
1631018795265,12.64
1631018795281,12.63
1631018795296,12.03
1631018795312,10.94
1631018795328,9.58
1631018795343,8.2
1631018795359,7.01
1631018795375,6.15
1631018795390,5.66
1631018795406,5.5
1631018795421,5.52
1631018795437,5.6
1631018795453,5.62
1631018795468,5.51
1631018795484,5.26
1631018795500,4.86
1631018795515,4.22
1631018795531,3.25
1631018795546,1.89
1631018795562,0.16
1631018795578,-1.74
1631018795593,-3.56
1631018795609,-5.09
1631018795625,-6.21
1631018795640,-6.97
1631018795656,-7.57
1631018795671,-8.23
1631018795687,-9.16
1631018795703,-10.5
1631018795718,-12.27
1631018795734,-14.41
1631018795750,-16.74
1631018795765,-19.0
1631018795781,-20.89
1631018795796,-22.13
1631018795812,-22.49
1631018795828,-21.84
1631018795843,-20.11
1631018795859,-17.36
1631018795875,-13.7
1631018795890,-9.4
1631018795906,-4.85
1631018795921,-0.45
1631018795937,3.49
1631018795953,6.78
1631018795968,9.46
1631018795984,11.65
1631018796000,13.44
1631018796015,14.81
1631018796031,15.65
1631018796046,15.85
1631018796062,15.39
1631018796078,14.43
1631018796093,13.21
1631018796109,12.01
1631018796125,11.0
1631018796140,10.27
1631018796156,9.77
1631018796171,9.44
1631018796187,9.2
1631018796203,9.0
1631018796218,8.79
1631018796234,8.52
1631018796250,8.09
1631018796265,7.4
1631018796281,6.33
1631018796296,4.83
1631018796312,2.97
1631018796328,0.9
1631018796343,-1.15
1631018796359,-3.01
1631018796375,-4.61
1631018796390,-6.0
1631018796406,-7.34
1631018796421,-8.78
1631018796437,-10.41
1631018796453,-12.25
1631018796468,-14.24
1631018796484,-16.33
1631018796500,-18.5
1631018796515,-20.68
1631018796531,-22.68
1631018796546,-24.18
1631018796562,-24.8
1631018796578,-24.18
1631018796593,-22.19
1631018796609,-18.97
1631018796625,-14.86
1631018796640,-10.27
1631018796656,-5.55
1631018796671,-0.9
1631018796687,3.58
1631018796703,7.83
1631018796718,11.71
1631018796734,15.02
1631018796750,17.56
1631018796765,19.17
1631018796781,19.85
1631018796796,19.74
1631018796812,19.06
1631018796828,18.05
1631018796843,16.91
1631018796859,15.77
1631018796875,14.72
1631018796890,13.8
1631018796906,13.04
1631018796921,12.41
1631018796937,11.9
1631018796953,11.47
1631018796968,11.1
1631018796984,10.78
1631018797000,10.44
1631018797015,9.97
1631018797031,9.23
1631018797046,8.14
1631018797062,6.68
1631018797078,4.95
1631018797093,3.11
1631018797109,1.27
1631018797125,-0.55
1631018797140,-2.39
1631018797156,-4.36
1631018797171,-6.5
1631018797187,-8.75
1631018797203,-11.06
1631018797218,-13.37
1631018797234,-15.73
1631018797250,-18.19
1631018797265,-20.78
1631018797281,-23.33
1631018797296,-25.44
1631018797312,-26.6
1631018797328,-26.3
1631018797343,-24.2
1631018797359,-20.31
1631018797375,-14.95
1631018797390,-8.68
1631018797406,-2.19
1631018797421,3.96
1631018797437,9.36
1631018797453,13.85
1631018797468,17.4
1631018797484,20.09
1631018797500,21.99
1631018797515,23.16
1631018797531,23.58
1631018797546,23.31
1631018797562,22.4
1631018797578,21.0
1631018797593,19.35
1631018797609,17.66
1631018797625,16.14
1631018797640,14.92
1631018797656,14.03
1631018797671,13.44
1631018797687,13.11
1631018797703,12.94
1631018797718,12.85
1631018797734,12.75
1631018797750,12.49
1631018797765,11.97
1631018797781,11.08
1631018797796,9.84
1631018797812,8.3
1631018797828,6.61
1631018797843,4.92
1631018797859,3.36
1631018797875,1.97
1631018797890,0.72
1631018797906,-0.53
1631018797921,-1.92
1631018797937,-3.58
1631018797953,-5.53
1631018797968,-7.68
1631018797984,-9.84
1631018798000,-11.88
1631018798015,-13.72
1631018798031,-15.41
1631018798046,-17.1
1631018798062,-18.92
1631018798078,-20.91
1631018798093,-22.93
1631018798109,-24.71
1631018798125,-25.86
1631018798140,-25.97
1631018798156,-24.72
1631018798171,-21.94
1631018798187,-17.7
1631018798203,-12.27
1631018798218,-6.16
1631018798234,0.06
1631018798250,5.89
1631018798265,10.95
1631018798281,15.06
1631018798296,18.17
1631018798312,20.34
1631018798328,21.62
1631018798343,22.14
1631018798359,22.01
1631018798375,21.42
1631018798390,20.57
1631018798406,19.7
1631018798421,18.97
1631018798437,18.46
1631018798453,18.14
1631018798468,17.87
1631018798484,17.48
1631018798500,16.84
1631018798515,15.88
1631018798531,14.71
1631018798546,13.52
1631018798562,12.47
1631018798578,11.68
1631018798593,11.1
1631018798609,10.57
1631018798625,9.88
1631018798640,8.92
1631018798656,7.63
1631018798671,6.07
1631018798687,4.3
1631018798703,2.36
1631018798718,0.31
1631018798734,-1.82
1631018798750,-3.93
1631018798765,-5.92
1631018798781,-7.67
1631018798796,-9.15
1631018798812,-10.46
1631018798828,-11.81
1631018798843,-13.45
1631018798859,-15.56
1631018798875,-18.15
1631018798890,-20.99
1631018798906,-23.63
1631018798921,-25.5
1631018798937,-26.1
1631018798953,-25.11
1631018798968,-22.47
1631018798984,-18.38
1631018799000,-13.19
1631018799015,-7.36
1631018799031,-1.35
1631018799046,4.37
1631018799062,9.41
1631018799078,13.47
1631018799093,16.45
1631018799109,18.42
1631018799125,19.6
1631018799140,20.23
1631018799156,20.49
1631018799171,20.46
1631018799187,20.14
1631018799203,19.48
1631018799218,18.51
1631018799234,17.32
1631018799250,16.07
1631018799265,14.91
1631018799281,13.95
1631018799296,13.17
1631018799312,12.53
1631018799328,11.94
1631018799343,11.34
1631018799359,10.7
1631018799375,10.0
1631018799390,9.23
1631018799406,8.35
1631018799421,7.27
1631018799437,5.94
1631018799453,4.33
1631018799468,2.49
1631018799484,0.54
1631018799500,-1.41
1631018799515,-3.26
1631018799531,-4.94
1631018799546,-6.43
1631018799562,-7.73
1631018799578,-8.92
1631018799593,-10.12
1631018799609,-11.47
1631018799625,-13.11
1631018799640,-15.14
1631018799656,-17.56
1631018799671,-20.26
1631018799687,-23.03
1631018799703,-25.55
1631018799718,-27.42
1631018799734,-28.21
1631018799750,-27.59
1631018799765,-25.36
1631018799781,-21.61
1631018799796,-16.67
1631018799812,-11.08
1631018799828,-5.37
1631018799843,-0.02
1631018799859,4.74
1631018799875,8.84
1631018799890,12.32
1631018799906,15.21
1631018799921,17.47
1631018799937,19.01
1631018799953,19.81
1631018799968,19.9
1631018799984,19.46
1631018800000,18.69
1631018800015,17.74
1631018800031,16.67
1631018800046,15.49
1631018800062,14.22
1631018800078,12.96
1631018800093,11.9
1631018800109,11.17
1631018800125,10.83
1631018800140,10.74
1631018800156,10.62
1631018800171,10.19
1631018800187,9.24
1631018800203,7.78
1631018800218,5.97
1631018800234,4.08
1631018800250,2.37
1631018800265,0.95
1631018800281,-0.2
1631018800296,-1.24
1631018800312,-2.4
1631018800328,-3.81
1631018800343,-5.46
1631018800359,-7.25
1631018800375,-9.01
1631018800390,-10.65
1631018800406,-12.21
1631018800421,-13.83
1631018800437,-15.65
1631018800453,-17.74
1631018800468,-20.02
1631018800484,-22.28
1631018800500,-24.27
1631018800515,-25.8
1631018800531,-26.7
1631018800546,-26.86
1631018800562,-26.16
1631018800578,-24.45
1631018800593,-21.61
1631018800609,-17.63
1631018800625,-12.71
1631018800640,-7.23
1631018800656,-1.68
1631018800671,3.48
1631018800687,7.97
1631018800703,11.65
1631018800718,14.52
1631018800734,16.59
1631018800750,17.81
1631018800765,18.17
1631018800781,17.71
1631018800796,16.61
1631018800812,15.2
1631018800828,13.83
1631018800843,12.79
1631018800859,12.16
1631018800875,11.83
1631018800890,11.59
1631018800906,11.19
1631018800921,10.5
1631018800937,9.53
1631018800953,8.36
1631018800968,7.18
1631018800984,6.13
1631018801000,5.3
1631018801015,4.67
1631018801031,4.13
1631018801046,3.52
1631018801062,2.7
1631018801078,1.57
1631018801093,0.07
1631018801109,-1.76
1631018801125,-3.85
1631018801140,-6.07
1631018801156,-8.25
1631018801171,-10.2
1631018801187,-11.8
1631018801203,-13.0
1631018801218,-13.94
1631018801234,-14.88
1631018801250,-16.09
1631018801265,-17.7
1631018801281,-19.62
1631018801296,-21.48
1631018801312,-22.79
1631018801328,-23.08
1631018801343,-22.06
1631018801359,-19.66
1631018801375,-16.02
1631018801390,-11.44
1631018801406,-6.29
1631018801421,-0.99
1631018801437,4.06
1631018801453,8.44
1631018801468,11.89
1631018801484,14.3
1631018801500,15.74
1631018801515,16.38
1631018801531,16.42
1631018801546,16.02
1631018801562,15.3
1631018801578,14.35
1631018801593,13.28
1631018801609,12.21
1631018801625,11.25
1631018801640,10.44
1631018801656,9.8
1631018801671,9.26
1631018801687,8.74
1631018801703,8.17
1631018801718,7.46
1631018801734,6.6
1631018801750,5.55
1631018801765,4.35
1631018801781,3.05
1631018801796,1.73
1631018801812,0.48
1631018801828,-0.66
1631018801843,-1.72
1631018801859,-2.78
1631018801875,-3.94
1631018801890,-5.31
1631018801906,-6.93
1631018801921,-8.75
1631018801937,-10.64
1631018801953,-12.5
1631018801968,-14.26
1631018801984,-15.91
1631018802000,-17.5
1631018802015,-19.06
1631018802031,-20.54
1631018802046,-21.74
1631018802062,-22.39
1631018802078,-22.2
1631018802093,-20.96
1631018802109,-18.6
1631018802125,-15.23
1631018802140,-11.08
1631018802156,-6.45
1631018802171,-1.65
1631018802187,3.06
1631018802203,7.42
1631018802218,11.17
1631018802234,14.07
1631018802250,15.93
1631018802265,16.67
1631018802281,16.4
1631018802296,15.38
1631018802312,13.97
1631018802328,12.59
1631018802343,11.5
1631018802359,10.83
1631018802375,10.5
1631018802390,10.28
1631018802406,9.94
1631018802421,9.3
1631018802437,8.35
1631018802453,7.24
1631018802468,6.19
1631018802484,5.37
1631018802500,4.84
1631018802515,4.47
1631018802531,4.05
1631018802546,3.37
1631018802562,2.3
1631018802578,0.84
1631018802593,-0.95
1631018802609,-2.98
1631018802625,-5.14
1631018802640,-7.28
1631018802656,-9.23
1631018802671,-10.87
1631018802687,-12.14
1631018802703,-13.14
1631018802718,-14.16
1631018802734,-15.47
1631018802750,-17.27
1631018802765,-19.47
1631018802781,-21.73
1631018802796,-23.54
1631018802812,-24.4
1631018802828,-23.94
1631018802843,-22.03
1631018802859,-18.79
1631018802875,-14.49
1631018802890,-9.52
1631018802906,-4.27
1631018802921,0.91
1631018802937,5.7
1631018802953,9.88
1631018802968,13.28
1631018802984,15.79
1631018803000,17.38
1631018803015,18.06
1631018803031,17.88
1631018803046,17.03
1631018803062,15.75
1631018803078,14.29
1631018803093,12.89
1631018803109,11.69
1631018803125,10.71
1631018803140,9.92
1631018803156,9.21
1631018803171,8.5
1631018803187,7.75
1631018803203,6.94
1631018803218,6.09
1631018803234,5.21
1631018803250,4.32
1631018803265,3.39
1631018803281,2.4
1631018803296,1.31
1631018803312,0.11
1631018803328,-1.2
1631018803343,-2.61
1631018803359,-4.07
1631018803375,-5.55
1631018803390,-7.04
1631018803406,-8.56
1631018803421,-10.18
1631018803437,-11.96
1631018803453,-13.96
1631018803468,-16.15
1631018803484,-18.44
1631018803500,-20.71
1631018803515,-22.84
1631018803531,-24.67
1631018803546,-26.03
1631018803562,-26.69
1631018803578,-26.39
1631018803593,-24.86
1631018803609,-21.95
1631018803625,-17.75
1631018803640,-12.58
1631018803656,-6.92
1631018803671,-1.31
1631018803687,3.81
1631018803703,8.19
1631018803718,11.74
1631018803734,14.49
1631018803750,16.48
1631018803765,17.78
1631018803781,18.4
1631018803796,18.38
1631018803812,17.81
1631018803828,16.88
1631018803843,15.78
1631018803859,14.75
1631018803875,13.94
1631018803890,13.4
1631018803906,13.06
1631018803921,12.76
1631018803937,12.36
1631018803953,11.75
1631018803968,10.92
1631018803984,9.93
1631018804000,8.89
1631018804015,7.89
1631018804031,6.97
1631018804046,6.11
1631018804062,5.22
1631018804078,4.18
1631018804093,2.87
1631018804109,1.18
1631018804125,-0.88
1631018804140,-3.22
1631018804156,-5.64
1631018804171,-7.94
1631018804187,-9.95
1631018804203,-11.6
1631018804218,-12.91
1631018804234,-14.05
1631018804250,-15.22
1631018804265,-16.63
1631018804281,-18.4
1631018804296,-20.45
1631018804312,-22.48
1631018804328,-24.04
1631018804343,-24.62
1631018804359,-23.81
1631018804375,-21.47
1631018804390,-17.74
1631018804406,-12.94
1631018804421,-7.53
1631018804437,-1.97
1631018804453,3.37
1631018804468,8.16
1631018804484,12.16
1631018804500,15.19
1631018804515,17.21
1631018804531,18.28
1631018804546,18.56
1631018804562,18.24
1631018804578,17.54
1631018804593,16.61
1631018804609,15.62
1631018804625,14.7
1631018804640,13.94
1631018804656,13.41
1631018804671,13.08
1631018804687,12.84
1631018804703,12.53
1631018804718,12.05
1631018804734,11.38
1631018804750,10.55
1631018804765,9.67
1631018804781,8.79
1631018804796,7.91
1631018804812,6.95
1631018804828,5.83
1631018804843,4.46
1631018804859,2.81
1631018804875,0.94
1631018804890,-1.07
1631018804906,-3.08
1631018804921,-4.95
1631018804937,-6.56
1631018804953,-7.82
1631018804968,-8.77
1631018804984,-9.54
1631018805000,-10.39
1631018805015,-11.64
1631018805031,-13.54
1631018805046,-16.12
1631018805062,-19.14
1631018805078,-22.11
1631018805093,-24.4
1631018805109,-25.39
1631018805125,-24.66
1631018805140,-22.09
1631018805156,-17.91
1631018805171,-12.58
1631018805187,-6.75
1631018805203,-1.02
1631018805218,4.11
1631018805234,8.39
1631018805250,11.77
1631018805265,14.38
1631018805281,16.37
1631018805296,17.85
1631018805312,18.84
1631018805328,19.3
1631018805343,19.23
1631018805359,18.7
1631018805375,17.85
1631018805390,16.86
1631018805406,15.86
1631018805421,14.87
1631018805437,13.9
1631018805453,12.89
1631018805468,11.86
1631018805484,10.83
1631018805500,9.82
1631018805515,8.85
1631018805531,7.93
1631018805546,7.04
1631018805562,6.19
1631018805578,5.35
1631018805593,4.44
1631018805609,3.32
1631018805625,1.9
1631018805640,0.13
1631018805656,-1.88
1631018805671,-3.96
1631018805687,-5.9
1631018805703,-7.59
1631018805718,-9.04
1631018805734,-10.35
1631018805750,-11.68
1631018805765,-13.16
1631018805781,-14.9
1631018805796,-16.91
1631018805812,-19.11
1631018805828,-21.29
1631018805843,-23.08
1631018805859,-24.04
1631018805875,-23.74
1631018805890,-21.93
1631018805906,-18.62
1631018805921,-14.06
1631018805937,-8.66
1631018805953,-2.89
1631018805968,2.83
1631018805984,8.16
1631018806000,12.85
1631018806015,16.71
1631018806031,19.63
1631018806046,21.57
1631018806062,22.62
1631018806078,22.92
1631018806093,22.66
1631018806109,22.04
1631018806125,21.2
1631018806140,20.2
1631018806156,19.05
1631018806171,17.72
1631018806187,16.22
1631018806203,14.57
1631018806218,12.84
1631018806234,11.17
1631018806250,9.67
1631018806265,8.43
1631018806281,7.46
1631018806296,6.69
1631018806312,6.02
1631018806328,5.3
1631018806343,4.4
1631018806359,3.22
1631018806375,1.75
1631018806390,0.03
1631018806406,-1.85
1631018806421,-3.79
1631018806437,-5.71
1631018806453,-7.53
1631018806468,-9.2
1631018806484,-10.68
1631018806500,-12.0
1631018806515,-13.28
1631018806531,-14.73
1631018806546,-16.56
1631018806562,-18.9
1631018806578,-21.67
1631018806593,-24.55
1631018806609,-27.04
1631018806625,-28.6
1631018806640,-28.77
1631018806656,-27.35
1631018806671,-24.36
1631018806687,-20.05
1631018806703,-14.81
1631018806718,-9.11
1631018806734,-3.41
1631018806750,1.89
1631018806765,6.53
1631018806781,10.39
1631018806796,13.45
1631018806812,15.77
1631018806828,17.42
1631018806843,18.45
1631018806859,18.93
1631018806875,18.93
1631018806890,18.55
1631018806906,17.87
1631018806921,16.94
1631018806937,15.79
1631018806953,14.43
1631018806968,12.96
1631018806984,11.54
1631018807000,10.37
1631018807015,9.57
1631018807031,9.15
1631018807046,8.97
1631018807062,8.81
1631018807078,8.42
1631018807093,7.68
1631018807109,6.57
1631018807125,5.18
1631018807140,3.64
1631018807156,2.0
1631018807171,0.3
1631018807187,-1.45
1631018807203,-3.2
1631018807218,-4.83
1631018807234,-6.22
1631018807250,-7.31
1631018807265,-8.18
1631018807281,-8.99
1631018807296,-10.0
1631018807312,-11.38
1631018807328,-13.22
1631018807343,-15.45
1631018807359,-17.9
1631018807375,-20.34
1631018807390,-22.46
1631018807406,-23.93
1631018807421,-24.4
1631018807437,-23.55
1631018807453,-21.22
1631018807468,-17.47
1631018807484,-12.61
1631018807500,-7.14
1631018807515,-1.63
1631018807531,3.43
1631018807546,7.67
1631018807562,10.95
1631018807578,13.3
1631018807593,14.86
1631018807609,15.81
1631018807625,16.29
1631018807640,16.38
1631018807656,16.14
1631018807671,15.6
1631018807687,14.76
1631018807703,13.7
1631018807718,12.49
1631018807734,11.23
1631018807750,10.05
1631018807765,9.05
1631018807781,8.26
1631018807796,7.71
1631018807812,7.33
1631018807828,7.07
1631018807843,6.85
1631018807859,6.57
1631018807875,6.14
1631018807890,5.41
1631018807906,4.26
1631018807921,2.6
1631018807937,0.49
1631018807953,-1.84
1631018807968,-4.06
1631018807984,-5.76
1631018808000,-6.71
1631018808015,-6.9
1631018808031,-6.6
1631018808046,-6.23
1631018808062,-6.27
1631018808078,-7.06
1631018808093,-8.69
1631018808109,-11.06
1631018808125,-13.88
1631018808140,-16.82
1631018808156,-19.55
1631018808171,-21.73
1631018808187,-23.0
1631018808203,-23.0
1631018808218,-21.48
1631018808234,-18.37
1631018808250,-13.97
1631018808265,-8.82
1631018808281,-3.62
1631018808296,1.05
1631018808312,4.87
1631018808328,7.82
1631018808343,10.05
1631018808359,11.78
1631018808375,13.1
1631018808390,14.02
1631018808406,14.49
1631018808421,14.51
1631018808437,14.15
1631018808453,13.52
1631018808468,12.71
1631018808484,11.79
1631018808500,10.78
1631018808515,9.73
1631018808531,8.71
1631018808546,7.82
1631018808562,7.1
1631018808578,6.53
1631018808593,5.96
1631018808609,5.27
1631018808625,4.37
1631018808640,3.2
1631018808656,1.81
1631018808671,0.23
1631018808687,-1.48
1631018808703,-3.27
1631018808718,-5.01
1631018808734,-6.57
1631018808750,-7.83
1631018808765,-8.76
1631018808781,-9.48
1631018808796,-10.24
1631018808812,-11.31
1631018808828,-12.89
1631018808843,-14.98
1631018808859,-17.44
1631018808875,-20.0
1631018808890,-22.33
1631018808906,-24.1
1631018808921,-24.98
1631018808937,-24.67
1631018808953,-22.96
1631018808968,-19.77
1631018808984,-15.25
1631018809000,-9.81
1631018809015,-3.98
1631018809031,1.65
1631018809046,6.62
1631018809062,10.67
1631018809078,13.75
1631018809093,15.93
1631018809109,17.37
1631018809125,18.16
1631018809140,18.37
1631018809156,18.04
1631018809171,17.26
1631018809187,16.16
1631018809203,14.92
1631018809218,13.74
1631018809234,12.73
1631018809250,11.96
1631018809265,11.36
1631018809281,10.85
1631018809296,10.31
1631018809312,9.65
1631018809328,8.82
1631018809343,7.84
1631018809359,6.75
1631018809375,5.58
1631018809390,4.31
1631018809406,2.89
1631018809421,1.21
1631018809437,-0.76
1631018809453,-2.94
1631018809468,-5.1
1631018809484,-6.96
1631018809500,-8.3
1631018809515,-9.15
1631018809531,-9.75
1631018809546,-10.53
1631018809562,-11.85
1631018809578,-13.87
1631018809593,-16.46
1631018809609,-19.28
1631018809625,-21.9
1631018809640,-23.92
1631018809656,-25.03
1631018809671,-25.02
1631018809687,-23.73
1631018809703,-21.11
1631018809718,-17.25
1631018809734,-12.43
1631018809750,-7.09
1631018809765,-1.74
1631018809781,3.16
1631018809796,7.3
1631018809812,10.57
1631018809828,13.01
1631018809843,14.77
1631018809859,15.98
1631018809875,16.75
1631018809890,17.11
1631018809906,17.05
1631018809921,16.58
1631018809937,15.72
1631018809953,14.57
1631018809968,13.25
1631018809984,11.92
1631018810000,10.7
1631018810015,9.65
1631018810031,8.79
1631018810046,8.08
1631018810062,7.48
1631018810078,6.93
1631018810093,6.41
1631018810109,5.87
1631018810125,5.24
1631018810140,4.41
1631018810156,3.26
1631018810171,1.73
1631018810187,-0.13
1631018810203,-2.17
1631018810218,-4.16
1631018810234,-5.9
1631018810250,-7.28
1631018810265,-8.36
1631018810281,-9.32
1631018810296,-10.43
1631018810312,-11.91
1631018810328,-13.85
1631018810343,-16.18
1631018810359,-18.65
1631018810375,-20.91
1631018810390,-22.55
1631018810406,-23.21
1631018810421,-22.63
1631018810437,-20.73
1631018810453,-17.56
1631018810468,-13.38
1631018810484,-8.54
1631018810500,-3.48
1631018810515,1.4
1631018810531,5.78
1631018810546,9.45
1631018810562,12.3
1631018810578,14.31
1631018810593,15.56
1631018810609,16.14
1631018810625,16.17
1631018810640,15.81
1631018810656,15.17
1631018810671,14.37
1631018810687,13.44
1631018810703,12.42
1631018810718,11.31
1631018810734,10.14
1631018810750,8.98
1631018810765,7.91
1631018810781,7.02
1631018810796,6.38
1631018810812,5.99
1631018810828,5.83
1631018810843,5.77
1631018810859,5.63
1631018810875,5.2
1631018810890,4.28
1631018810906,2.77
1631018810921,0.79
1631018810937,-1.41
1631018810953,-3.47
1631018810968,-5.12
1631018810984,-6.26
1631018811000,-7.02
1631018811015,-7.71
1631018811031,-8.66
1631018811046,-10.12
1631018811062,-12.09
1631018811078,-14.41
1631018811093,-16.79
1631018811109,-18.9
1631018811125,-20.44
1631018811140,-21.13
1631018811156,-20.77
1631018811171,-19.21
1631018811187,-16.42
1631018811203,-12.5
1631018811218,-7.74
1631018811234,-2.54
1631018811250,2.62
1631018811265,7.31
1631018811281,11.2
1631018811296,14.08
1631018811312,15.87
1631018811328,16.65
1631018811343,16.58
1631018811359,15.96
1631018811375,15.1
1631018811390,14.26
1631018811406,13.57
1631018811421,12.98
1631018811437,12.32
1631018811453,11.42
1631018811468,10.21
1631018811484,8.81
1631018811500,7.44
1631018811515,6.31
1631018811531,5.5
1631018811546,4.94
1631018811562,4.41
1631018811578,3.69
1631018811593,2.69
1631018811609,1.42
1631018811625,0.02
1631018811640,-1.38
1631018811656,-2.72
1631018811671,-4.05
1631018811687,-5.42
1631018811703,-6.89
1631018811718,-8.43
1631018811734,-9.97
1631018811750,-11.5
1631018811765,-13.05
1631018811781,-14.76
1631018811796,-16.67
1631018811812,-18.74
1631018811828,-20.65
1631018811843,-21.97
1631018811859,-22.21
1631018811875,-21.04
1631018811890,-18.39
1631018811906,-14.48
1631018811921,-9.72
1631018811937,-4.61
1631018811953,0.42
1631018811968,5.07
1631018811984,9.13
1631018812000,12.49
1631018812015,15.08
1631018812031,16.84
1631018812046,17.72
1631018812062,17.75
1631018812078,17.05
1631018812093,15.87
1631018812109,14.54
1631018812125,13.35
1631018812140,12.47
1631018812156,11.89
1631018812171,11.45
1631018812187,10.96
1631018812203,10.33
1631018812218,9.56
1631018812234,8.71
1631018812250,7.84
1631018812265,6.92
1631018812281,5.84
1631018812296,4.48
1631018812312,2.82
1631018812328,0.96
1631018812343,-0.91
1631018812359,-2.64
1631018812375,-4.18
1631018812390,-5.62
1631018812406,-7.06
1631018812421,-8.62
1631018812437,-10.32
1631018812453,-12.09
1631018812468,-13.91
1631018812484,-15.73
1631018812500,-17.61
1631018812515,-19.55
1631018812531,-21.46
1631018812546,-23.14
1631018812562,-24.26
1631018812578,-24.5
1631018812593,-23.59
1631018812609,-21.45
1631018812625,-18.15
1631018812640,-13.92
1631018812656,-9.07
1631018812671,-3.94
1631018812687,1.15
1631018812703,5.94
1631018812718,10.2
1631018812734,13.75
1631018812750,16.42
1631018812765,18.1
1631018812781,18.76
1631018812796,18.49
1631018812812,17.53
1631018812828,16.21
1631018812843,14.86
1631018812859,13.69
1631018812875,12.75
1631018812890,11.97
1631018812906,11.22
1631018812921,10.39
1631018812937,9.48
1631018812953,8.54
1631018812968,7.6
1631018812984,6.68
1631018813000,5.75
1631018813015,4.81
1631018813031,3.87
1631018813046,2.94
1631018813062,2.0
1631018813078,1.0
1631018813093,-0.15
1631018813109,-1.47
1631018813125,-2.91
1631018813140,-4.37
1631018813156,-5.75
1631018813171,-7.07
1631018813187,-8.49
1631018813203,-10.17
1631018813218,-12.2
1631018813234,-14.47
1631018813250,-16.72
1631018813265,-18.56
1631018813281,-19.67
1631018813296,-19.81
1631018813312,-18.86
1631018813328,-16.79
1631018813343,-13.64
1631018813359,-9.58
1631018813375,-4.89
1631018813390,0.01
1631018813406,4.7
1631018813421,8.79
1631018813437,12.07
1631018813453,14.54
1631018813468,16.28
1631018813484,17.43
1631018813500,18.07
1631018813515,18.21
1631018813531,17.82
1631018813546,16.93
1631018813562,15.6
1631018813578,14.0
1631018813593,12.34
1631018813609,10.87
1631018813625,9.74
1631018813640,9.05
1631018813656,8.75
1631018813671,8.68
1631018813687,8.63
1631018813703,8.37
1631018813718,7.72
1631018813734,6.66
1631018813750,5.25
1631018813765,3.65
1631018813781,2.04
1631018813796,0.52
1631018813812,-0.85
1631018813828,-2.06
1631018813843,-3.11
1631018813859,-4.08
1631018813875,-5.04
1631018813890,-6.14
1631018813906,-7.54
1631018813921,-9.38
1631018813937,-11.67
1631018813953,-14.31
1631018813968,-17.03
1631018813984,-19.55
1631018814000,-21.55
1631018814015,-22.86
1631018814031,-23.35
1631018814046,-22.94
1631018814062,-21.57
1631018814078,-19.16
1631018814093,-15.67
1631018814109,-11.2
1631018814125,-5.98
1631018814140,-0.36
1631018814156,5.24
1631018814171,10.45
1631018814187,14.99
1631018814203,18.72
1631018814218,21.59
1631018814234,23.57
1631018814250,24.62
1631018814265,24.71
1631018814281,23.88
1631018814296,22.24
1631018814312,20.05
1631018814328,17.68
1631018814343,15.51
1631018814359,13.87
1631018814375,12.93
1631018814390,12.62
1631018814406,12.67
1631018814421,12.69
1631018814437,12.34
1631018814453,11.53
1631018814468,10.43
1631018814484,9.36
1631018814500,8.7
1631018814515,8.59
1631018814531,8.91
1631018814546,9.24
1631018814562,9.09
1631018814578,8.02
1631018814593,5.88
1631018814609,2.79
1631018814625,-0.93
1631018814640,-4.91
1631018814656,-8.84
1631018814671,-12.55
1631018814687,-15.98
1631018814703,-19.1
1631018814718,-21.89
1631018814734,-24.36
1631018814750,-26.57
1631018814765,-28.61
1631018814781,-30.56
1631018814796,-32.37
1631018814812,-33.78
1631018814828,-34.4
1631018814843,-33.72
1631018814859,-31.42
1631018814875,-27.41
1631018814890,-21.97
1631018814906,-15.59
1631018814921,-8.91
1631018814937,-2.51
1631018814953,3.18
1631018814968,7.88
1631018814984,11.49
1631018815000,14.04
1631018815015,15.62
1631018815031,16.38
1631018815046,16.46
1631018815062,15.97
1631018815078,15.06
1631018815093,13.92
1631018815109,12.73
1631018815125,11.68
1631018815140,10.85
1631018815156,10.22
1631018815171,9.68
1631018815187,9.13
1631018815203,8.52
1631018815218,7.9
1631018815234,7.36
1631018815250,6.95
1631018815265,6.6
1631018815281,6.15
1631018815296,5.42
1631018815312,4.3
1631018815328,2.81
1631018815343,1.08
1631018815359,-0.75
1631018815375,-2.57
1631018815390,-4.35
1631018815406,-6.08
1631018815421,-7.75
1631018815437,-9.33
1631018815453,-10.77
1631018815468,-12.04
1631018815484,-13.17
1631018815500,-14.27
1631018815515,-15.44
1631018815531,-16.74
1631018815546,-18.12
1631018815562,-19.34
1631018815578,-20.09
1631018815593,-19.98
1631018815609,-18.72
1631018815625,-16.23
1631018815640,-12.64
1631018815656,-8.27
1631018815671,-3.53
1631018815687,1.21
1631018815703,5.69
1631018815718,9.68
1631018815734,13.01
1631018815750,15.54
1631018815765,17.13
1631018815781,17.74
1631018815796,17.41
1631018815812,16.33
1631018815828,14.79
1631018815843,13.11
1631018815859,11.59
1631018815875,10.43
1631018815890,9.7
1631018815906,9.33
1631018815921,9.17
1631018815937,9.02
1631018815953,8.73
1631018815968,8.26
1631018815984,7.65
1631018816000,6.95
1631018816015,6.19
1631018816031,5.33
1631018816046,4.23
1631018816062,2.79
1631018816078,0.98
1631018816093,-1.08
1631018816109,-3.17
1631018816125,-5.02
1631018816140,-6.51
1631018816156,-7.66
1631018816171,-8.67
1631018816187,-9.83
1631018816203,-11.36
1631018816218,-13.3
1631018816234,-15.54
1631018816250,-17.78
1631018816265,-19.72
1631018816281,-21.08
1631018816296,-21.65
1631018816312,-21.24
1631018816328,-19.75
1631018816343,-17.12
1631018816359,-13.44
1631018816375,-8.95
1631018816390,-4.03
1631018816406,0.86
1631018816421,5.35
1631018816437,9.16
1631018816453,12.15
1631018816468,14.27
1631018816484,15.51
1631018816500,15.91
1631018816515,15.57
1631018816531,14.71
1631018816546,13.59
1631018816562,12.45
1631018816578,11.4
1631018816593,10.49
1631018816609,9.61
1631018816625,8.72
1631018816640,7.84
1631018816656,7.03
1631018816671,6.34
1631018816687,5.77
1631018816703,5.22
1631018816718,4.55
1631018816734,3.66
1631018816750,2.5
1631018816765,1.13
1631018816781,-0.36
1631018816796,-1.87
1631018816812,-3.33
1631018816828,-4.69
1631018816843,-5.96
1631018816859,-7.22
1631018816875,-8.58
1631018816890,-10.15
1631018816906,-12.01
1631018816921,-14.19
1631018816937,-16.63
1631018816953,-19.15
1631018816968,-21.51
1631018816984,-23.31
1631018817000,-24.18
1631018817015,-23.75
1631018817031,-21.86
1631018817046,-18.59
1631018817062,-14.26
1631018817078,-9.34
1631018817093,-4.28
1631018817109,0.56
1631018817125,4.99
1631018817140,8.87
1631018817156,12.12
1631018817171,14.63
1631018817187,16.32
1631018817203,17.2
1631018817218,17.35
1631018817234,16.96
1631018817250,16.22
1631018817265,15.3
1631018817281,14.26
1631018817296,13.15
1631018817312,11.95
1631018817328,10.69
1631018817343,9.44
1631018817359,8.33
1631018817375,7.45
1631018817390,6.82
1631018817406,6.36
1631018817421,5.9
1631018817437,5.25
1631018817453,4.23
1631018817468,2.75
1631018817484,0.89
1631018817500,-1.19
1631018817515,-3.28
1631018817531,-5.19
1631018817546,-6.85
1631018817562,-8.34
1631018817578,-9.86
1631018817593,-11.62
1631018817609,-13.78
1631018817625,-16.32
1631018817640,-19.12
1631018817656,-21.91
1631018817671,-24.42
1631018817687,-26.37
1631018817703,-27.47
1631018817718,-27.41
1631018817734,-25.93
1631018817750,-22.92
1631018817765,-18.49
1631018817781,-13.03
1631018817796,-7.13
1631018817812,-1.42
1631018817828,3.65
1631018817843,7.83
1631018817859,11.14
1631018817875,13.7
1631018817890,15.62
1631018817906,16.99
1631018817921,17.8
1631018817937,18.08
1631018817953,17.91
1631018817968,17.39
1631018817984,16.64
1631018818000,15.75
1631018818015,14.74
1631018818031,13.61
1631018818046,12.37
1631018818062,11.05
1631018818078,9.77
1631018818093,8.67
1631018818109,7.84
1631018818125,7.29
1631018818140,6.88
1631018818156,6.42
1631018818171,5.7
1631018818187,4.6
1631018818203,3.11
1631018818218,1.33
1631018818234,-0.59
1631018818250,-2.5
1631018818265,-4.35
1631018818281,-6.12
1631018818296,-7.84
1631018818312,-9.59
1631018818328,-11.43
1631018818343,-13.43
1631018818359,-15.6
1631018818375,-17.89
1631018818390,-20.09
1631018818406,-21.86
1631018818421,-22.77
1631018818437,-22.42
1631018818453,-20.59
1631018818468,-17.31
1631018818484,-12.84
1631018818500,-7.63
1631018818515,-2.16
1631018818531,3.14
1631018818546,7.94
1631018818562,11.98
1631018818578,15.09
1631018818593,17.19
1631018818609,18.31
1631018818625,18.56
1631018818640,18.17
1631018818656,17.37
1631018818671,16.38
1631018818687,15.32
1631018818703,14.21
1631018818718,13.03
1631018818734,11.77
1631018818750,10.5
1631018818765,9.31
1631018818781,8.33
1631018818796,7.6
1631018818812,7.08
1631018818828,6.68
1631018818843,6.3
1631018818859,5.87
1631018818875,5.3
1631018818890,4.52
1631018818906,3.48
1631018818921,2.13
1631018818937,0.52
1631018818953,-1.22
1631018818968,-2.94
1631018818984,-4.52
1631018819000,-5.98
1631018819015,-7.5
1631018819031,-9.27
1631018819046,-11.37
1631018819062,-13.75
1631018819078,-16.2
1631018819093,-18.38
1631018819109,-20.0
1631018819125,-20.77
1631018819140,-20.5
1631018819156,-19.01
1631018819171,-16.25
1631018819187,-12.3
1631018819203,-7.38
1631018819218,-1.89
1631018819234,3.71
1631018819250,8.98
1631018819265,13.52
1631018819281,17.04
1631018819296,19.38
1631018819312,20.48
1631018819328,20.45
1631018819343,19.54
1631018819359,18.13
1631018819375,16.57
1631018819390,15.11
1631018819406,13.87
1631018819421,12.78
1631018819437,11.74
1631018819453,10.68
1631018819468,9.61
1631018819484,8.65
1631018819500,7.89
1631018819515,7.34
1631018819531,6.89
1631018819546,6.31
1631018819562,5.37
1631018819578,3.94
1631018819593,2.05
1631018819609,-0.05
1631018819625,-2.09
1631018819640,-3.82
1631018819656,-5.18
1631018819671,-6.3
1631018819687,-7.43
1631018819703,-8.82
1631018819718,-10.64
1631018819734,-12.89
1631018819750,-15.46
1631018819765,-18.2
1631018819781,-20.85
1631018819796,-23.15
1631018819812,-24.73
1631018819828,-25.24
1631018819843,-24.33
1631018819859,-21.85
1631018819875,-17.91
1631018819890,-12.83
1631018819906,-7.19
1631018819921,-1.52
1631018819937,3.7
1631018819953,8.18
1631018819968,11.84
1631018819984,14.72
1631018820000,16.9
1631018820015,18.43
1631018820031,19.34
1631018820046,19.61
1631018820062,19.24
1631018820078,18.3
1631018820093,16.9
1631018820109,15.21
1631018820125,13.4
1631018820140,11.66
1631018820156,10.14
1631018820171,8.93
1631018820187,8.06
1631018820203,7.48
1631018820218,7.03
1631018820234,6.52
1631018820250,5.77
1631018820265,4.69
1631018820281,3.23
1631018820296,1.44
1631018820312,-0.58
1631018820328,-2.76
1631018820343,-4.96
1631018820359,-7.06
1631018820375,-8.94
1631018820390,-10.54
1631018820406,-11.94
1631018820421,-13.38
1631018820437,-15.16
1631018820453,-17.55
1631018820468,-20.52
1631018820484,-23.71
1631018820500,-26.44
1631018820515,-27.95
1631018820531,-27.65
1631018820546,-25.37
1631018820562,-21.38
1631018820578,-16.26
1631018820593,-10.63
1631018820609,-4.99
1631018820625,0.37
1631018820640,5.32
1631018820656,9.72
1631018820671,13.44
1631018820687,16.26
1631018820703,18.09
1631018820718,18.95
1631018820734,19.08
1631018820750,18.75
1631018820765,18.23
1631018820781,17.63
1631018820796,16.93
1631018820812,16.04
1631018820828,14.91
1631018820843,13.6
1631018820859,12.25
1631018820875,11.05
1631018820890,10.1
1631018820906,9.37
1631018820921,8.74
1631018820937,8.03
1631018820953,7.06
1631018820968,5.75
1631018820984,4.13
1631018821000,2.28
1631018821015,0.36
1631018821031,-1.5
1631018821046,-3.2
1631018821062,-4.69
1631018821078,-5.95
1631018821093,-7.07
1631018821109,-8.16
1631018821125,-9.42
1631018821140,-11.01
1631018821156,-13.04
1631018821171,-15.43
1631018821187,-17.91
1631018821203,-20.05
1631018821218,-21.34
1631018821234,-21.4
1631018821250,-20.03
1631018821265,-17.25
1631018821281,-13.29
1631018821296,-8.5
1631018821312,-3.3
1631018821328,1.93
1631018821343,6.78
1631018821359,10.94
1631018821375,14.18
1631018821390,16.38
1631018821406,17.57
1631018821421,17.83
1631018821437,17.31
1631018821453,16.18
1631018821468,14.63
1631018821484,12.92
1631018821500,11.29
1631018821515,9.93
1631018821531,8.98
1631018821546,8.42
1631018821562,8.15
1631018821578,7.98
1631018821593,7.73
1631018821609,7.28
1631018821625,6.59
1631018821640,5.66
1631018821656,4.55
1631018821671,3.3
1631018821687,1.97
1631018821703,0.56
1631018821718,-0.9
1631018821734,-2.36
1631018821750,-3.77
1631018821765,-5.06
1631018821781,-6.19
1631018821796,-7.21
1631018821812,-8.23
1631018821828,-9.43
1631018821843,-10.93
1631018821859,-12.8
1631018821875,-14.94
1631018821890,-17.1
1631018821906,-18.89
1631018821921,-19.92
1631018821937,-19.81
1631018821953,-18.35
1631018821968,-15.55
1631018821984,-11.65
1631018822000,-7.02
1631018822015,-2.1
1631018822031,2.7
1631018822046,7.07
1631018822062,10.78
1631018822078,13.7
1631018822093,15.77
1631018822109,16.99
1631018822125,17.44
1631018822140,17.2
1631018822156,16.41
1631018822171,15.2
1631018822187,13.74
1631018822203,12.22
1631018822218,10.8
1631018822234,9.64
1631018822250,8.76
1631018822265,8.1
1631018822281,7.52
1631018822296,6.91
1631018822312,6.21
1631018822328,5.43
1631018822343,4.62
1631018822359,3.77
1631018822375,2.83
1631018822390,1.72
1631018822406,0.38
1631018822421,-1.17
1631018822437,-2.83
1631018822453,-4.48
1631018822468,-6.02
1631018822484,-7.36
1631018822500,-8.52
1631018822515,-9.57
1631018822531,-10.65
1631018822546,-11.95
1631018822562,-13.61
1631018822578,-15.67
1631018822593,-17.96
1631018822609,-20.07
1631018822625,-21.48
1631018822640,-21.69
1631018822656,-20.44
1631018822671,-17.75
1631018822687,-13.93
1631018822703,-9.43
1631018822718,-4.68
1631018822734,0.02
1631018822750,4.47
1631018822765,8.5
1631018822781,11.92
1631018822796,14.54
1631018822812,16.21
1631018822828,16.95
1631018822843,16.95
1631018822859,16.49
1631018822875,15.81
1631018822890,15.04
1631018822906,14.19
1631018822921,13.21
1631018822937,12.09
1631018822953,10.88
1631018822968,9.68
1631018822984,8.55
1631018823000,7.53
1631018823015,6.59
1631018823031,5.73
1631018823046,4.93
1631018823062,4.21
1631018823078,3.55
1631018823093,2.91
1631018823109,2.21
1631018823125,1.36
1631018823140,0.31
1631018823156,-0.95
1631018823171,-2.42
1631018823187,-4.08
1631018823203,-5.9
1631018823218,-7.79
1631018823234,-9.65
1631018823250,-11.42
1631018823265,-13.07
1631018823281,-14.68
1631018823296,-16.36
1631018823312,-18.2
1631018823328,-20.13
1631018823343,-21.92
1631018823359,-23.2
1631018823375,-23.57
1631018823390,-22.68
1631018823406,-20.39
1631018823421,-16.8
1631018823437,-12.2
1631018823453,-7.04
1631018823468,-1.79
1631018823484,3.11
1631018823500,7.37
1631018823515,10.82
1631018823531,13.44
1631018823546,15.29
1631018823562,16.47
1631018823578,17.05
1631018823593,17.13
1631018823609,16.77
1631018823625,16.03
1631018823640,15.03
1631018823656,13.92
1631018823671,12.82
1631018823687,11.8
1631018823703,10.85
1631018823718,9.91
1631018823734,8.94
1631018823750,7.94
1631018823765,7.01
1631018823781,6.25
1631018823796,5.71
1631018823812,5.35
1631018823828,5.04
1631018823843,4.62
1631018823859,3.96
1631018823875,2.99
1631018823890,1.75
1631018823906,0.28
1631018823921,-1.35
1631018823937,-3.08
1631018823953,-4.85
1631018823968,-6.54
1631018823984,-8.05
1631018824000,-9.33
1631018824015,-10.43
1631018824031,-11.52
1631018824046,-12.79
1631018824062,-14.4
1631018824078,-16.36
1631018824093,-18.53
1631018824109,-20.54
1631018824125,-21.96
1631018824140,-22.32
1631018824156,-21.27
1631018824171,-18.72
1631018824187,-14.81
1631018824203,-9.95
1631018824218,-4.68
1631018824234,0.45
1631018824250,4.98
1631018824265,8.66
1631018824281,11.41
1631018824296,13.31
1631018824312,14.49
1631018824328,15.13
1631018824343,15.39
1631018824359,15.4
1631018824375,15.18
1631018824390,14.72
1631018824406,13.95
1631018824421,12.84
1631018824437,11.45
1631018824453,9.92
1631018824468,8.5
1631018824484,7.4
1631018824500,6.72
1631018824515,6.41
1631018824531,6.3
1631018824546,6.16
1631018824562,5.8
1631018824578,5.18
1631018824593,4.32
1631018824609,3.31
1631018824625,2.18
1631018824640,0.9
1631018824656,-0.57
1631018824671,-2.23
1631018824687,-3.92
1631018824703,-5.41
1631018824718,-6.52
1631018824734,-7.23
1631018824750,-7.7
1631018824765,-8.22
1631018824781,-9.05
1631018824796,-10.31
1631018824812,-11.95
1631018824828,-13.79
1631018824843,-15.66
1631018824859,-17.35
1631018824875,-18.69
1631018824890,-19.44
1631018824906,-19.37
1631018824921,-18.25
1631018824937,-16.0
1631018824953,-12.68
1631018824968,-8.57
1631018824984,-4.03
1631018825000,0.54
1631018825015,4.75
1631018825031,8.31
1631018825046,11.03
1631018825062,12.85
1631018825078,13.79
1631018825093,14.01
1631018825109,13.7
1631018825125,13.03
1631018825140,12.15
1631018825156,11.15
1631018825171,10.09
1631018825187,9.03
1631018825203,8.07
1631018825218,7.3
1631018825234,6.77
1631018825250,6.45
1631018825265,6.21
1631018825281,5.9
1631018825296,5.4
1631018825312,4.68
1631018825328,3.84
1631018825343,2.98
1631018825359,2.19
1631018825375,1.45
1631018825390,0.66
1631018825406,-0.31
1631018825421,-1.5
1631018825437,-2.92
1631018825453,-4.45
1631018825468,-5.99
1631018825484,-7.43
1631018825500,-8.71
1631018825515,-9.9
1631018825531,-11.05
1631018825546,-12.28
1631018825562,-13.68
1631018825578,-15.33
1631018825593,-17.16
1631018825609,-19.0
1631018825625,-20.52
1631018825640,-21.34
1631018825656,-21.12
1631018825671,-19.71
1631018825687,-17.14
1631018825703,-13.61
1631018825718,-9.42
1631018825734,-4.9
1631018825750,-0.37
1631018825765,3.84
1631018825781,7.46
1631018825796,10.26
1631018825812,12.19
1631018825828,13.31
1631018825843,13.84
1631018825859,14.03
1631018825875,14.05
1631018825890,13.96
1631018825906,13.73
1631018825921,13.27
1631018825937,12.55
1631018825953,11.62
1631018825968,10.57
1631018825984,9.55
1631018826000,8.69
1631018826015,8.04
1631018826031,7.56
1631018826046,7.16
1631018826062,6.77
1631018826078,6.34
1631018826093,5.89
1631018826109,5.44
1631018826125,4.94
1631018826140,4.27
1631018826156,3.27
1631018826171,1.83
1631018826187,-0.01
1631018826203,-2.05
1631018826218,-4.06
1631018826234,-5.83
1631018826250,-7.29
1631018826265,-8.5
1631018826281,-9.62
1631018826296,-10.82
1631018826312,-12.24
1631018826328,-13.98
1631018826343,-16.03
1631018826359,-18.32
1631018826375,-20.58
1631018826390,-22.42
1631018826406,-23.39
1631018826421,-23.06
1631018826437,-21.21
1631018826453,-17.92
1631018826468,-13.54
1631018826484,-8.64
1631018826500,-3.79
1631018826515,0.57
1631018826531,4.23
1631018826546,7.21
1631018826562,9.67
1631018826578,11.76
1631018826593,13.5
1631018826609,14.78
1631018826625,15.44
1631018826640,15.35
1631018826656,14.53
1631018826671,13.15
1631018826687,11.49
1631018826703,9.84
1631018826718,8.42
1631018826734,7.38
1631018826750,6.73
1631018826765,6.43
1631018826781,6.37
1631018826796,6.41
1631018826812,6.38
1631018826828,6.14
1631018826843,5.58
1631018826859,4.68
1631018826875,3.5
1631018826890,2.14
1631018826906,0.72
1631018826921,-0.64
1631018826937,-1.93
1631018826953,-3.15
1631018826968,-4.35
1631018826984,-5.57
1631018827000,-6.83
1631018827015,-8.11
1631018827031,-9.39
1631018827046,-10.69
1631018827062,-12.08
1631018827078,-13.65
1631018827093,-15.5
1631018827109,-17.64
1631018827125,-19.93
1631018827140,-22.12
1631018827156,-23.85
1631018827171,-24.8
1631018827187,-24.73
1631018827203,-23.53
1631018827218,-21.21
1631018827234,-17.9
1631018827250,-13.78
1631018827265,-9.1
1631018827281,-4.16
1631018827296,0.69
1631018827312,5.14
1631018827328,8.93
1631018827343,11.94
1631018827359,14.18
1631018827375,15.7
1631018827390,16.56
1631018827406,16.76
1631018827421,16.31
1631018827437,15.31
1631018827453,13.94
1631018827468,12.46
1631018827484,11.11
1631018827500,10.03
1631018827515,9.27
1631018827531,8.79
1631018827546,8.54
1631018827562,8.48
1631018827578,8.49
1631018827593,8.39
1631018827609,7.97
1631018827625,7.05
1631018827640,5.62
1631018827656,3.82
1631018827671,1.89
1631018827687,0.06
1631018827703,-1.53
1631018827718,-2.9
1631018827734,-4.11
1631018827750,-5.21
1631018827765,-6.21
1631018827781,-7.18
1631018827796,-8.21
1631018827812,-9.53
1631018827828,-11.33
1631018827843,-13.65
1631018827859,-16.32
1631018827875,-18.91
1631018827890,-20.97
1631018827906,-22.13
1631018827921,-22.24
1631018827937,-21.32
1631018827953,-19.5
1631018827968,-16.87
1631018827984,-13.49
1631018828000,-9.43
1631018828015,-4.82
1631018828031,0.06
1631018828046,4.79
1631018828062,8.99
1631018828078,12.42
1631018828093,14.97
1631018828109,16.66
1631018828125,17.59
1631018828140,17.79
1631018828156,17.3
1631018828171,16.18
1631018828187,14.56
1631018828203,12.71
1631018828218,10.91
1631018828234,9.46
1631018828250,8.49
1631018828265,8.04
1631018828281,7.94
1631018828296,7.97
1631018828312,7.92
1631018828328,7.63
1631018828343,7.03
1631018828359,6.13
1631018828375,4.97
1631018828390,3.62
1631018828406,2.12
1631018828421,0.53
1631018828437,-1.09
1631018828453,-2.67
1631018828468,-4.12
1631018828484,-5.39
1631018828500,-6.49
1631018828515,-7.5
1631018828531,-8.57
1631018828546,-9.87
1631018828562,-11.54
1631018828578,-13.65
1631018828593,-16.11
1631018828609,-18.67
1631018828625,-20.92
1631018828640,-22.35
1631018828656,-22.48
1631018828671,-21.04
1631018828687,-18.02
1631018828703,-13.71
1631018828718,-8.6
1631018828734,-3.26
1631018828750,1.85
1631018828765,6.4
1631018828781,10.27
1631018828796,13.41
1631018828812,15.84
1631018828828,17.59
1631018828843,18.64
1631018828859,19.0
1631018828875,18.68
1631018828890,17.81
1631018828906,16.52
1631018828921,15.03
1631018828937,13.51
1631018828953,12.05
1631018828968,10.7
1631018828984,9.45
1631018829000,8.33
1631018829015,7.39
1631018829031,6.69
1631018829046,6.21
1631018829062,5.83
1631018829078,5.28
1631018829093,4.33
1631018829109,2.85
1631018829125,0.89
1631018829140,-1.3
1631018829156,-3.41
1631018829171,-5.23
1631018829187,-6.71
1631018829203,-7.97
1631018829218,-9.22
1631018829234,-10.65
1631018829250,-12.38
1631018829265,-14.47
1631018829281,-16.85
1631018829296,-19.37
1631018829312,-21.79
1631018829328,-23.73
1631018829343,-24.72
1631018829359,-24.33
1631018829375,-22.23
1631018829390,-18.43
1631018829406,-13.23
1631018829421,-7.19
1631018829437,-0.99
1631018829453,4.8
1631018829468,9.79
1631018829484,13.81
1631018829500,16.87
1631018829515,19.04
1631018829531,20.39
1631018829546,20.99
1631018829562,20.88
1631018829578,20.15
1631018829593,18.94
1631018829609,17.42
1631018829625,15.83
1631018829640,14.34
1631018829656,13.07
1631018829671,12.02
1631018829687,11.08
1631018829703,10.15
1631018829718,9.16
1631018829734,8.16
1631018829750,7.26
1631018829765,6.51
1631018829781,5.87
1631018829796,5.14
1631018829812,4.1
1631018829828,2.56
1631018829843,0.53
1631018829859,-1.83
1631018829875,-4.25
1631018829890,-6.47
1631018829906,-8.37
1631018829921,-9.98
1631018829937,-11.54
1631018829953,-13.3
1631018829968,-15.46
1631018829984,-18.06
1631018830000,-20.84
1631018830015,-23.4
1631018830031,-25.22
1631018830046,-25.89
1631018830062,-25.2
1631018830078,-23.16
1631018830093,-19.92
1631018830109,-15.72
1631018830125,-10.76
1631018830140,-5.25
1631018830156,0.52
1631018830171,6.18
1631018830187,11.32
1631018830203,15.53
1631018830218,18.54
1631018830234,20.3
1631018830250,20.9
1631018830265,20.61
1631018830281,19.71
1631018830296,18.51
1631018830312,17.31
1631018830328,16.32
1631018830343,15.62
1631018830359,15.17
1631018830375,14.83
1631018830390,14.39
1631018830406,13.69
1631018830421,12.71
1631018830437,11.53
1631018830453,10.28
1631018830468,9.06
1631018830484,7.88
1631018830500,6.72
1631018830515,5.54
1631018830531,4.34
1631018830546,3.12
1631018830562,1.91
1631018830578,0.64
1631018830593,-0.76
1631018830609,-2.38
1631018830625,-4.24
1631018830640,-6.27
1631018830656,-8.37
1631018830671,-10.44
1631018830687,-12.49
1631018830703,-14.55
1631018830718,-16.66
1631018830734,-18.75
1631018830750,-20.65
1631018830765,-22.06
1631018830781,-22.66
1631018830796,-22.19
1631018830812,-20.53
1631018830828,-17.69
1631018830843,-13.87
1631018830859,-9.38
1631018830875,-4.53
1631018830890,0.36
1631018830906,5.03
1631018830921,9.28
1631018830937,12.94
1631018830953,15.88
1631018830968,17.98
1631018830984,19.17
1631018831000,19.47
1631018831015,19.01
1631018831031,18.02
1631018831046,16.76
1631018831062,15.5
1631018831078,14.39
1631018831093,13.51
1631018831109,12.84
1631018831125,12.26
1631018831140,11.65
1631018831156,10.94
1631018831171,10.12
1631018831187,9.24
1631018831203,8.34
1631018831218,7.45
1631018831234,6.55
1631018831250,5.6
1631018831265,4.56
1631018831281,3.46
1631018831296,2.31
1631018831312,1.16
1631018831328,-0.02
1631018831343,-1.28
1631018831359,-2.69
1631018831375,-4.27
1631018831390,-6.0
1631018831406,-7.81
1631018831421,-9.64
1631018831437,-11.45
1631018831453,-13.29
1631018831468,-15.21
1631018831484,-17.17
1631018831500,-19.04
1631018831515,-20.51
1631018831531,-21.19
1631018831546,-20.69
1631018831562,-18.79
1631018831578,-15.51
1631018831593,-11.19
1631018831609,-6.31
1631018831625,-1.31
1631018831640,3.45
1631018831656,7.79
1631018831671,11.59
1631018831687,14.72
1631018831703,17.0
1631018831718,18.26
1631018831734,18.49
1631018831750,17.88
1631018831765,16.81
1631018831781,15.64
1631018831796,14.62
1631018831812,13.77
1631018831828,12.98
1631018831843,12.11
1631018831859,11.11
1631018831875,10.04
1631018831890,9.0
1631018831906,8.05
1631018831921,7.18
1631018831937,6.34
1631018831953,5.49
1631018831968,4.58
1631018831984,3.64
1631018832000,2.68
1631018832015,1.72
1631018832031,0.75
1631018832046,-0.23
1631018832062,-1.26
1631018832078,-2.38
1631018832093,-3.64
1631018832109,-5.07
1631018832125,-6.62
1631018832140,-8.24
1631018832156,-9.87
1631018832171,-11.55
1631018832187,-13.36
1631018832203,-15.39
1631018832218,-17.69
1631018832234,-20.1
1631018832250,-22.32
1631018832265,-23.94
1631018832281,-24.54
1631018832296,-23.85
1631018832312,-21.76
1631018832328,-18.38
1631018832343,-13.94
1631018832359,-8.79
1631018832375,-3.29
1631018832390,2.19
1631018832406,7.31
1631018832421,11.76
1631018832437,15.28
1631018832453,17.7
1631018832468,18.96
1631018832484,19.17
1631018832500,18.6
1631018832515,17.59
1631018832531,16.46
1631018832546,15.4
1631018832562,14.46
1631018832578,13.59
1631018832593,12.68
1631018832609,11.67
1631018832625,10.6
1631018832640,9.52
1631018832656,8.51
1631018832671,7.64
1631018832687,6.92
1631018832703,6.31
1631018832718,5.76
1631018832734,5.18
1631018832750,4.5
1631018832765,3.66
1631018832781,2.62
1631018832796,1.41
1631018832812,0.05
1631018832828,-1.46
1631018832843,-3.13
1631018832859,-4.99
1631018832875,-7.01
1631018832890,-9.06
1631018832906,-10.96
1631018832921,-12.57
1631018832937,-13.89
1631018832953,-15.11
1631018832968,-16.51
1631018832984,-18.3
1631018833000,-20.53
1631018833015,-22.96
1631018833031,-25.16
1631018833046,-26.56
1631018833062,-26.72
1631018833078,-25.35
1631018833093,-22.43
1631018833109,-18.16
1631018833125,-12.93
1631018833140,-7.2
1631018833156,-1.48
1631018833171,3.8
1631018833187,8.28
1631018833203,11.76
1631018833218,14.21
1631018833234,15.74
1631018833250,16.53
1631018833265,16.8
1631018833281,16.7
1631018833296,16.34
1631018833312,15.75
1631018833328,14.99
1631018833343,14.12
1631018833359,13.15
1631018833375,12.15
1631018833390,11.09
1631018833406,9.97
1631018833421,8.85
1631018833437,7.82
1631018833453,7.0
1631018833468,6.46
1631018833484,6.17
1631018833500,6.0
1631018833515,5.81
1631018833531,5.44
1631018833546,4.84
1631018833562,4.04
1631018833578,3.07
1631018833593,1.98
1631018833609,0.8
1631018833625,-0.45
1631018833640,-1.72
1631018833656,-3.0
1631018833671,-4.31
1631018833687,-5.7
1631018833703,-7.26
1631018833718,-9.04
1631018833734,-11.07
1631018833750,-13.32
1631018833765,-15.71
1631018833781,-18.09
1631018833796,-20.29
1631018833812,-22.11
1631018833828,-23.31
1631018833843,-23.63
1631018833859,-22.84
1631018833875,-20.78
1631018833890,-17.47
1631018833906,-13.12
1631018833921,-8.16
1631018833937,-3.13
1631018833953,1.47
1631018833968,5.31
1631018833984,8.27
1631018834000,10.38
1631018834015,11.77
1631018834031,12.54
1631018834046,12.76
1631018834062,12.5
1631018834078,11.91
1631018834093,11.16
1631018834109,10.46
1631018834125,9.89
1631018834140,9.45
1631018834156,9.0
1631018834171,8.46
1631018834187,7.81
1631018834203,7.11
1631018834218,6.47
1631018834234,5.93
1631018834250,5.47
1631018834265,4.99
1631018834281,4.4
1631018834296,3.66
1631018834312,2.81
1631018834328,1.9
1631018834343,0.99
1631018834359,0.07
1631018834375,-0.91
1631018834390,-2.01
1631018834406,-3.28
1631018834421,-4.67
1631018834437,-6.06
1631018834453,-7.34
1631018834468,-8.46
1631018834484,-9.5
1631018834500,-10.7
1631018834515,-12.3
1631018834531,-14.45
1631018834546,-17.05
1631018834562,-19.74
1631018834578,-21.97
1631018834593,-23.18
1631018834609,-22.96
1631018834625,-21.14
1631018834640,-17.84
1631018834656,-13.37
1631018834671,-8.22
1631018834687,-2.93
1631018834703,1.96
1631018834718,6.08
1631018834734,9.23
1631018834750,11.42
1631018834765,12.81
1631018834781,13.66
1631018834796,14.16
1631018834812,14.44
1631018834828,14.56
1631018834843,14.5
1631018834859,14.25
1631018834875,13.83
1631018834890,13.27
1631018834906,12.6
1631018834921,11.87
1631018834937,11.13
1631018834953,10.39
1631018834968,9.66
1631018834984,8.91
1631018835000,8.12
1631018835015,7.28
1631018835031,6.4
1631018835046,5.47
1631018835062,4.46
1631018835078,3.26
1631018835093,1.76
1631018835109,-0.09
1631018835125,-2.22
1631018835140,-4.49
1631018835156,-6.67
1631018835171,-8.61
1631018835187,-10.22
1631018835203,-11.57
1631018835218,-12.81
1631018835234,-14.1
1631018835250,-15.59
1631018835265,-17.31
1631018835281,-19.25
1631018835296,-21.26
1631018835312,-23.11
1631018835328,-24.47
1631018835343,-24.95
1631018835359,-24.24
1631018835375,-22.13
1631018835390,-18.65
1631018835406,-14.02
1631018835421,-8.64
1631018835437,-3.0
1631018835453,2.48
1631018835468,7.43
1631018835484,11.63
1631018835500,14.98
1631018835515,17.49
1631018835531,19.2
1631018835546,20.12
1631018835562,20.25
1631018835578,19.56
1631018835593,18.06
1631018835609,15.9
1631018835625,13.37
1631018835640,10.82
1631018835656,8.59
1631018835671,6.87
1631018835687,5.7
1631018835703,4.97
1631018835718,4.49
1631018835734,4.07
1631018835750,3.58
1631018835765,2.99
1631018835781,2.3
1631018835796,1.56
1631018835812,0.8
1631018835828,-0.02
1631018835843,-0.95
1631018835859,-2.06
1631018835875,-3.39
1631018835890,-4.89
1631018835906,-6.46
1631018835921,-8.01
1631018835937,-9.51
1631018835953,-11.03
1631018835968,-12.78
1631018835984,-14.95
1631018836000,-17.65
1631018836015,-20.8
1631018836031,-24.07
1631018836046,-26.96
1631018836062,-28.91
1631018836078,-29.48
1631018836093,-28.44
1631018836109,-25.86
1631018836125,-22.02
1631018836140,-17.3
1631018836156,-12.07
1631018836171,-6.63
1631018836187,-1.23
1631018836203,3.97
1631018836218,8.75
1631018836234,12.95
1631018836250,16.42
1631018836265,19.06
1631018836281,20.82
1631018836296,21.7
1631018836312,21.73
1631018836328,20.98
1631018836343,19.6
1631018836359,17.79
1631018836375,15.81
1631018836390,13.93
1631018836406,12.34
1631018836421,11.16
1631018836437,10.37
1631018836453,9.84
1631018836468,9.38
1631018836484,8.79
1631018836500,7.92
1631018836515,6.77
1631018836531,5.47
1631018836546,4.17
1631018836562,3.0
1631018836578,1.95
1631018836593,0.9
1631018836609,-0.34
1631018836625,-1.87
1631018836640,-3.62
1631018836656,-5.39
1631018836671,-6.99
1631018836687,-8.32
1631018836703,-9.51
1631018836718,-10.83
1631018836734,-12.55
1631018836750,-14.78
1631018836765,-17.37
1631018836781,-19.95
1631018836796,-22.04
1631018836812,-23.19
1631018836828,-23.09
1631018836843,-21.64
1631018836859,-18.89
1631018836875,-15.03
1631018836890,-10.36
1631018836906,-5.17
1631018836921,0.18
1631018836937,5.37
1631018836953,10.11
1631018836968,14.14
1631018836984,17.25
1631018837000,19.36
1631018837015,20.48
1631018837031,20.74
1631018837046,20.35
1631018837062,19.48
1631018837078,18.31
1631018837093,16.97
1631018837109,15.56
1631018837125,14.18
1631018837140,12.89
1631018837156,11.81
1631018837171,10.94
1631018837187,10.26
1631018837203,9.67
1631018837218,9.08
1631018837234,8.42
1631018837250,7.67
1631018837265,6.86
1631018837281,5.99
1631018837296,5.03
1631018837312,3.87
1631018837328,2.43
1631018837343,0.68
1631018837359,-1.29
1631018837375,-3.37
1631018837390,-5.43
1631018837406,-7.41
1631018837421,-9.38
1631018837437,-11.44
1631018837453,-13.69
1631018837468,-16.09
1631018837484,-18.52
1631018837500,-20.71
1631018837515,-22.35
1631018837531,-23.13
1631018837546,-22.79
1631018837562,-21.2
1631018837578,-18.38
1631018837593,-14.54
1631018837609,-9.99
1631018837625,-5.07
1631018837640,-0.1
1631018837656,4.7
1631018837671,9.13
1631018837687,12.96
1631018837703,15.95
1631018837718,17.91
1631018837734,18.76
1631018837750,18.61
1631018837765,17.74
1631018837781,16.48
1631018837796,15.14
1631018837812,13.88
1631018837828,12.75
1631018837843,11.75
1631018837859,10.86
1631018837875,10.07
1631018837890,9.36
1631018837906,8.71
1631018837921,8.09
1631018837937,7.45
1631018837953,6.76
1631018837968,5.96
1631018837984,4.95
1631018838000,3.63
1631018838015,1.95
1631018838031,-0.03
1631018838046,-2.1
1631018838062,-4.02
1631018838078,-5.57
1631018838093,-6.74
1631018838109,-7.67
1631018838125,-8.68
1631018838140,-10.08
1631018838156,-12.08
1631018838171,-14.71
1631018838187,-17.78
1631018838203,-20.91
1631018838218,-23.64
1631018838234,-25.45
1631018838250,-25.92
1631018838265,-24.77
1631018838281,-21.94
1631018838296,-17.62
1631018838312,-12.2
1631018838328,-6.15
1631018838343,-0.04
1631018838359,5.62
1631018838375,10.43
1631018838390,14.17
1631018838406,16.83
1631018838421,18.61
1631018838437,19.78
1631018838453,20.56
1631018838468,21.04
1631018838484,21.16
1631018838500,20.79
1631018838515,19.89
1631018838531,18.53
1631018838546,16.93
1631018838562,15.3
1631018838578,13.82
1631018838593,12.53
1631018838609,11.4
1631018838625,10.4
1631018838640,9.53
1631018838656,8.82
1631018838671,8.2
1631018838687,7.56
1631018838703,6.68
1631018838718,5.41
1631018838734,3.67
1631018838750,1.59
1631018838765,-0.59
1631018838781,-2.6
1631018838796,-4.26
1631018838812,-5.54
1631018838828,-6.59
1631018838843,-7.62
1631018838859,-8.88
1631018838875,-10.52
1631018838890,-12.61
1631018838906,-15.12
1631018838921,-17.95
1631018838937,-20.88
1631018838953,-23.59
1631018838968,-25.65
1631018838984,-26.59
1631018839000,-25.97
1631018839015,-23.57
1631018839031,-19.47
1631018839046,-14.08
1631018839062,-8.01
1631018839078,-1.94
1631018839093,3.6
1631018839109,8.31
1631018839125,12.13
1631018839140,15.18
1631018839156,17.59
1631018839171,19.44
1631018839187,20.7
1631018839203,21.32
1631018839218,21.23
1631018839234,20.49
1631018839250,19.22
1631018839265,17.64
1631018839281,16.03
1631018839296,14.6
1631018839312,13.5
1631018839328,12.77
1631018839343,12.36
1631018839359,12.1
1631018839375,11.85
1631018839390,11.46
1631018839406,10.9
1631018839421,10.15
1631018839437,9.28
1631018839453,8.3
1631018839468,7.17
1631018839484,5.82
1631018839500,4.19
1631018839515,2.31
1631018839531,0.26
1631018839546,-1.83
1631018839562,-3.87
1631018839578,-5.82
1631018839593,-7.71
1631018839609,-9.58
1631018839625,-11.43
1631018839640,-13.25
1631018839656,-15.08
1631018839671,-17.01
1631018839687,-19.15
1631018839703,-21.57
1631018839718,-24.15
1631018839734,-26.6
1631018839750,-28.49
1631018839765,-29.37
1631018839781,-28.93
1631018839796,-27.09
1631018839812,-23.99
1631018839828,-19.88
1631018839843,-15.06
1631018839859,-9.78
1631018839875,-4.3
1631018839890,1.15
1631018839906,6.25
1631018839921,10.68
1631018839937,14.21
1631018839953,16.71
1631018839968,18.26
1631018839984,19.03
1631018840000,19.22
1631018840015,18.96
1631018840031,18.3
1631018840046,17.29
1631018840062,16.03
1631018840078,14.69
1631018840093,13.49
1631018840109,12.55
1631018840125,11.89
1631018840140,11.37
1631018840156,10.84
1631018840171,10.17
1631018840187,9.34
1631018840203,8.39
1631018840218,7.39
1631018840234,6.38
1631018840250,5.37
1631018840265,4.35
1631018840281,3.31
1631018840296,2.24
1631018840312,1.09
1631018840328,-0.18
1631018840343,-1.62
1631018840359,-3.21
1631018840375,-4.89
1631018840390,-6.56
1631018840406,-8.12
1631018840421,-9.57
1631018840437,-10.98
1631018840453,-12.47
1631018840468,-14.15
1631018840484,-16.05
1631018840500,-18.09
1631018840515,-20.12
1631018840531,-21.88
1631018840546,-23.07
1631018840562,-23.41
1631018840578,-22.59
1631018840593,-20.48
1631018840609,-17.08
1631018840625,-12.63
1631018840640,-7.53
1631018840656,-2.25
1631018840671,2.79
1631018840687,7.3
1631018840703,11.12
1631018840718,14.17
1631018840734,16.37
1631018840750,17.64
1631018840765,17.94
1631018840781,17.35
1631018840796,16.14
1631018840812,14.65
1631018840828,13.21
1631018840843,12.02
1631018840859,11.13
1631018840875,10.44
1631018840890,9.84
1631018840906,9.22
1631018840921,8.57
1631018840937,7.85
1631018840953,7.08
1631018840968,6.22
1631018840984,5.27
1631018841000,4.24
1631018841015,3.18
1631018841031,2.18
1631018841046,1.25
1631018841062,0.32
1631018841078,-0.7
1631018841093,-1.93
1631018841109,-3.41
1631018841125,-5.08
1631018841140,-6.82
1631018841156,-8.5
1631018841171,-10.04
1631018841187,-11.47
1631018841203,-12.85
1631018841218,-14.32
1631018841234,-15.94
1631018841250,-17.76
1631018841265,-19.75
1631018841281,-21.79
1631018841296,-23.64
1631018841312,-25.01
1631018841328,-25.5
1631018841343,-24.8
1631018841359,-22.73
1631018841375,-19.34
1631018841390,-14.9
1631018841406,-9.88
1631018841421,-4.8
1631018841437,-0.15
1631018841453,3.66
1631018841468,6.37
1631018841484,7.89
1631018841500,8.27
1631018841515,7.7
1631018841531,6.46
1631018841546,4.83
1631018841562,3.04
1631018841578,1.26
1631018841593,-0.43
1631018841609,-2.03
1631018841625,-3.58
1631018841640,-5.18
1631018841656,-6.92
1631018841671,-8.84
1631018841687,-10.85
1631018841703,-12.75
1631018841718,-14.24
1631018841734,-15.03
1631018841750,-14.95
1631018841765,-13.98
1631018841781,-12.25
1631018841796,-9.98
1631018841812,-7.42
1631018841828,-4.75
1631018841843,-2.09
1631018841859,0.46
1631018841875,2.85
1631018841890,4.99
1631018841906,6.74
1631018841921,7.9
1631018841937,8.26
1631018841953,7.64
1631018841968,6.04
1631018841984,3.64
1631018842000,0.87
1631018842015,-1.75
1631018842031,-3.69
1631018842046,-4.57
1631018842062,-4.18
1631018842078,-2.54
1631018842093,0.15
1631018842109,3.56
1631018842125,7.3
1631018842140,11.03
1631018842156,14.47
1631018842171,17.45
1631018842187,19.87
1631018842203,21.71
1631018842218,22.89
1631018842234,23.37
1631018842250,23.13
1631018842265,22.22
1631018842281,20.8
1631018842296,19.1
1631018842312,17.34
1631018842328,15.69
1631018842343,14.22
1631018842359,12.91
1631018842375,11.7
1631018842390,10.53
1631018842406,9.37
1631018842421,8.24
1631018842437,7.2
1631018842453,6.23
1631018842468,5.29
1631018842484,4.25
1631018842500,2.98
1631018842515,1.43
1631018842531,-0.34
1631018842546,-2.18
1631018842562,-3.95
1631018842578,-5.54
1631018842593,-6.96
1631018842609,-8.28
1631018842625,-9.6
1631018842640,-11.02
1631018842656,-12.59
1631018842671,-14.41
1631018842687,-16.51
1631018842703,-18.88
1631018842718,-21.35
1631018842734,-23.56
1631018842750,-25.06
1631018842765,-25.37
1631018842781,-24.2
1631018842796,-21.48
1631018842812,-17.41
1631018842828,-12.38
1631018842843,-6.85
1631018842859,-1.32
1631018842875,3.78
1631018842890,8.08
1631018842906,11.41
1631018842921,13.75
1631018842937,15.24
1631018842953,16.1
1631018842968,16.52
1631018842984,16.61
1631018843000,16.37
1631018843015,15.77
1631018843031,14.81
1631018843046,13.57
1631018843062,12.19
1631018843078,10.85
1631018843093,9.67
1631018843109,8.73
1631018843125,7.98
1631018843140,7.33
1631018843156,6.7
1631018843171,6.0
1631018843187,5.21
1631018843203,4.34
1631018843218,3.38
1631018843234,2.34
1631018843250,1.15
1631018843265,-0.24
1631018843281,-1.81
1631018843296,-3.47
1631018843312,-5.08
1631018843328,-6.54
1631018843343,-7.83
1631018843359,-9.11
1631018843375,-10.58
1631018843390,-12.42
1631018843406,-14.65
1631018843421,-17.15
1631018843437,-19.61
1631018843453,-21.69
1631018843468,-23.0
1631018843484,-23.25
1631018843500,-22.19
1631018843515,-19.75
1631018843531,-16.06
1631018843546,-11.41
1631018843562,-6.23
1631018843578,-0.93
1631018843593,4.17
1631018843609,8.83
1631018843625,12.88
1631018843640,16.19
1631018843656,18.61
1631018843671,20.11
1631018843687,20.7
1631018843703,20.54
1631018843718,19.82
1631018843734,18.75
1631018843750,17.48
1631018843765,16.15
1631018843781,14.87
1631018843796,13.79
1631018843812,13.02
1631018843828,12.57
1631018843843,12.35
1631018843859,12.15
1631018843875,11.74
1631018843890,10.92
1631018843906,9.63
1631018843921,7.92
1631018843937,5.9
1631018843953,3.72
1631018843968,1.48
1631018843984,-0.73
1631018844000,-2.84
1631018844015,-4.82
1631018844031,-6.62
1631018844046,-8.28
1631018844062,-9.85
1631018844078,-11.41
1631018844093,-13.07
1631018844109,-14.9
1631018844125,-16.95
1631018844140,-19.22
1631018844156,-21.64
1631018844171,-24.05
1631018844187,-26.13
1631018844203,-27.49
1631018844218,-27.67
1631018844234,-26.36
1631018844250,-23.43
1631018844265,-19.05
1631018844281,-13.63
1631018844296,-7.71
1631018844312,-1.79
1631018844328,3.74
1631018844343,8.66
1631018844359,12.82
1631018844375,16.14
1631018844390,18.55
1631018844406,20.02
1631018844421,20.58
1631018844437,20.35
1631018844453,19.57
1631018844468,18.49
1631018844484,17.34
1631018844500,16.25
1631018844515,15.24
1631018844531,14.27
1631018844546,13.32
1631018844562,12.4
1631018844578,11.58
1631018844593,10.89
1631018844609,10.35
1631018844625,9.85
1631018844640,9.27
1631018844656,8.52
1631018844671,7.58
1631018844687,6.51
1631018844703,5.37
1631018844718,4.22
1631018844734,3.04
1631018844750,1.74
1631018844765,0.23
1631018844781,-1.52
1631018844796,-3.44
1631018844812,-5.43
1631018844828,-7.36
1631018844843,-9.14
1631018844859,-10.76
1631018844875,-12.27
1631018844890,-13.8
1631018844906,-15.49
1631018844921,-17.46
1631018844937,-19.75
1631018844953,-22.22
1631018844968,-24.57
1631018844984,-26.34
1631018845000,-27.01
1631018845015,-26.21
1631018845031,-23.78
1631018845046,-19.84
1631018845062,-14.75
1631018845078,-8.93
1631018845093,-2.86
1631018845109,3.07
1631018845125,8.53
1631018845140,13.25
1631018845156,17.01
1631018845171,19.73
1631018845187,21.43
1631018845203,22.24
1631018845218,22.35
1631018845234,21.95
1631018845250,21.16
1631018845265,20.09
1631018845281,18.82
1631018845296,17.45
1631018845312,16.11
1631018845328,14.91
1631018845343,13.94
1631018845359,13.2
1631018845375,12.64
1631018845390,12.15
1631018845406,11.6
1631018845421,10.86
1631018845437,9.87
1631018845453,8.63
1631018845468,7.23
1631018845484,5.76
1631018845500,4.33
1631018845515,2.95
1631018845531,1.59
1631018845546,0.17
1631018845562,-1.37
1631018845578,-2.98
1631018845593,-4.58
1631018845609,-6.05
1631018845625,-7.32
1631018845640,-8.41
1631018845656,-9.36
1631018845671,-10.26
1631018845687,-11.22
1631018845703,-12.35
1631018845718,-13.78
1631018845734,-15.66
1631018845750,-18.0
1631018845765,-20.69
1631018845781,-23.38
1631018845796,-25.58
1631018845812,-26.74
1631018845828,-26.42
1631018845843,-24.44
1631018845859,-20.87
1631018845875,-16.08
1631018845890,-10.53
1631018845906,-4.73
1631018845921,0.89
1631018845937,5.99
1631018845953,10.32
1631018845968,13.76
1631018845984,16.29
1631018846000,17.98
1631018846015,18.97
1631018846031,19.43
1631018846046,19.48
1631018846062,19.18
1631018846078,18.51
1631018846093,17.47
1631018846109,16.09
1631018846125,14.46
1631018846140,12.77
1631018846156,11.2
1631018846171,9.91
1631018846187,9.0
1631018846203,8.51
1631018846218,8.39
1631018846234,8.52
1631018846250,8.69
1631018846265,8.66
1631018846281,8.23
1631018846296,7.29
1631018846312,5.89
1631018846328,4.21
1631018846343,2.46
1631018846359,0.85
1631018846375,-0.53
1631018846390,-1.67
1631018846406,-2.68
1631018846421,-3.68
1631018846437,-4.77
1631018846453,-6.02
1631018846468,-7.47
1631018846484,-9.1
1631018846500,-10.86
1631018846515,-12.73
1631018846531,-14.67
1631018846546,-16.65
1631018846562,-18.61
1631018846578,-20.39
1631018846593,-21.79
1631018846609,-22.52
1631018846625,-22.3
1631018846640,-20.92
1631018846656,-18.32
1631018846671,-14.58
1631018846687,-9.93
1631018846703,-4.72
1631018846718,0.65
1631018846734,5.72
1631018846750,10.09
1631018846765,13.47
1631018846781,15.71
1631018846796,16.83
1631018846812,17.03
1631018846828,16.59
1631018846843,15.79
1631018846859,14.85
1631018846875,13.86
1631018846890,12.84
1631018846906,11.76
1631018846921,10.64
1631018846937,9.49
1631018846953,8.41
1631018846968,7.44
1631018846984,6.61
1631018847000,5.93
1631018847015,5.34
1631018847031,4.82
1631018847046,4.37
1631018847062,3.98
1631018847078,3.62
1631018847093,3.19
1631018847109,2.55
1631018847125,1.55
1631018847140,0.1
1631018847156,-1.77
1631018847171,-3.89
1631018847187,-6.01
1631018847203,-7.92
1631018847218,-9.48
1631018847234,-10.75
1631018847250,-11.87
1631018847265,-13.09
1631018847281,-14.59
1631018847296,-16.46
1631018847312,-18.65
1631018847328,-20.94
1631018847343,-23.03
1631018847359,-24.52
1631018847375,-25.02
1631018847390,-24.23
1631018847406,-22.0
1631018847421,-18.4
1631018847437,-13.75
1631018847453,-8.52
1631018847468,-3.2
1631018847484,1.79
1631018847500,6.18
1631018847515,9.86
1631018847531,12.85
1631018847546,15.13
1631018847562,16.7
1631018847578,17.51
1631018847593,17.57
1631018847609,16.97
1631018847625,15.91
1631018847640,14.61
1631018847656,13.27
1631018847671,11.99
1631018847687,10.8
1631018847703,9.71
1631018847718,8.73
1631018847734,7.89
1631018847750,7.16
1631018847765,6.5
1631018847781,5.8
1631018847796,5.0
1631018847812,4.07
1631018847828,3.06
1631018847843,2.02
1631018847859,0.96
1631018847875,-0.19
1631018847890,-1.53
1631018847906,-3.11
1631018847921,-4.87
1631018847937,-6.71
1631018847953,-8.47
1631018847968,-10.08
1631018847984,-11.54
1631018848000,-12.96
