timestamp,bvp
1630067051828,-7.89
1630067051843,-19.48
1630067051859,-31.07
1630067051875,-40.81
1630067051890,-47.1
1630067051906,-49.05
1630067051921,-46.95
1630067051937,-42.51
1630067051953,-38.6
1630067051968,-38.49
1630067051984,-44.78
1630067052000,-58.29
1630067052015,-77.53
1630067052031,-99.12
1630067052046,-118.88
1630067052062,-133.29
1630067052078,-140.59
1630067052093,-141.23
1630067052109,-137.3
1630067052125,-131.58
1630067052140,-126.53
1630067052156,-123.59
1630067052171,-123.17
1630067052187,-125.04
1630067052203,-128.81
1630067052218,-134.37
1630067052234,-141.9
1630067052250,-151.42
1630067052265,-162.32
1630067052281,-173.02
1630067052296,-181.32
1630067052312,-184.93
1630067052328,-182.22
1630067052343,-172.61
1630067052359,-156.5
1630067052375,-134.82
1630067052390,-108.52
1630067052406,-78.5
1630067052421,-45.53
1630067052437,-10.63
1630067052453,24.94
1630067052468,59.97
1630067052484,93.68
1630067052500,126.19
1630067052515,158.33
1630067052531,191.09
1630067052546,224.73
1630067052562,258.2
1630067052578,288.94
1630067052593,313.54
1630067052609,328.92
1630067052625,333.63
1630067052640,328.55
1630067052656,316.83
1630067052671,302.73
1630067052687,289.62
1630067052703,278.63
1630067052718,268.26
1630067052734,255.54
1630067052750,238.27
1630067052765,216.73
1630067052781,193.97
1630067052796,174.21
1630067052812,160.43
1630067052828,152.68
1630067052843,148.1
1630067052859,142.69
1630067052875,133.46
1630067052890,119.67
1630067052906,102.31
1630067052921,82.66
1630067052937,61.18
1630067052953,37.56
1630067052968,11.75
1630067052984,-15.1
1630067053000,-40.7
1630067053015,-62.92
1630067053031,-81.22
1630067053046,-97.1
1630067053062,-113.22
1630067053078,-131.75
1630067053093,-153.01
1630067053109,-175.11
1630067053125,-194.77
1630067053140,-208.64
1630067053156,-214.4
1630067053171,-211.22
1630067053187,-199.93
1630067053203,-182.63
1630067053218,-162.17
1630067053234,-141.46
1630067053250,-122.6
1630067053265,-106.27
1630067053281,-91.65
1630067053296,-77.02
1630067053312,-60.72
1630067053328,-42.09
1630067053343,-21.87
1630067053359,-1.84
1630067053375,15.89
1630067053390,29.72
1630067053406,38.98
1630067053421,43.86
1630067053437,45.12
1630067053453,43.75
1630067053468,40.77
1630067053484,37.35
1630067053500,34.64
1630067053515,33.58
1630067053531,34.44
1630067053546,36.64
1630067053562,38.83
1630067053578,39.4
1630067053593,37.16
1630067053609,31.78
1630067053625,23.71
1630067053640,13.72
1630067053656,2.29
1630067053671,-10.68
1630067053687,-25.65
1630067053703,-42.85
1630067053718,-61.71
1630067053734,-80.6
1630067053750,-97.2
1630067053765,-109.11
1630067053781,-114.54
1630067053796,-112.89
1630067053812,-104.93
1630067053828,-92.56
1630067053843,-78.33
1630067053859,-64.77
1630067053875,-53.81
1630067053890,-46.44
1630067053906,-42.64
1630067053921,-41.59
1630067053937,-42.15
1630067053953,-43.16
1630067053968,-43.8
1630067053984,-43.67
1630067054000,-42.78
1630067054015,-41.3
1630067054031,-39.48
1630067054046,-37.53
1630067054062,-35.58
1630067054078,-33.73
1630067054093,-32.02
1630067054109,-30.41
1630067054125,-28.68
1630067054140,-26.5
1630067054156,-23.45
1630067054171,-19.27
1630067054187,-14.0
1630067054203,-8.04
1630067054218,-2.15
1630067054234,2.83
1630067054250,6.25
1630067054265,7.86
1630067054281,7.94
1630067054296,7.11
1630067054312,6.12
1630067054328,5.53
1630067054343,5.57
1630067054359,6.13
1630067054375,6.85
1630067054390,7.26
1630067054406,7.09
1630067054421,6.24
1630067054437,4.87
1630067054453,3.27
1630067054468,1.69
1630067054484,0.23
1630067054500,-1.21
1630067054515,-2.92
1630067054531,-5.19
1630067054546,-8.2
1630067054562,-11.87
1630067054578,-15.82
1630067054593,-19.49
1630067054609,-22.32
1630067054625,-23.84
1630067054640,-23.81
1630067054656,-22.12
1630067054671,-18.81
1630067054687,-14.01
1630067054703,-8.05
1630067054718,-1.48
1630067054734,4.81
1630067054750,9.79
1630067054765,12.49
1630067054781,12.47
1630067054796,9.98
1630067054812,6.0
1630067054828,1.84
1630067054843,-1.36
1630067054859,-3.05
1630067054875,-3.4
1630067054890,-3.01
1630067054906,-2.53
1630067054921,-2.29
1630067054937,-2.19
1630067054953,-1.92
1630067054968,-1.18
1630067054984,-0.01
1630067055000,1.34
1630067055015,2.48
1630067055031,3.17
1630067055046,3.41
1630067055062,3.37
1630067055078,3.31
1630067055093,3.38
1630067055109,3.63
1630067055125,3.94
1630067055140,4.22
1630067055156,4.35
1630067055171,4.28
1630067055187,4.06
1630067055203,3.78
1630067055218,3.61
1630067055234,3.69
1630067055250,4.15
1630067055265,5.01
1630067055281,6.21
1630067055296,7.57
1630067055312,8.87
1630067055328,9.86
1630067055343,10.31
1630067055359,10.04
1630067055375,8.97
1630067055390,7.2
1630067055406,5.04
1630067055421,2.95
1630067055437,1.44
1630067055453,0.93
1630067055468,1.63
1630067055484,3.41
1630067055500,5.9
1630067055515,8.59
1630067055531,11.04
1630067055546,12.95
1630067055562,14.23
1630067055578,14.99
1630067055593,15.41
1630067055609,15.73
1630067055625,16.11
1630067055640,16.66
1630067055656,17.37
1630067055671,18.19
1630067055687,18.99
1630067055703,19.7
1630067055718,20.31
1630067055734,20.91
1630067055750,21.7
1630067055765,22.81
1630067055781,24.29
1630067055796,26.01
1630067055812,27.76
1630067055828,29.36
1630067055843,30.83
1630067055859,32.35
1630067055875,34.18
1630067055890,36.49
1630067055906,39.22
1630067055921,42.1
1630067055937,44.75
1630067055953,46.93
1630067055968,48.58
1630067055984,49.91
1630067056000,51.29
1630067056015,53.0
1630067056031,55.21
1630067056046,57.81
1630067056062,60.58
1630067056078,63.31
1630067056093,65.93
1630067056109,68.52
1630067056125,71.29
1630067056140,74.4
1630067056156,77.96
1630067056171,82.15
1630067056187,87.41
1630067056203,94.42
1630067056218,103.73
1630067056234,115.19
1630067056250,127.45
1630067056265,138.09
1630067056281,144.5
1630067056296,145.04
1630067056312,139.93
1630067056328,131.15
1630067056343,121.45
1630067056359,112.97
1630067056375,106.35
1630067056390,100.6
1630067056406,93.79
1630067056421,83.91
1630067056437,69.35
1630067056453,48.87
1630067056468,21.42
1630067056484,-13.76
1630067056500,-56.35
1630067056515,-104.13
1630067056531,-152.63
1630067056546,-195.97
1630067056562,-228.6
1630067056578,-247.2
1630067056593,-251.71
1630067056609,-245.0
1630067056625,-231.53
1630067056640,-215.44
1630067056656,-199.32
1630067056671,-183.99
1630067056687,-168.95
1630067056703,-153.34
1630067056718,-136.71
1630067056734,-119.4
1630067056750,-102.5
1630067056765,-87.56
1630067056781,-76.19
1630067056796,-69.54
1630067056812,-67.86
1630067056828,-70.24
1630067056843,-74.8
1630067056859,-79.33
1630067056875,-82.12
1630067056890,-82.41
1630067056906,-80.46
1630067056921,-76.95
1630067056937,-72.44
1630067056953,-67.11
1630067056968,-60.89
1630067056984,-53.79
1630067057000,-46.21
1630067057015,-38.82
1630067057031,-32.19
1630067057046,-26.36
1630067057062,-20.78
1630067057078,-14.57
1630067057093,-7.13
1630067057109,1.44
1630067057125,10.22
1630067057140,17.98
1630067057156,23.81
1630067057171,27.69
1630067057187,30.51
1630067057203,33.54
1630067057218,37.68
1630067057234,42.86
1630067057250,47.95
1630067057265,51.32
1630067057281,51.66
1630067057296,48.73
1630067057312,43.47
1630067057328,37.53
1630067057343,32.46
1630067057359,28.95
1630067057375,26.69
1630067057390,24.7
1630067057406,22.09
1630067057421,18.65
1630067057437,14.91
1630067057453,11.85
1630067057468,10.18
1630067057484,9.89
1630067057500,10.08
1630067057515,9.48
1630067057531,7.0
1630067057546,2.29
1630067057562,-4.08
1630067057578,-10.91
1630067057593,-16.82
1630067057609,-20.8
1630067057625,-22.47
1630067057640,-22.06
1630067057656,-20.21
1630067057671,-17.62
1630067057687,-14.68
1630067057703,-11.43
1630067057718,-7.57
1630067057734,-2.84
1630067057750,2.72
1630067057765,8.56
1630067057781,13.84
1630067057796,17.77
1630067057812,20.06
1630067057828,21.08
1630067057843,21.71
1630067057859,22.93
1630067057875,25.48
1630067057890,29.55
1630067057906,34.79
1630067057921,40.33
1630067057937,44.86
1630067057953,46.72
1630067057968,44.14
1630067057984,35.78
1630067058000,21.4
1630067058015,2.34
1630067058031,-18.55
1630067058046,-37.65
1630067058062,-51.63
1630067058078,-58.48
1630067058093,-57.97
1630067058109,-51.34
1630067058125,-40.58
1630067058140,-27.56
1630067058156,-13.55
1630067058171,0.81
1630067058187,15.12
1630067058203,28.68
1630067058218,40.17
1630067058234,47.56
1630067058250,48.48
1630067058265,41.05
1630067058281,24.9
1630067058296,2.04
1630067058312,-23.01
1630067058328,-44.43
1630067058343,-56.89
1630067058359,-57.61
1630067058375,-47.2
1630067058390,-29.4
1630067058406,-9.33
1630067058421,8.39
1630067058437,21.0
1630067058453,27.9
1630067058468,29.85
1630067058484,28.07
1630067058500,23.53
1630067058515,17.0
1630067058531,9.33
1630067058546,1.74
1630067058562,-4.22
1630067058578,-7.17
1630067058593,-6.41
1630067058609,-2.31
1630067058625,3.7
1630067058640,9.57
1630067058656,13.29
1630067058671,13.69
1630067058687,10.95
1630067058703,6.39
1630067058718,1.91
1630067058734,-0.87
1630067058750,-1.29
1630067058765,0.12
1630067058781,2.01
1630067058796,2.92
1630067058812,1.96
1630067058828,-0.77
1630067058843,-4.21
1630067058859,-6.9
1630067058875,-7.47
1630067058890,-5.28
1630067058906,-0.52
1630067058921,5.81
1630067058937,12.37
1630067058953,17.89
1630067058968,21.49
1630067058984,22.82
1630067059000,22.0
1630067059015,19.41
1630067059031,15.58
1630067059046,11.03
1630067059062,6.13
1630067059078,1.06
1630067059093,-4.24
1630067059109,-9.88
1630067059125,-15.92
1630067059140,-22.17
1630067059156,-28.09
1630067059171,-32.89
1630067059187,-35.67
1630067059203,-35.59
1630067059218,-31.97
1630067059234,-24.48
1630067059250,-13.36
1630067059265,0.3
1630067059281,14.55
1630067059296,26.84
1630067059312,34.69
1630067059328,36.48
1630067059343,31.98
1630067059359,22.39
1630067059375,9.87
1630067059390,-3.18
1630067059406,-14.81
1630067059421,-23.82
1630067059437,-29.72
1630067059453,-32.51
1630067059468,-32.5
1630067059484,-30.25
1630067059500,-26.55
1630067059515,-22.28
1630067059531,-18.17
1630067059546,-14.57
1630067059562,-11.36
1630067059578,-8.05
1630067059593,-4.14
1630067059609,0.64
1630067059625,6.16
1630067059640,11.92
1630067059656,17.27
1630067059671,21.6
1630067059687,24.47
1630067059703,25.67
1630067059718,25.19
1630067059734,23.15
1630067059750,19.86
1630067059765,15.76
1630067059781,11.46
1630067059796,7.64
1630067059812,4.9
1630067059828,3.6
1630067059843,3.81
1630067059859,5.27
1630067059875,7.5
1630067059890,9.95
1630067059906,12.16
1630067059921,13.83
1630067059937,14.83
1630067059953,15.14
1630067059968,14.79
1630067059984,13.79
1630067060000,12.13
1630067060015,9.88
1630067060031,7.22
1630067060046,4.43
1630067060062,1.85
1630067060078,-0.17
1630067060093,-1.45
1630067060109,-1.94
1630067060125,-1.8
1630067060140,-1.22
1630067060156,-0.42
1630067060171,0.49
1630067060187,1.44
1630067060203,2.44
1630067060218,3.42
1630067060234,4.26
1630067060250,4.73
1630067060265,4.62
1630067060281,3.78
1630067060296,2.24
1630067060312,0.24
1630067060328,-1.86
1630067060343,-3.63
1630067060359,-4.77
1630067060375,-5.18
1630067060390,-4.97
1630067060406,-4.43
1630067060421,-3.88
1630067060437,-3.6
1630067060453,-3.69
1630067060468,-4.19
1630067060484,-5.02
1630067060500,-6.08
1630067060515,-7.32
1630067060531,-8.71
1630067060546,-10.23
1630067060562,-11.91
1630067060578,-13.74
1630067060593,-15.65
1630067060609,-17.52
1630067060625,-19.16
1630067060640,-20.29
1630067060656,-20.65
1630067060671,-20.05
1630067060687,-18.39
1630067060703,-15.72
1630067060718,-12.12
1630067060734,-7.74
1630067060750,-2.8
1630067060765,2.36
1630067060781,7.23
1630067060796,11.24
1630067060812,13.88
1630067060828,15.0
1630067060843,14.83
1630067060859,13.92
1630067060875,12.92
1630067060890,12.24
1630067060906,11.99
1630067060921,11.99
1630067060937,11.94
1630067060953,11.7
1630067060968,11.26
1630067060984,10.73
1630067061000,10.22
1630067061015,9.71
1630067061031,9.14
1630067061046,8.44
1630067061062,7.62
1630067061078,6.75
1630067061093,5.91
1630067061109,5.11
1630067061125,4.22
1630067061140,3.12
1630067061156,1.69
1630067061171,-0.02
1630067061187,-1.88
1630067061203,-3.7
1630067061218,-5.39
1630067061234,-6.89
1630067061250,-8.24
1630067061265,-9.45
1630067061281,-10.48
1630067061296,-11.26
1630067061312,-11.74
1630067061328,-11.9
1630067061343,-11.84
1630067061359,-11.68
1630067061375,-11.53
1630067061390,-11.5
1630067061406,-11.67
1630067061421,-12.13
1630067061437,-12.92
1630067061453,-13.97
1630067061468,-15.0
1630067061484,-15.64
1630067061500,-15.51
1630067061515,-14.45
1630067061531,-12.53
1630067061546,-10.08
1630067061562,-7.47
1630067061578,-5.02
1630067061593,-2.9
1630067061609,-1.18
1630067061625,0.11
1630067061640,0.92
1630067061656,1.2
1630067061671,0.98
1630067061687,0.37
1630067061703,-0.45
1630067061718,-1.29
1630067061734,-2.02
1630067061750,-2.58
1630067061765,-2.93
1630067061781,-3.02
1630067061796,-2.81
1630067061812,-2.26
1630067061828,-1.4
1630067061843,-0.31
1630067061859,0.85
1630067061875,1.94
1630067061890,2.84
1630067061906,3.49
1630067061921,3.89
1630067061937,4.09
1630067061953,4.13
1630067061968,4.07
1630067061984,3.89
1630067062000,3.53
1630067062015,2.92
1630067062031,2.07
1630067062046,1.07
1630067062062,0.08
1630067062078,-0.75
1630067062093,-1.32
1630067062109,-1.63
1630067062125,-1.77
1630067062140,-1.77
1630067062156,-1.7
1630067062171,-1.57
1630067062187,-1.36
1630067062203,-1.16
1630067062218,-1.09
1630067062234,-1.26
1630067062250,-1.76
1630067062265,-2.51
1630067062281,-3.31
1630067062296,-3.92
1630067062312,-4.13
1630067062328,-3.87
1630067062343,-3.26
1630067062359,-2.51
1630067062375,-1.86
1630067062390,-1.45
1630067062406,-1.3
1630067062421,-1.32
1630067062437,-1.46
1630067062453,-1.7
1630067062468,-2.11
1630067062484,-2.69
1630067062500,-3.33
1630067062515,-3.77
1630067062531,-3.76
1630067062546,-3.15
1630067062562,-2.04
1630067062578,-0.72
1630067062593,0.47
1630067062609,1.4
1630067062625,2.17
1630067062640,3.06
1630067062656,4.41
1630067062671,6.3
1630067062687,8.54
1630067062703,10.76
1630067062718,12.54
1630067062734,13.64
1630067062750,14.05
1630067062765,13.93
1630067062781,13.43
1630067062796,12.62
1630067062812,11.44
1630067062828,9.8
1630067062843,7.71
1630067062859,5.34
1630067062875,2.99
1630067062890,1.03
1630067062906,-0.33
1630067062921,-1.09
1630067062937,-1.52
1630067062953,-1.97
1630067062968,-2.79
1630067062984,-4.08
1630067063000,-5.68
1630067063015,-7.22
1630067063031,-8.24
1630067063046,-8.39
1630067063062,-7.53
1630067063078,-5.72
1630067063093,-3.2
1630067063109,-0.28
1630067063125,2.79
1630067063140,5.93
1630067063156,9.32
1630067063171,13.4
1630067063187,18.72
1630067063203,25.68
1630067063218,34.29
1630067063234,43.99
1630067063250,53.63
1630067063265,61.62
1630067063281,66.24
1630067063296,66.06
1630067063312,60.48
1630067063328,50.02
1630067063343,36.35
1630067063359,21.87
1630067063375,8.95
1630067063390,-0.82
1630067063406,-7.14
1630067063421,-10.84
1630067063437,-13.36
1630067063453,-15.88
1630067063468,-18.86
1630067063484,-21.92
1630067063500,-24.3
1630067063515,-25.31
1630067063531,-24.62
1630067063546,-22.33
1630067063562,-18.76
1630067063578,-14.33
1630067063593,-9.55
1630067063609,-5.1
1630067063625,-1.76
1630067063640,-0.3
1630067063656,-1.18
1630067063671,-4.28
1630067063687,-8.97
1630067063703,-14.18
1630067063718,-18.87
1630067063734,-22.23
1630067063750,-23.89
1630067063765,-23.9
1630067063781,-22.55
1630067063796,-20.3
1630067063812,-17.58
1630067063828,-14.8
1630067063843,-12.23
1630067063859,-10.06
1630067063875,-8.28
1630067063890,-6.76
1630067063906,-5.31
1630067063921,-3.77
1630067063937,-2.17
1630067063953,-0.65
1630067063968,0.53
1630067063984,1.16
1630067064000,1.07
1630067064015,0.18
1630067064031,-1.48
1630067064046,-3.83
1630067064062,-6.7
1630067064078,-9.91
1630067064093,-13.23
1630067064109,-16.46
1630067064125,-19.34
1630067064140,-21.69
1630067064156,-23.27
1630067064171,-23.87
1630067064187,-23.29
1630067064203,-21.4
1630067064218,-18.29
1630067064234,-14.23
1630067064250,-9.74
1630067064265,-5.43
1630067064281,-1.84
1630067064296,0.7
1630067064312,2.09
1630067064328,2.45
1630067064343,2.01
1630067064359,0.97
1630067064375,-0.45
1630067064390,-2.01
1630067064406,-3.42
1630067064421,-4.38
1630067064437,-4.71
1630067064453,-4.46
1630067064468,-3.95
1630067064484,-3.56
1630067064500,-3.5
1630067064515,-3.67
1630067064531,-3.66
1630067064546,-3.06
1630067064562,-1.75
1630067064578,-0.12
1630067064593,1.1
1630067064609,1.13
1630067064625,-0.38
1630067064640,-3.21
1630067064656,-6.71
1630067064671,-10.09
1630067064687,-12.75
1630067064703,-14.45
1630067064718,-15.26
1630067064734,-15.46
1630067064750,-15.37
1630067064765,-15.28
1630067064781,-15.45
1630067064796,-16.08
1630067064812,-17.14
1630067064828,-18.3
1630067064843,-18.85
1630067064859,-17.88
1630067064875,-14.64
1630067064890,-8.96
1630067064906,-1.44
1630067064921,6.66
1630067064937,13.81
1630067064953,18.82
1630067064968,21.28
1630067064984,21.67
1630067065000,21.02
1630067065015,20.49
1630067065031,20.84
1630067065046,22.28
1630067065062,24.45
1630067065078,26.8
1630067065093,28.78
1630067065109,30.0
1630067065125,30.31
1630067065140,29.71
1630067065156,28.27
1630067065171,26.2
1630067065187,23.86
1630067065203,21.67
1630067065218,20.11
1630067065234,19.54
1630067065250,20.08
1630067065265,21.57
1630067065281,23.66
1630067065296,25.93
1630067065312,27.93
1630067065328,29.37
1630067065343,30.04
1630067065359,29.89
1630067065375,28.99
1630067065390,27.54
1630067065406,25.79
1630067065421,23.97
1630067065437,22.22
1630067065453,20.46
1630067065468,18.56
1630067065484,16.34
1630067065500,13.79
1630067065515,11.03
1630067065531,8.32
1630067065546,5.91
1630067065562,3.93
1630067065578,2.39
1630067065593,1.17
1630067065609,0.11
1630067065625,-0.98
1630067065640,-2.23
1630067065656,-3.69
1630067065671,-5.35
1630067065687,-7.08
1630067065703,-8.68
1630067065718,-10.01
1630067065734,-10.99
1630067065750,-11.71
1630067065765,-12.38
1630067065781,-13.19
1630067065796,-14.25
1630067065812,-15.46
1630067065828,-16.6
1630067065843,-17.38
1630067065859,-17.56
1630067065875,-17.06
1630067065890,-15.95
1630067065906,-14.36
1630067065921,-12.43
1630067065937,-10.25
1630067065953,-7.88
1630067065968,-5.42
1630067065984,-3.06
1630067066000,-1.08
1630067066015,0.25
1630067066031,0.77
1630067066046,0.51
1630067066062,-0.24
1630067066078,-1.09
1630067066093,-1.67
1630067066109,-1.72
1630067066125,-1.19
1630067066140,-0.18
1630067066156,1.13
1630067066171,2.59
1630067066187,4.02
1630067066203,5.28
1630067066218,6.24
1630067066234,6.88
1630067066250,7.27
1630067066265,7.61
1630067066281,8.1
1630067066296,8.87
1630067066312,9.79
1630067066328,10.48
1630067066343,10.4
1630067066359,9.16
1630067066375,6.63
1630067066390,3.1
1630067066406,-0.89
1630067066421,-4.76
1630067066437,-8.07
1630067066453,-10.7
1630067066468,-12.7
1630067066484,-14.23
1630067066500,-15.34
1630067066515,-16.02
1630067066531,-16.28
1630067066546,-16.2
1630067066562,-16.04
1630067066578,-16.06
1630067066593,-16.46
1630067066609,-17.18
1630067066625,-17.89
1630067066640,-18.14
1630067066656,-17.51
1630067066671,-15.81
1630067066687,-13.1
1630067066703,-9.68
1630067066718,-5.97
1630067066734,-2.34
1630067066750,0.94
1630067066765,3.73
1630067066781,5.99
1630067066796,7.71
1630067066812,8.87
1630067066828,9.44
1630067066843,9.38
1630067066859,8.74
1630067066875,7.67
1630067066890,6.44
1630067066906,5.39
1630067066921,4.8
1630067066937,4.79
1630067066953,5.28
1630067066968,6.04
1630067066984,6.83
1630067067000,7.47
1630067067015,7.95
1630067067031,8.32
1630067067046,8.68
1630067067062,9.02
1630067067078,9.3
1630067067093,9.44
1630067067109,9.37
1630067067125,9.07
1630067067140,8.55
1630067067156,7.86
1630067067171,7.03
1630067067187,6.01
1630067067203,4.79
1630067067218,3.35
1630067067234,1.74
1630067067250,0.08
1630067067265,-1.5
1630067067281,-2.94
1630067067296,-4.27
1630067067312,-5.62
1630067067328,-7.18
1630067067343,-9.03
1630067067359,-11.02
1630067067375,-12.78
1630067067390,-13.88
1630067067406,-13.94
1630067067421,-12.87
1630067067437,-10.86
1630067067453,-8.29
1630067067468,-5.57
1630067067484,-2.96
1630067067500,-0.58
1630067067515,1.58
1630067067531,3.58
1630067067546,5.42
1630067067562,7.09
1630067067578,8.53
1630067067593,9.64
1630067067609,10.34
1630067067625,10.59
1630067067640,10.41
1630067067656,9.9
1630067067671,9.26
1630067067687,8.73
1630067067703,8.49
1630067067718,8.65
1630067067734,9.17
1630067067750,9.97
1630067067765,10.9
1630067067781,11.86
1630067067796,12.77
1630067067812,13.59
1630067067828,14.23
1630067067843,14.59
1630067067859,14.54
1630067067875,13.96
1630067067890,12.81
1630067067906,11.14
1630067067921,9.06
1630067067937,6.74
1630067067953,4.29
1630067067968,1.79
1630067067984,-0.73
1630067068000,-3.23
1630067068015,-5.67
1630067068031,-7.94
1630067068046,-9.98
1630067068062,-11.75
1630067068078,-13.31
1630067068093,-14.73
1630067068109,-16.01
1630067068125,-17.04
1630067068140,-17.52
1630067068156,-17.17
1630067068171,-15.8
1630067068187,-13.48
1630067068203,-10.47
1630067068218,-7.24
1630067068234,-4.22
1630067068250,-1.67
1630067068265,0.31
1630067068281,1.81
1630067068296,2.98
1630067068312,3.94
1630067068328,4.74
1630067068343,5.32
1630067068359,5.6
1630067068375,5.53
1630067068390,5.18
1630067068406,4.75
1630067068421,4.5
1630067068437,4.69
1630067068453,5.42
1630067068468,6.61
1630067068484,8.03
1630067068500,9.4
1630067068515,10.58
1630067068531,11.56
1630067068546,12.46
1630067068562,13.4
1630067068578,14.42
1630067068593,15.39
1630067068609,16.1
1630067068625,16.31
1630067068640,15.89
1630067068656,14.82
1630067068671,13.2
1630067068687,11.23
1630067068703,9.15
1630067068718,7.21
1630067068734,5.59
1630067068750,4.39
1630067068765,3.53
1630067068781,2.85
1630067068796,2.11
1630067068812,1.09
1630067068828,-0.33
1630067068843,-2.08
1630067068859,-3.98
1630067068875,-5.81
1630067068890,-7.36
1630067068906,-8.57
1630067068921,-9.48
1630067068937,-10.21
1630067068953,-10.88
1630067068968,-11.56
1630067068984,-12.3
1630067069000,-13.13
1630067069015,-14.09
1630067069031,-15.24
1630067069046,-16.6
1630067069062,-18.17
1630067069078,-19.88
1630067069093,-21.61
1630067069109,-23.25
1630067069125,-24.65
1630067069140,-25.64
1630067069156,-25.89
1630067069171,-24.94
1630067069187,-22.21
1630067069203,-17.32
1630067069218,-10.27
1630067069234,-1.62
1630067069250,7.53
1630067069265,15.87
1630067069281,22.22
1630067069296,25.94
1630067069312,27.04
1630067069328,26.13
1630067069343,24.07
1630067069359,21.7
1630067069375,19.55
1630067069390,17.84
1630067069406,16.58
1630067069421,15.71
1630067069437,15.18
1630067069453,14.95
1630067069468,14.91
1630067069484,14.85
1630067069500,14.48
1630067069515,13.59
1630067069531,12.15
1630067069546,10.38
1630067069562,8.66
1630067069578,7.36
1630067069593,6.69
1630067069609,6.6
1630067069625,6.84
1630067069640,7.07
1630067069656,7.05
1630067069671,6.63
1630067069687,5.86
1630067069703,4.87
1630067069718,3.88
1630067069734,3.07
1630067069750,2.55
1630067069765,2.32
1630067069781,2.26
1630067069796,2.2
1630067069812,2.02
1630067069828,1.65
1630067069843,1.21
1630067069859,0.83
1630067069875,0.63
1630067069890,0.62
1630067069906,0.68
1630067069921,0.63
1630067069937,0.36
1630067069953,-0.12
1630067069968,-0.69
1630067069984,-1.22
1630067070000,-1.66
1630067070015,-2.08
1630067070031,-2.63
1630067070046,-3.44
1630067070062,-4.54
1630067070078,-5.81
1630067070093,-7.08
1630067070109,-8.14
1630067070125,-8.94
1630067070140,-9.49
1630067070156,-9.87
1630067070171,-10.19
1630067070187,-10.54
1630067070203,-11.01
1630067070218,-11.68
1630067070234,-12.59
1630067070250,-13.7
1630067070265,-14.82
1630067070281,-15.62
1630067070296,-15.74
1630067070312,-14.93
1630067070328,-13.15
1630067070343,-10.6
1630067070359,-7.69
1630067070375,-4.81
1630067070390,-2.32
1630067070406,-0.39
1630067070421,0.95
1630067070437,1.73
1630067070453,2.09
1630067070468,2.14
1630067070484,1.99
1630067070500,1.75
1630067070515,1.53
1630067070531,1.42
1630067070546,1.47
1630067070562,1.73
1630067070578,2.22
1630067070593,2.89
1630067070609,3.71
1630067070625,4.6
1630067070640,5.47
1630067070656,6.26
1630067070671,6.96
1630067070687,7.61
1630067070703,8.23
1630067070718,8.8
1630067070734,9.22
1630067070750,9.35
1630067070765,9.07
1630067070781,8.34
1630067070796,7.28
1630067070812,6.07
1630067070828,4.96
1630067070843,4.12
1630067070859,3.59
1630067070875,3.29
1630067070890,3.05
1630067070906,2.7
1630067070921,2.14
1630067070937,1.37
1630067070953,0.49
1630067070968,-0.32
1630067070984,-0.87
1630067071000,-1.1
1630067071015,-1.03
1630067071031,-0.81
1630067071046,-0.59
1630067071062,-0.47
1630067071078,-0.5
1630067071093,-0.65
1630067071109,-0.87
1630067071125,-1.11
1630067071140,-1.38
1630067071156,-1.7
1630067071171,-2.15
1630067071187,-2.77
1630067071203,-3.56
1630067071218,-4.47
1630067071234,-5.35
1630067071250,-6.07
1630067071265,-6.55
1630067071281,-6.82
1630067071296,-7.08
1630067071312,-7.49
1630067071328,-8.17
1630067071343,-9.0
1630067071359,-9.73
1630067071375,-10.02
1630067071390,-9.65
1630067071406,-8.54
1630067071421,-6.8
1630067071437,-4.59
1630067071453,-2.11
1630067071468,0.45
1630067071484,2.89
1630067071500,4.98
1630067071515,6.53
1630067071531,7.34
1630067071546,7.38
1630067071562,6.73
1630067071578,5.61
1630067071593,4.29
1630067071609,3.03
1630067071625,2.02
1630067071640,1.38
1630067071656,1.12
1630067071671,1.21
1630067071687,1.6
1630067071703,2.23
1630067071718,3.01
1630067071734,3.91
1630067071750,4.84
1630067071765,5.71
1630067071781,6.42
1630067071796,6.89
1630067071812,7.09
1630067071828,7.02
1630067071843,6.75
1630067071859,6.33
1630067071875,5.81
1630067071890,5.17
1630067071906,4.4
1630067071921,3.5
1630067071937,2.48
1630067071953,1.42
1630067071968,0.38
1630067071984,-0.53
1630067072000,-1.26
1630067072015,-1.77
1630067072031,-2.05
1630067072046,-2.13
1630067072062,-2.07
1630067072078,-1.95
1630067072093,-1.92
1630067072109,-2.08
1630067072125,-2.52
1630067072140,-3.26
1630067072156,-4.22
1630067072171,-5.31
1630067072187,-6.43
1630067072203,-7.5
1630067072218,-8.45
1630067072234,-9.25
1630067072250,-9.88
1630067072265,-10.32
1630067072281,-10.64
1630067072296,-10.88
1630067072312,-11.16
1630067072328,-11.58
1630067072343,-12.19
1630067072359,-12.94
1630067072375,-13.7
1630067072390,-14.21
1630067072406,-14.18
1630067072421,-13.39
1630067072437,-11.72
1630067072453,-9.25
1630067072468,-6.18
1630067072484,-2.85
1630067072500,0.38
1630067072515,3.18
1630067072531,5.28
1630067072546,6.53
1630067072562,6.87
1630067072578,6.42
1630067072593,5.42
1630067072609,4.14
1630067072625,2.88
1630067072640,1.86
1630067072656,1.2
1630067072671,0.91
1630067072687,0.92
1630067072703,1.12
1630067072718,1.39
1630067072734,1.71
1630067072750,2.09
1630067072765,2.61
1630067072781,3.28
1630067072796,4.09
1630067072812,4.91
1630067072828,5.59
1630067072843,6.02
1630067072859,6.17
1630067072875,6.12
1630067072890,5.94
1630067072906,5.67
1630067072921,5.28
1630067072937,4.7
1630067072953,3.88
1630067072968,2.87
1630067072984,1.82
1630067073000,0.91
1630067073015,0.3
1630067073031,0.03
1630067073046,0.03
1630067073062,0.13
1630067073078,0.13
1630067073093,-0.14
1630067073109,-0.74
1630067073125,-1.64
1630067073140,-2.74
1630067073156,-3.93
1630067073171,-5.11
1630067073187,-6.19
1630067073203,-7.11
1630067073218,-7.83
1630067073234,-8.33
1630067073250,-8.62
1630067073265,-8.75
1630067073281,-8.82
1630067073296,-8.88
1630067073312,-9.02
1630067073328,-9.27
1630067073343,-9.65
1630067073359,-10.16
1630067073375,-10.74
1630067073390,-11.28
1630067073406,-11.62
1630067073421,-11.56
1630067073437,-10.94
1630067073453,-9.69
1630067073468,-7.83
1630067073484,-5.43
1630067073500,-2.66
1630067073515,0.22
1630067073531,2.89
1630067073546,4.97
1630067073562,6.17
1630067073578,6.35
1630067073593,5.62
1630067073609,4.28
1630067073625,2.75
1630067073640,1.36
1630067073656,0.3
1630067073671,-0.42
1630067073687,-0.88
1630067073703,-1.16
1630067073718,-1.29
1630067073734,-1.26
1630067073750,-1.03
1630067073765,-0.57
1630067073781,0.08
1630067073796,0.83
1630067073812,1.63
1630067073828,2.39
1630067073843,3.09
1630067073859,3.67
1630067073875,4.08
1630067073890,4.24
1630067073906,4.06
1630067073921,3.5
1630067073937,2.57
1630067073953,1.33
1630067073968,-0.06
1630067073984,-1.4
1630067074000,-2.49
1630067074015,-3.18
1630067074031,-3.44
1630067074046,-3.31
1630067074062,-2.89
1630067074078,-2.3
1630067074093,-1.62
1630067074109,-0.92
1630067074125,-0.31
1630067074140,0.11
1630067074156,0.25
1630067074171,0.05
1630067074187,-0.44
1630067074203,-1.11
1630067074218,-1.81
1630067074234,-2.48
1630067074250,-3.13
1630067074265,-3.82
1630067074281,-4.63
1630067074296,-5.56
1630067074312,-6.58
1630067074328,-7.64
1630067074343,-8.7
1630067074359,-9.74
1630067074375,-10.66
1630067074390,-11.3
1630067074406,-11.44
1630067074421,-10.9
1630067074437,-9.64
1630067074453,-7.75
1630067074468,-5.42
1630067074484,-2.91
1630067074500,-0.41
1630067074515,1.84
1630067074531,3.63
1630067074546,4.81
1630067074562,5.25
1630067074578,5.01
1630067074593,4.22
1630067074609,3.16
1630067074625,2.05
1630067074640,1.09
1630067074656,0.39
1630067074671,-0.01
1630067074687,-0.08
1630067074703,0.17
1630067074718,0.66
1630067074734,1.3
1630067074750,1.94
1630067074765,2.52
1630067074781,3.01
1630067074796,3.44
1630067074812,3.85
1630067074828,4.21
1630067074843,4.5
1630067074859,4.67
1630067074875,4.69
1630067074890,4.56
1630067074906,4.31
1630067074921,3.91
1630067074937,3.37
1630067074953,2.72
1630067074968,2.07
1630067074984,1.55
1630067075000,1.3
1630067075015,1.34
1630067075031,1.58
1630067075046,1.85
1630067075062,1.94
1630067075078,1.73
1630067075093,1.22
1630067075109,0.55
1630067075125,-0.08
1630067075140,-0.53
1630067075156,-0.71
1630067075171,-0.68
1630067075187,-0.57
1630067075203,-0.56
1630067075218,-0.75
1630067075234,-1.18
1630067075250,-1.8
1630067075265,-2.5
1630067075281,-3.17
1630067075296,-3.71
1630067075312,-4.02
1630067075328,-3.98
1630067075343,-3.47
1630067075359,-2.42
1630067075375,-0.86
1630067075390,1.04
1630067075406,3.06
1630067075421,4.91
1630067075437,6.4
1630067075453,7.44
1630067075468,8.05
1630067075484,8.24
1630067075500,7.98
1630067075515,7.14
1630067075531,5.61
1630067075546,3.47
1630067075562,1.0
1630067075578,-1.26
1630067075593,-2.74
1630067075609,-2.99
1630067075625,-1.93
1630067075640,0.24
1630067075656,3.07
1630067075671,6.06
1630067075687,8.83
1630067075703,11.16
1630067075718,13.0
1630067075734,14.37
1630067075750,15.32
1630067075765,15.95
1630067075781,16.34
1630067075796,16.52
1630067075812,16.36
1630067075828,15.55
1630067075843,13.61
1630067075859,10.14
1630067075875,5.04
1630067075890,-1.34
1630067075906,-8.16
1630067075921,-14.38
1630067075937,-19.09
1630067075953,-21.85
1630067075968,-22.72
1630067075984,-22.18
1630067076000,-20.82
1630067076015,-19.05
1630067076031,-17.09
1630067076046,-14.98
1630067076062,-12.81
1630067076078,-10.8
1630067076093,-9.25
1630067076109,-8.35
1630067076125,-8.07
1630067076140,-8.06
1630067076156,-7.83
1630067076171,-6.95
1630067076187,-5.2
1630067076203,-2.68
1630067076218,0.35
1630067076234,3.58
1630067076250,6.83
1630067076265,10.05
1630067076281,13.27
1630067076296,16.48
1630067076312,19.57
1630067076328,22.25
1630067076343,24.19
1630067076359,25.12
1630067076375,24.92
1630067076390,23.71
1630067076406,21.86
1630067076421,19.89
1630067076437,18.34
1630067076453,17.75
1630067076468,18.39
1630067076484,20.13
1630067076500,22.42
1630067076515,24.18
1630067076531,24.04
1630067076546,20.71
1630067076562,13.42
1630067076578,2.33
1630067076593,-11.4
1630067076609,-25.79
1630067076625,-38.7
1630067076640,-48.34
1630067076656,-53.78
1630067076671,-55.0
1630067076687,-52.71
1630067076703,-47.92
1630067076718,-41.71
1630067076734,-34.92
1630067076750,-28.2
1630067076765,-22.04
1630067076781,-16.79
1630067076796,-12.69
1630067076812,-9.8
1630067076828,-8.01
1630067076843,-7.02
1630067076859,-6.43
1630067076875,-5.91
1630067076890,-5.31
1630067076906,-4.7
1630067076921,-4.29
1630067076937,-4.33
1630067076953,-4.86
1630067076968,-5.7
1630067076984,-6.47
1630067077000,-6.69
1630067077015,-6.06
1630067077031,-4.46
1630067077046,-2.07
1630067077062,0.8
1630067077078,3.76
1630067077093,6.44
1630067077109,8.53
1630067077125,9.87
1630067077140,10.44
1630067077156,10.43
1630067077171,10.1
1630067077187,9.77
1630067077203,9.67
1630067077218,9.83
1630067077234,10.17
1630067077250,10.61
1630067077265,11.08
1630067077281,11.63
1630067077296,12.33
1630067077312,13.25
1630067077328,14.34
1630067077343,15.51
1630067077359,16.64
1630067077375,17.64
1630067077390,18.51
1630067077406,19.25
1630067077421,19.87
1630067077437,20.38
1630067077453,20.76
1630067077468,20.99
1630067077484,21.15
1630067077500,21.31
1630067077515,21.55
1630067077531,21.93
1630067077546,22.43
1630067077562,23.0
1630067077578,23.6
1630067077593,24.19
1630067077609,24.86
1630067077625,25.76
1630067077640,27.03
1630067077656,28.81
1630067077671,31.07
1630067077687,33.63
1630067077703,36.21
1630067077718,38.54
1630067077734,40.52
1630067077750,42.32
1630067077765,44.48
1630067077781,47.7
1630067077796,52.63
1630067077812,59.53
1630067077828,68.04
1630067077843,77.27
1630067077859,86.09
1630067077875,93.52
1630067077890,99.01
1630067077906,102.53
1630067077921,103.97
1630067077937,102.77
1630067077953,97.61
1630067077968,86.43
1630067077984,66.97
1630067078000,37.5
1630067078015,-2.4
1630067078031,-51.32
1630067078046,-105.67
1630067078062,-159.85
1630067078078,-206.85
1630067078093,-239.53
1630067078109,-252.14
1630067078125,-241.88
1630067078140,-209.72
1630067078156,-160.21
1630067078171,-100.14
1630067078187,-36.61
1630067078203,24.6
1630067078218,79.84
1630067078234,127.41
1630067078250,166.72
1630067078265,197.52
1630067078281,219.53
1630067078296,232.36
1630067078312,235.76
1630067078328,229.79
1630067078343,214.84
1630067078359,191.71
1630067078375,161.55
1630067078390,125.67
1630067078406,85.68
1630067078421,43.21
1630067078437,-0.09
1630067078453,-42.58
1630067078468,-82.58
1630067078484,-118.56
1630067078500,-149.14
1630067078515,-173.38
1630067078531,-191.05
1630067078546,-202.75
1630067078562,-209.94
1630067078578,-214.81
1630067078593,-219.69
1630067078609,-226.17
1630067078625,-234.16
1630067078640,-241.21
1630067078656,-242.94
1630067078671,-234.44
1630067078687,-212.32
1630067078703,-176.42
1630067078718,-130.05
1630067078734,-78.75
1630067078750,-27.97
1630067078765,19.07
1630067078781,62.42
1630067078796,104.73
1630067078812,149.15
1630067078828,197.0
1630067078843,246.05
1630067078859,290.52
1630067078875,322.74
1630067078890,335.92
1630067078906,326.76
1630067078921,296.97
1630067078937,252.64
1630067078953,201.81
1630067078968,151.63
1630067078984,106.2
1630067079000,66.25
1630067079015,30.51
1630067079031,-2.29
1630067079046,-32.1
1630067079062,-57.54
1630067079078,-77.14
1630067079093,-90.72
1630067079109,-100.08
1630067079125,-108.63
1630067079140,-120.06
1630067079156,-136.97
1630067079171,-160.12
1630067079187,-188.69
1630067079203,-221.06
1630067079218,-255.72
1630067079234,-291.55
1630067079250,-327.53
1630067079265,-362.3
1630067079281,-393.91
1630067079296,-420.12
1630067079312,-438.92
1630067079328,-449.05
1630067079343,-449.92
1630067079359,-441.25
1630067079375,-422.71
1630067079390,-394.07
1630067079406,-355.86
1630067079421,-310.12
1630067079437,-260.55
1630067079453,-211.62
1630067079468,-167.14
1630067079484,-128.67
1630067079500,-94.64
1630067079515,-61.01
1630067079531,-23.05
1630067079546,21.81
1630067079562,72.14
1630067079578,121.75
1630067079593,161.02
1630067079609,179.94
1630067079625,171.4
1630067079640,134.11
1630067079656,73.49
1630067079671,0.41
1630067079687,-71.7
1630067079703,-129.93
1630067079718,-164.93
1630067079734,-172.95
1630067079750,-156.53
1630067079765,-123.53
1630067079781,-84.24
1630067079796,-48.37
1630067079812,-22.05
1630067079828,-6.88
1630067079843,-0.15
1630067079859,2.69
1630067079875,5.36
1630067079890,9.15
1630067079906,13.45
1630067079921,17.9
1630067079937,22.9
1630067079953,29.8
1630067079968,38.89
1630067079984,49.65
1630067080000,60.13
1630067080015,67.72
1630067080031,70.34
1630067080046,67.96
1630067080062,64.44
1630067080078,64.99
1630067080093,74.19
1630067080109,92.49
1630067080125,118.32
1630067080140,148.42
1630067080156,179.45
1630067080171,208.52
1630067080187,234.49
1630067080203,260.44
1630067080218,290.44
1630067080234,328.14
1630067080250,372.61
1630067080265,422.95
1630067080281,477.95
1630067080296,536.44
1630067080312,595.24
1630067080328,649.21
1630067080343,694.54
1630067080359,726.93
1630067080375,743.07
1630067080390,738.22
1630067080406,713.27
1630067080421,673.49
1630067080437,627.1
1630067080453,580.91
1630067080468,522.24
1630067080484,443.28
1630067080500,341.79
1630067080515,246.04
1630067080531,168.49
1630067080546,113.34
1630067080562,71.34
1630067080578,35.81
1630067080593,0.58
1630067080609,-38.8
1630067080625,-81.67
1630067080640,-125.7
1630067080656,-168.14
1630067080671,-211.06
1630067080687,-255.65
1630067080703,-302.74
1630067080718,-351.96
1630067080734,-403.79
1630067080750,-458.85
1630067080765,-515.21
1630067080781,-570.05
1630067080796,-619.53
1630067080812,-661.84
1630067080828,-692.98
1630067080843,-708.65
1630067080859,-705.48
1630067080875,-683.79
1630067080890,-647.12
1630067080906,-599.26
1630067080921,-543.85
1630067080937,-483.4
1630067080953,-421.26
1630067080968,-359.43
1630067080984,-299.73
1630067081000,-243.97
1630067081015,-194.38
1630067081031,-152.65
1630067081046,-118.36
1630067081062,-89.74
1630067081078,-64.4
1630067081093,-41.41
1630067081109,-20.3
1630067081125,-1.31
1630067081140,15.08
1630067081156,28.37
1630067081171,38.62
1630067081187,46.82
1630067081203,54.51
1630067081218,63.29
1630067081234,73.88
1630067081250,86.45
1630067081265,100.47
1630067081281,115.17
1630067081296,129.73
1630067081312,143.75
1630067081328,157.35
1630067081343,171.18
1630067081359,186.22
1630067081375,203.78
1630067081390,225.38
1630067081406,252.57
1630067081421,286.12
1630067081437,325.13
1630067081453,366.38
1630067081468,404.86
1630067081484,435.11
1630067081500,453.2
1630067081515,458.05
1630067081531,451.41
1630067081546,436.68
1630067081562,417.33
1630067081578,396.06
1630067081593,374.58
1630067081609,354.09
1630067081625,335.33
1630067081640,318.3
1630067081656,301.66
1630067081671,282.86
1630067081687,259.02
1630067081703,228.25
1630067081718,190.77
1630067081734,148.77
1630067081750,105.22
1630067081765,62.3
1630067081781,20.76
1630067081796,-19.67
1630067081812,-59.06
1630067081828,-96.44
1630067081843,-129.74
1630067081859,-156.72
1630067081875,-176.1
1630067081890,-188.22
1630067081906,-194.87
1630067081921,-198.46
1630067081937,-201.08
1630067081953,-203.87
1630067081968,-206.94
1630067081984,-209.76
1630067082000,-211.64
1630067082015,-212.13
1630067082031,-211.15
1630067082046,-208.81
1630067082062,-205.32
1630067082078,-200.8
1630067082093,-195.26
1630067082109,-188.59
1630067082125,-180.65
1630067082140,-171.28
1630067082156,-160.41
1630067082171,-148.08
1630067082187,-134.24
1630067082203,-118.85
1630067082218,-101.85
1630067082234,-83.37
1630067082250,-63.92
1630067082265,-44.44
1630067082281,-26.15
1630067082296,-10.12
1630067082312,3.13
1630067082328,13.85
1630067082343,22.96
1630067082359,31.66
1630067082375,40.91
1630067082390,51.14
1630067082406,62.09
1630067082421,73.08
1630067082437,83.18
1630067082453,91.55
1630067082468,97.51
1630067082484,100.56
1630067082500,100.44
1630067082515,97.23
1630067082531,91.41
1630067082546,83.94
1630067082562,76.16
1630067082578,69.62
1630067082593,65.58
1630067082609,64.56
1630067082625,65.82
1630067082640,67.07
1630067082656,64.85
1630067082671,55.48
1630067082687,36.51
1630067082703,7.79
1630067082718,-28.16
1630067082734,-66.84
1630067082750,-103.21
1630067082765,-133.21
1630067082781,-154.57
1630067082796,-166.88
1630067082812,-171.0
1630067082828,-168.28
1630067082843,-160.15
1630067082859,-148.02
1630067082875,-133.51
1630067082890,-118.29
1630067082906,-104.02
1630067082921,-91.91
1630067082937,-82.49
1630067082953,-75.62
1630067082968,-70.59
1630067082984,-66.33
1630067083000,-61.67
1630067083015,-55.56
1630067083031,-47.24
1630067083046,-36.53
1630067083062,-23.86
1630067083078,-10.29
1630067083093,2.66
1630067083109,13.32
1630067083125,20.28
1630067083140,22.79
1630067083156,20.98
1630067083171,15.87
1630067083187,9.08
1630067083203,2.3
1630067083218,-3.16
1630067083234,-6.73
1630067083250,-8.54
1630067083265,-9.17
1630067083281,-9.27
1630067083296,-9.27
1630067083312,-9.27
1630067083328,-9.11
1630067083343,-8.57
1630067083359,-7.44
1630067083375,-5.63
1630067083390,-3.06
1630067083406,0.25
1630067083421,4.14
1630067083437,8.15
1630067083453,11.47
1630067083468,13.15
1630067083484,12.38
1630067083500,8.9
1630067083515,3.06
1630067083531,-4.19
1630067083546,-11.74
1630067083562,-18.63
1630067083578,-24.34
1630067083593,-28.82
1630067083609,-32.35
1630067083625,-35.37
1630067083640,-38.32
1630067083656,-41.56
1630067083671,-45.29
1630067083687,-49.46
1630067083703,-53.69
1630067083718,-57.26
1630067083734,-59.29
1630067083750,-59.02
1630067083765,-56.04
1630067083781,-50.42
1630067083796,-42.54
1630067083812,-32.97
1630067083828,-22.26
1630067083843,-10.93
1630067083859,0.48
1630067083875,11.44
1630067083890,21.44
1630067083906,30.15
1630067083921,37.59
1630067083937,44.13
1630067083953,50.34
1630067083968,56.68
1630067083984,63.23
1630067084000,69.62
1630067084015,75.14
1630067084031,79.1
1630067084046,81.15
1630067084062,81.56
1630067084078,81.17
1630067084093,81.07
1630067084109,82.29
1630067084125,85.3
1630067084140,89.85
1630067084156,95.05
1630067084171,99.72
1630067084187,102.88
1630067084203,104.13
1630067084218,103.68
1630067084234,102.18
1630067084250,100.42
1630067084265,98.97
1630067084281,98.04
1630067084296,97.42
1630067084312,96.25
1630067084328,93.02
1630067084343,85.67
1630067084359,72.13
1630067084375,51.21
1630067084390,23.43
1630067084406,-8.76
1630067084421,-41.45
1630067084437,-70.5
1630067084453,-92.83
1630067084468,-107.15
1630067084484,-114.0
1630067084500,-114.96
1630067084515,-111.81
1630067084531,-105.95
1630067084546,-98.32
1630067084562,-89.67
1630067084578,-80.75
1630067084593,-72.39
1630067084609,-65.16
1630067084625,-59.21
1630067084640,-54.13
1630067084656,-49.3
1630067084671,-44.15
1630067084687,-38.58
1630067084703,-33.04
1630067084718,-28.34
1630067084734,-25.29
1630067084750,-24.25
1630067084765,-24.93
1630067084781,-26.49
1630067084796,-27.87
1630067084812,-28.26
1630067084828,-27.48
1630067084843,-25.93
1630067084859,-24.39
1630067084875,-23.59
1630067084890,-23.89
1630067084906,-25.17
1630067084921,-26.93
1630067084937,-28.59
1630067084953,-29.73
1630067084968,-30.22
1630067084984,-30.24
1630067085000,-30.12
1630067085015,-30.19
1630067085031,-30.57
1630067085046,-31.19
1630067085062,-31.76
1630067085078,-31.86
1630067085093,-31.05
1630067085109,-29.02
1630067085125,-25.68
1630067085140,-21.19
1630067085156,-15.88
1630067085171,-10.14
1630067085187,-4.31
1630067085203,1.38
1630067085218,6.81
1630067085234,11.86
1630067085250,16.42
1630067085265,20.33
1630067085281,23.44
1630067085296,25.7
1630067085312,27.22
1630067085328,28.18
1630067085343,28.77
1630067085359,29.25
1630067085375,29.94
1630067085390,31.37
1630067085406,34.2
1630067085421,39.0
1630067085437,45.86
1630067085453,54.2
1630067085468,62.77
1630067085484,70.02
1630067085500,74.6
1630067085515,75.74
1630067085531,73.3
1630067085546,67.59
1630067085562,59.03
1630067085578,48.04
1630067085593,35.16
1630067085609,21.37
1630067085625,8.16
1630067085640,-2.62
1630067085656,-9.36
1630067085671,-11.27
1630067085687,-8.71
1630067085703,-3.1
1630067085718,3.66
1630067085734,9.96
1630067085750,15.12
1630067085765,19.59
1630067085781,24.46
1630067085796,30.76
1630067085812,38.64
1630067085828,47.01
1630067085843,53.8
1630067085859,56.82
1630067085875,54.66
1630067085890,47.33
1630067085906,36.21
1630067085921,23.35
1630067085937,10.63
1630067085953,-0.88
1630067085968,-10.99
1630067085984,-20.01
1630067086000,-28.23
1630067086015,-35.65
1630067086031,-41.97
1630067086046,-46.91
1630067086062,-50.4
1630067086078,-52.71
1630067086093,-54.29
1630067086109,-55.56
1630067086125,-56.71
1630067086140,-57.65
1630067086156,-58.05
1630067086171,-57.49
1630067086187,-55.67
1630067086203,-52.48
1630067086218,-48.09
1630067086234,-43.01
1630067086250,-37.9
1630067086265,-33.35
1630067086281,-29.66
1630067086296,-26.84
1630067086312,-24.63
1630067086328,-22.78
1630067086343,-21.21
1630067086359,-20.01
1630067086375,-19.34
1630067086390,-19.31
1630067086406,-19.79
1630067086421,-20.49
1630067086437,-21.07
1630067086453,-21.25
1630067086468,-20.96
1630067086484,-20.37
1630067086500,-19.8
1630067086515,-19.62
1630067086531,-20.14
1630067086546,-21.43
1630067086562,-23.34
1630067086578,-25.51
1630067086593,-27.44
1630067086609,-28.74
1630067086625,-29.22
1630067086640,-28.97
1630067086656,-28.34
1630067086671,-27.75
1630067086687,-27.54
1630067086703,-27.82
1630067086718,-28.43
1630067086734,-28.97
1630067086750,-28.93
1630067086765,-27.98
1630067086781,-26.0
1630067086796,-23.3
1630067086812,-20.46
1630067086828,-18.12
1630067086843,-16.73
1630067086859,-16.29
1630067086875,-16.39
1630067086890,-16.39
1630067086906,-15.8
1630067086921,-14.51
1630067086937,-12.83
1630067086953,-11.29
1630067086968,-10.35
1630067086984,-10.13
1630067087000,-10.37
1630067087015,-10.53
1630067087031,-9.89
1630067087046,-7.69
1630067087062,-3.3
1630067087078,3.63
1630067087093,12.81
1630067087109,23.19
1630067087125,32.95
1630067087140,39.97
1630067087156,42.54
1630067087171,40.01
1630067087187,33.16
1630067087203,23.91
1630067087218,14.51
1630067087234,6.76
1630067087250,1.52
1630067087265,-1.25
1630067087281,-2.13
1630067087296,-1.73
1630067087312,-0.52
1630067087328,1.09
1630067087343,2.71
1630067087359,3.97
1630067087375,4.87
1630067087390,5.87
1630067087406,7.8
1630067087421,11.44
1630067087437,16.97
1630067087453,23.81
1630067087468,30.81
1630067087484,36.81
1630067087500,41.25
1630067087515,44.29
1630067087531,46.57
1630067087546,48.76
1630067087562,51.25
1630067087578,54.0
1630067087593,56.76
1630067087609,59.23
1630067087625,61.14
1630067087640,62.34
1630067087656,62.82
1630067087671,62.78
1630067087687,62.67
1630067087703,63.05
1630067087718,64.3
1630067087734,66.28
1630067087750,68.31
1630067087765,69.47
1630067087781,69.1
1630067087796,67.21
1630067087812,64.48
1630067087828,61.88
1630067087843,60.0
1630067087859,58.68
1630067087875,57.07
1630067087890,54.1
1630067087906,49.08
1630067087921,41.99
1630067087937,33.44
1630067087953,24.34
1630067087968,15.47
1630067087984,7.4
1630067088000,0.45
1630067088015,-5.1
1630067088031,-9.09
1630067088046,-11.56
1630067088062,-12.87
1630067088078,-13.64
1630067088093,-14.42
1630067088109,-15.48
1630067088125,-16.69
1630067088140,-17.81
1630067088156,-18.66
1630067088171,-19.43
1630067088187,-20.58
1630067088203,-22.5
1630067088218,-25.24
1630067088234,-28.39
1630067088250,-31.3
1630067088265,-33.46
1630067088281,-34.77
1630067088296,-35.59
1630067088312,-36.5
1630067088328,-37.92
1630067088343,-39.89
1630067088359,-42.02
1630067088375,-43.78
1630067088390,-44.69
1630067088406,-44.5
1630067088421,-43.22
1630067088437,-41.0
1630067088453,-38.04
1630067088468,-34.58
1630067088484,-30.89
1630067088500,-27.28
1630067088515,-24.01
1630067088531,-21.14
1630067088546,-18.51
1630067088562,-15.83
1630067088578,-12.79
1630067088593,-9.29
1630067088609,-5.48
1630067088625,-1.7
1630067088640,1.7
1630067088656,4.44
1630067088671,6.48
1630067088687,7.83
1630067088703,8.58
1630067088718,8.79
1630067088734,8.51
1630067088750,7.84
1630067088765,6.95
1630067088781,6.05
1630067088796,5.34
1630067088812,4.93
1630067088828,4.79
1630067088843,4.76
1630067088859,4.61
1630067088875,4.16
1630067088890,3.34
1630067088906,2.16
1630067088921,0.82
1630067088937,-0.51
1630067088953,-1.68
1630067088968,-2.68
1630067088984,-3.61
1630067089000,-4.55
1630067089015,-5.51
1630067089031,-6.42
1630067089046,-7.11
1630067089062,-7.53
1630067089078,-7.72
1630067089093,-7.9
1630067089109,-8.26
1630067089125,-8.92
1630067089140,-9.81
1630067089156,-10.79
1630067089171,-11.63
1630067089187,-12.18
1630067089203,-12.38
1630067089218,-12.18
1630067089234,-11.54
1630067089250,-10.36
1630067089265,-8.61
1630067089281,-6.29
1630067089296,-3.57
1630067089312,-0.66
1630067089328,2.19
1630067089343,4.81
1630067089359,7.1
1630067089375,9.04
1630067089390,10.64
1630067089406,11.83
1630067089421,12.56
1630067089437,12.77
1630067089453,12.49
1630067089468,11.84
1630067089484,11.0
1630067089500,10.17
1630067089515,9.51
1630067089531,9.08
1630067089546,8.89
1630067089562,8.87
1630067089578,8.99
1630067089593,9.21
1630067089609,9.52
1630067089625,9.9
1630067089640,10.27
1630067089656,10.53
1630067089671,10.57
1630067089687,10.33
1630067089703,9.81
1630067089718,9.08
1630067089734,8.23
1630067089750,7.35
1630067089765,6.5
1630067089781,5.7
1630067089796,4.94
1630067089812,4.16
1630067089828,3.31
1630067089843,2.34
1630067089859,1.2
1630067089875,-0.08
1630067089890,-1.38
1630067089906,-2.61
1630067089921,-3.68
1630067089937,-4.56
1630067089953,-5.37
1630067089968,-6.22
1630067089984,-7.22
1630067090000,-8.39
1630067090015,-9.65
1630067090031,-10.88
1630067090046,-12.0
1630067090062,-12.97
1630067090078,-13.78
1630067090093,-14.39
1630067090109,-14.73
1630067090125,-14.63
1630067090140,-14.01
1630067090156,-12.8
1630067090171,-11.03
1630067090187,-8.81
1630067090203,-6.21
1630067090218,-3.35
1630067090234,-0.34
1630067090250,2.67
1630067090265,5.5
1630067090281,7.97
1630067090296,9.9
1630067090312,11.26
1630067090328,12.05
1630067090343,12.44
1630067090359,12.6
1630067090375,12.73
1630067090390,13.0
1630067090406,13.5
1630067090421,14.23
1630067090437,15.14
1630067090453,16.09
1630067090468,17.0
1630067090484,17.82
1630067090500,18.51
1630067090515,19.09
1630067090531,19.56
1630067090546,19.92
1630067090562,20.18
1630067090578,20.39
1630067090593,20.63
1630067090609,20.97
1630067090625,21.44
1630067090640,21.99
1630067090656,22.52
1630067090671,22.96
1630067090687,23.28
1630067090703,23.58
1630067090718,23.99
1630067090734,24.6
1630067090750,25.36
1630067090765,26.1
1630067090781,26.6
1630067090796,26.67
1630067090812,26.25
1630067090828,25.47
1630067090843,24.56
1630067090859,23.75
1630067090875,23.12
1630067090890,22.55
1630067090906,21.8
1630067090921,20.62
1630067090937,18.9
1630067090953,16.81
1630067090968,14.72
1630067090984,13.15
1630067091000,12.58
1630067091015,13.39
1630067091031,15.74
1630067091046,19.66
1630067091062,24.98
1630067091078,31.32
1630067091093,38.06
1630067091109,44.48
1630067091125,49.92
1630067091140,54.06
1630067091156,57.08
1630067091171,59.55
1630067091187,62.03
1630067091203,64.56
1630067091218,66.32
1630067091234,65.74
1630067091250,61.07
1630067091265,51.22
1630067091281,36.45
1630067091296,18.54
1630067091312,0.35
1630067091328,-14.97
1630067091343,-24.98
1630067091359,-28.54
1630067091375,-26.06
1630067091390,-19.13
1630067091406,-10.03
1630067091421,-1.03
1630067091437,6.24
1630067091453,11.07
1630067091468,13.9
1630067091484,16.06
1630067091500,19.41
1630067091515,25.49
1630067091531,34.65
1630067091546,45.37
1630067091562,54.21
1630067091578,56.42
1630067091593,47.25
1630067091609,23.61
1630067091625,-14.42
1630067091640,-62.87
1630067091656,-114.41
1630067091671,-160.17
1630067091687,-192.24
1630067091703,-206.06
1630067091718,-201.59
1630067091734,-182.9
1630067091750,-156.4
1630067091765,-128.53
1630067091781,-103.93
1630067091796,-84.8
1630067091812,-71.32
1630067091828,-62.68
1630067091843,-57.93
1630067091859,-56.26
1630067091875,-56.8
1630067091890,-58.24
1630067091906,-58.96
1630067091921,-57.54
1630067091937,-53.39
1630067091953,-47.02
1630067091968,-39.78
1630067091984,-33.36
1630067092000,-28.87
1630067092015,-26.52
1630067092031,-25.59
1630067092046,-24.91
1630067092062,-23.43
1630067092078,-20.72
1630067092093,-17.08
1630067092109,-13.42
1630067092125,-10.84
1630067092140,-10.23
1630067092156,-11.89
1630067092171,-15.41
1630067092187,-19.77
1630067092203,-23.71
1630067092218,-26.22
1630067092234,-26.98
1630067092250,-26.59
1630067092265,-26.37
1630067092281,-27.74
1630067092296,-31.52
1630067092312,-37.4
1630067092328,-44.09
1630067092343,-49.88
1630067092359,-53.3
1630067092375,-53.58
1630067092390,-50.56
1630067092406,-44.31
1630067092421,-34.87
1630067092437,-22.39
1630067092453,-7.59
1630067092468,7.88
1630067092484,21.56
1630067092500,31.01
1630067092515,34.91
1630067092531,33.63
1630067092546,29.09
1630067092562,23.75
1630067092578,19.43
1630067092593,16.7
1630067092609,15.02
1630067092625,13.61
1630067092640,12.14
1630067092656,11.01
1630067092671,11.0
1630067092687,12.48
1630067092703,15.05
1630067092718,17.55
1630067092734,18.76
1630067092750,18.03
1630067092765,15.83
1630067092781,13.56
1630067092796,12.99
1630067092812,15.41
1630067092828,21.03
1630067092843,28.92
1630067092859,37.32
1630067092875,44.45
1630067092890,49.25
1630067092906,51.78
1630067092921,53.01
1630067092937,54.24
1630067092953,56.26
1630067092968,58.94
1630067092984,61.28
1630067093000,61.99
1630067093015,60.25
1630067093031,56.12
1630067093046,50.57
1630067093062,44.95
1630067093078,40.39
1630067093093,37.41
1630067093109,35.87
1630067093125,35.35
1630067093140,35.51
1630067093156,36.24
1630067093171,37.77
1630067093187,40.27
1630067093203,43.69
1630067093218,47.67
1630067093234,51.64
1630067093250,55.08
1630067093265,57.69
1630067093281,59.5
1630067093296,60.7
1630067093312,61.5
1630067093328,61.94
1630067093343,61.88
1630067093359,61.01
1630067093375,59.09
1630067093390,55.94
1630067093406,51.62
1630067093421,46.34
1630067093437,40.44
1630067093453,34.26
1630067093468,28.07
1630067093484,21.92
1630067093500,15.63
1630067093515,8.87
1630067093531,1.27
1630067093546,-7.3
1630067093562,-16.66
1630067093578,-26.42
1630067093593,-36.12
1630067093609,-45.36
1630067093625,-53.77
1630067093640,-60.96
1630067093656,-66.4
1630067093671,-69.51
1630067093687,-69.86
1630067093703,-67.45
1630067093718,-62.85
1630067093734,-57.02
1630067093750,-50.97
1630067093765,-45.44
1630067093781,-40.74
1630067093796,-36.81
1630067093812,-33.45
1630067093828,-30.47
1630067093843,-27.78
1630067093859,-25.32
1630067093875,-23.0
1630067093890,-20.72
1630067093906,-18.45
1630067093921,-16.26
1630067093937,-14.34
1630067093953,-12.9
1630067093968,-12.05
1630067093984,-11.74
1630067094000,-11.8
1630067094015,-12.02
1630067094031,-12.19
1630067094046,-12.16
1630067094062,-11.73
1630067094078,-10.67
1630067094093,-8.79
1630067094109,-6.04
1630067094125,-2.6
1630067094140,1.03
1630067094156,4.29
1630067094171,6.7
1630067094187,8.12
1630067094203,8.85
1630067094218,9.32
1630067094234,9.89
1630067094250,10.46
1630067094265,10.49
1630067094281,9.18
1630067094296,5.98
1630067094312,0.89
1630067094328,-5.33
1630067094343,-11.45
1630067094359,-16.18
1630067094375,-18.66
1630067094390,-18.7
1630067094406,-16.73
1630067094421,-13.48
1630067094437,-9.75
1630067094453,-6.16
1630067094468,-3.27
1630067094484,-1.52
1630067094500,-1.33
1630067094515,-2.84
1630067094531,-5.74
1630067094546,-9.03
1630067094562,-11.24
1630067094578,-11.01
1630067094593,-7.84
1630067094609,-2.7
1630067094625,1.93
1630067094640,2.93
1630067094656,-2.25
1630067094671,-14.3
1630067094687,-31.52
1630067094703,-50.45
1630067094718,-67.12
1630067094734,-78.55
1630067094750,-83.59
1630067094765,-82.83
1630067094781,-77.68
1630067094796,-69.47
1630067094812,-58.92
1630067094828,-46.29
1630067094843,-31.93
1630067094859,-16.73
1630067094875,-2.1
1630067094890,10.51
1630067094906,20.18
1630067094921,26.87
1630067094937,31.26
1630067094953,34.3
1630067094968,36.63
1630067094984,38.37
1630067095000,39.2
1630067095015,38.75
1630067095031,36.92
1630067095046,34.04
1630067095062,30.75
1630067095078,27.74
1630067095093,25.38
1630067095109,23.72
1630067095125,22.41
1630067095140,21.0
1630067095156,19.21
1630067095171,17.14
1630067095187,15.31
1630067095203,14.51
1630067095218,15.48
1630067095234,18.53
1630067095250,23.38
1630067095265,29.11
1630067095281,34.44
1630067095296,38.08
1630067095312,39.09
1630067095328,37.13
1630067095343,32.59
1630067095359,26.5
1630067095375,20.16
1630067095390,14.8
1630067095406,10.96
1630067095421,8.37
1630067095437,5.9
1630067095453,2.09
1630067095468,-4.16
1630067095484,-13.06
1630067095500,-23.81
1630067095515,-34.99
1630067095531,-45.08
1630067095546,-52.97
1630067095562,-58.05
1630067095578,-60.02
1630067095593,-58.74
1630067095609,-54.21
1630067095625,-46.74
1630067095640,-37.15
1630067095656,-26.65
1630067095671,-16.55
1630067095687,-7.67
1630067095703,-0.18
1630067095718,6.48
1630067095734,13.04
1630067095750,20.0
1630067095765,27.33
1630067095781,34.68
1630067095796,41.79
1630067095812,48.74
1630067095828,55.96
1630067095843,63.69
1630067095859,71.55
1630067095875,78.25
1630067095890,81.87
1630067095906,80.57
1630067095921,73.39
1630067095937,60.59
1630067095953,43.5
1630067095968,23.91
1630067095984,3.48
1630067096000,-16.56
1630067096015,-35.22
1630067096031,-51.39
1630067096046,-63.75
1630067096062,-71.11
1630067096078,-72.94
1630067096093,-69.72
1630067096109,-62.92
1630067096125,-54.42
1630067096140,-45.77
1630067096156,-37.82
1630067096171,-30.72
1630067096187,-24.31
1630067096203,-18.57
1630067096218,-13.79
1630067096234,-10.38
1630067096250,-8.56
1630067096265,-8.21
1630067096281,-8.93
1630067096296,-10.27
1630067096312,-11.9
1630067096328,-13.63
1630067096343,-15.25
1630067096359,-16.5
1630067096375,-17.06
1630067096390,-16.69
1630067096406,-15.37
1630067096421,-13.34
1630067096437,-11.01
1630067096453,-8.87
1630067096468,-7.46
1630067096484,-7.28
1630067096500,-8.63
1630067096515,-11.56
1630067096531,-15.68
1630067096546,-20.27
1630067096562,-24.56
1630067096578,-28.06
1630067096593,-30.7
1630067096609,-32.72
1630067096625,-34.39
1630067096640,-35.56
1630067096656,-35.63
1630067096671,-33.84
1630067096687,-29.72
1630067096703,-23.53
1630067096718,-16.27
1630067096734,-9.31
1630067096750,-3.88
1630067096765,-0.54
1630067096781,0.93
1630067096796,1.3
1630067096812,1.51
1630067096828,2.31
1630067096843,4.01
1630067096859,6.56
1630067096875,9.68
1630067096890,13.09
1630067096906,16.6
1630067096921,20.17
1630067096937,23.75
1630067096953,27.23
1630067096968,30.35
1630067096984,32.71
1630067097000,33.97
1630067097015,33.98
1630067097031,32.87
1630067097046,31.1
1630067097062,29.23
1630067097078,27.72
1630067097093,26.76
1630067097109,26.21
1630067097125,25.74
1630067097140,24.97
1630067097156,23.67
1630067097171,21.76
1630067097187,19.28
1630067097203,16.28
1630067097218,12.83
1630067097234,8.93
1630067097250,4.67
1630067097265,0.25
1630067097281,-4.03
1630067097296,-7.74
1630067097312,-10.39
1630067097328,-11.51
1630067097343,-10.73
1630067097359,-7.95
1630067097375,-3.46
1630067097390,2.04
1630067097406,7.61
1630067097421,12.31
1630067097437,15.66
1630067097453,17.75
1630067097468,19.24
1630067097484,20.94
1630067097500,23.42
1630067097515,26.65
1630067097531,30.03
1630067097546,32.66
1630067097562,33.72
1630067097578,32.75
1630067097593,29.72
1630067097609,25.2
1630067097625,20.29
1630067097640,16.54
1630067097656,15.64
1630067097671,18.84
1630067097687,26.31
1630067097703,36.8
1630067097718,47.81
1630067097734,56.38
1630067097750,60.16
1630067097765,58.33
1630067097781,51.66
1630067097796,41.98
1630067097812,31.27
1630067097828,21.01
1630067097843,11.9
1630067097859,4.13
1630067097875,-2.24
1630067097890,-7.12
1630067097906,-10.3
1630067097921,-11.74
1630067097937,-11.53
1630067097953,-10.09
1630067097968,-8.1
1630067097984,-6.47
1630067098000,-6.22
1630067098015,-8.29
1630067098031,-13.26
1630067098046,-21.16
1630067098062,-31.35
1630067098078,-42.68
1630067098093,-53.93
1630067098109,-64.1
1630067098125,-72.61
1630067098140,-79.17
1630067098156,-83.6
1630067098171,-85.71
1630067098187,-85.35
1630067098203,-82.57
1630067098218,-77.67
1630067098234,-71.15
1630067098250,-63.65
1630067098265,-55.83
1630067098281,-48.36
1630067098296,-41.84
1630067098312,-36.73
1630067098328,-33.28
1630067098343,-31.47
1630067098359,-31.06
1630067098375,-31.72
1630067098390,-33.11
1630067098406,-34.94
1630067098421,-36.94
1630067098437,-38.76
1630067098453,-39.91
1630067098468,-39.8
1630067098484,-37.81
1630067098500,-33.44
1630067098515,-26.49
1630067098531,-17.2
1630067098546,-6.35
1630067098562,4.94
1630067098578,15.65
1630067098593,25.47
1630067098609,35.13
1630067098625,46.22
1630067098640,60.4
1630067098656,78.41
1630067098671,99.45
1630067098687,121.18
1630067098703,140.44
1630067098718,154.27
1630067098734,160.75
1630067098750,159.36
1630067098765,150.84
1630067098781,136.76
1630067098796,119.02
1630067098812,99.53
1630067098828,79.85
1630067098843,61.05
1630067098859,43.56
1630067098875,27.24
1630067098890,11.64
1630067098906,-3.67
1630067098921,-18.78
1630067098937,-33.32
1630067098953,-46.42
1630067098968,-56.95
1630067098984,-63.76
1630067099000,-66.2
1630067099015,-64.45
1630067099031,-59.74
1630067099046,-54.16
1630067099062,-49.94
1630067099078,-48.52
1630067099093,-49.91
1630067099109,-52.66
1630067099125,-54.58
1630067099140,-53.85
1630067099156,-49.94
1630067099171,-43.62
1630067099187,-36.36
1630067099203,-29.41
1630067099218,-23.22
1630067099234,-17.66
1630067099250,-12.59
1630067099265,-8.39
1630067099281,-5.98
1630067099296,-6.11
1630067099312,-8.76
1630067099328,-12.82
1630067099343,-16.56
1630067099359,-18.35
1630067099375,-17.47
1630067099390,-14.18
1630067099406,-9.48
1630067099421,-4.53
1630067099437,-0.19
1630067099453,3.05
1630067099468,5.13
1630067099484,6.25
1630067099500,6.88
1630067099515,7.61
1630067099531,8.98
1630067099546,11.25
1630067099562,14.22
1630067099578,17.26
1630067099593,19.61
1630067099609,20.66
1630067099625,20.13
1630067099640,18.05
1630067099656,14.54
1630067099671,9.79
1630067099687,4.01
1630067099703,-2.36
1630067099718,-8.61
1630067099734,-13.76
1630067099750,-16.88
1630067099765,-17.46
1630067099781,-15.64
1630067099796,-12.24
1630067099812,-8.4
1630067099828,-5.13
1630067099843,-2.96
1630067099859,-1.8
1630067099875,-1.05
1630067099890,0.01
1630067099906,1.91
1630067099921,4.8
1630067099937,8.31
1630067099953,11.76
1630067099968,14.35
1630067099984,15.35
1630067100000,14.33
1630067100015,11.2
1630067100031,6.29
1630067100046,0.41
1630067100062,-5.22
1630067100078,-9.16
1630067100093,-10.11
1630067100109,-7.39
1630067100125,-1.24
1630067100140,7.21
1630067100156,16.23
1630067100171,24.18
1630067100187,30.02
1630067100203,33.48
1630067100218,34.93
1630067100234,34.98
1630067100250,34.09
1630067100265,32.5
1630067100281,30.26
1630067100296,27.41
1630067100312,24.0
1630067100328,20.04
1630067100343,15.43
1630067100359,9.97
1630067100375,3.57
1630067100390,-3.67
1630067100406,-11.39
1630067100421,-19.11
1630067100437,-26.39
1630067100453,-33.01
1630067100468,-38.86
1630067100484,-43.84
1630067100500,-47.8
1630067100515,-50.51
1630067100531,-51.8
1630067100546,-51.57
1630067100562,-49.79
1630067100578,-46.54
1630067100593,-41.93
1630067100609,-36.22
1630067100625,-29.92
1630067100640,-23.79
1630067100656,-18.72
1630067100671,-15.41
1630067100687,-14.13
1630067100703,-14.6
1630067100718,-16.17
1630067100734,-18.1
1630067100750,-19.88
1630067100765,-21.29
1630067100781,-22.46
1630067100796,-23.66
1630067100812,-25.15
1630067100828,-27.13
1630067100843,-29.57
1630067100859,-32.26
1630067100875,-34.72
1630067100890,-36.3
1630067100906,-36.32
1630067100921,-34.26
1630067100937,-29.94
1630067100953,-23.56
1630067100968,-15.71
1630067100984,-7.08
1630067101000,1.7
1630067101015,10.25
1630067101031,18.42
1630067101046,26.13
1630067101062,33.27
1630067101078,39.54
1630067101093,44.6
1630067101109,48.22
1630067101125,50.52
1630067101140,52.08
1630067101156,53.75
1630067101171,56.31
1630067101187,60.09
1630067101203,64.81
1630067101218,69.53
1630067101234,73.14
1630067101250,74.64
1630067101265,73.62
1630067101281,70.21
1630067101296,64.92
1630067101312,58.34
1630067101328,50.9
1630067101343,42.87
1630067101359,34.5
1630067101375,26.26
1630067101390,18.74
1630067101406,12.59
1630067101421,8.14
1630067101437,5.34
1630067101453,3.72
1630067101468,2.7
1630067101484,1.8
1630067101500,0.82
1630067101515,-0.16
1630067101531,-0.92
1630067101546,-1.21
1630067101562,-0.84
1630067101578,0.31
1630067101593,2.27
1630067101609,4.87
1630067101625,7.79
1630067101640,10.48
1630067101656,12.36
1630067101671,13.08
1630067101687,12.7
1630067101703,11.78
1630067101718,11.21
1630067101734,11.89
1630067101750,14.18
1630067101765,17.61
1630067101781,20.77
1630067101796,21.63
1630067101812,18.19
1630067101828,9.21
1630067101843,-5.25
1630067101859,-23.82
1630067101875,-44.21
1630067101890,-63.96
1630067101906,-81.07
1630067101921,-94.34
1630067101937,-103.46
1630067101953,-108.71
1630067101968,-110.69
1630067101984,-110.11
1630067102000,-107.59
1630067102015,-103.38
1630067102031,-97.11
1630067102046,-87.78
1630067102062,-74.25
1630067102078,-56.18
1630067102093,-34.73
1630067102109,-12.79
1630067102125,5.87
1630067102140,17.97
1630067102156,22.02
1630067102171,18.91
1630067102187,11.34
1630067102203,2.51
1630067102218,-5.08
1630067102234,-10.29
1630067102250,-13.12
1630067102265,-14.0
1630067102281,-13.24
1630067102296,-10.95
1630067102312,-7.39
1630067102328,-3.23
1630067102343,0.46
1630067102359,2.66
1630067102375,2.94
1630067102390,1.7
1630067102406,-0.06
1630067102421,-1.28
1630067102437,-1.51
1630067102453,-1.15
1630067102468,-1.15
1630067102484,-2.48
1630067102500,-5.41
1630067102515,-9.3
1630067102531,-12.77
1630067102546,-14.27
1630067102562,-12.69
1630067102578,-7.76
1630067102593,-0.08
1630067102609,9.21
1630067102625,18.87
1630067102640,27.95
1630067102656,35.94
1630067102671,42.71
1630067102687,48.35
1630067102703,53.03
1630067102718,56.93
1630067102734,60.22
1630067102750,63.06
1630067102765,65.48
1630067102781,67.29
1630067102796,67.96
1630067102812,66.77
1630067102828,63.16
1630067102843,57.14
1630067102859,49.35
1630067102875,40.94
1630067102890,33.03
1630067102906,26.26
1630067102921,20.57
1630067102937,15.43
1630067102953,10.27
1630067102968,4.91
1630067102984,-0.32
1630067103000,-4.73
1630067103015,-7.7
1630067103031,-8.96
1630067103046,-8.65
1630067103062,-7.18
1630067103078,-5.01
1630067103093,-2.51
1630067103109,0.08
1630067103125,2.47
1630067103140,4.23
1630067103156,4.81
1630067103171,3.7
1630067103187,0.72
1630067103203,-3.75
1630067103218,-8.67
1630067103234,-12.7
1630067103250,-14.65
1630067103265,-13.97
1630067103281,-11.05
1630067103296,-7.09
1630067103312,-3.54
1630067103328,-1.48
1630067103343,-1.23
1630067103359,-2.29
1630067103375,-3.75
1630067103390,-4.82
1630067103406,-5.19
1630067103421,-5.1
1630067103437,-5.05
1630067103453,-5.49
1630067103468,-6.51
1630067103484,-7.91
1630067103500,-9.35
1630067103515,-10.54
1630067103531,-11.36
1630067103546,-11.81
1630067103562,-11.9
1630067103578,-11.6
1630067103593,-10.88
1630067103609,-9.75
1630067103625,-8.4
1630067103640,-7.16
1630067103656,-6.35
1630067103671,-6.18
1630067103687,-6.58
1630067103703,-7.33
1630067103718,-8.21
1630067103734,-9.25
1630067103750,-10.89
1630067103765,-13.93
1630067103781,-19.26
1630067103796,-27.37
1630067103812,-37.99
1630067103828,-49.9
1630067103843,-61.09
1630067103859,-69.25
1630067103875,-72.5
1630067103890,-69.9
1630067103906,-61.78
1630067103921,-49.55
1630067103937,-35.25
1630067103953,-20.95
1630067103968,-8.16
1630067103984,2.41
1630067104000,10.79
1630067104015,17.47
1630067104031,22.9
1630067104046,27.29
1630067104062,30.49
1630067104078,32.15
1630067104093,32.02
1630067104109,30.19
1630067104125,27.25
1630067104140,24.16
1630067104156,21.82
1630067104171,20.68
1630067104187,20.42
1630067104203,20.02
1630067104218,18.27
1630067104234,14.39
1630067104250,8.6
1630067104265,2.11
1630067104281,-3.41
1630067104296,-6.51
1630067104312,-6.65
1630067104328,-4.33
1630067104343,-0.77
1630067104359,2.75
1630067104375,5.56
1630067104390,7.84
1630067104406,10.3
1630067104421,13.72
1630067104437,18.36
1630067104453,23.74
1630067104468,28.92
1630067104484,33.04
1630067104500,35.77
1630067104515,37.47
1630067104531,38.84
1630067104546,40.27
1630067104562,41.46
1630067104578,41.44
1630067104593,39.2
1630067104609,34.49
1630067104625,28.21
1630067104640,22.17
1630067104656,18.35
1630067104671,18.08
1630067104687,21.52
1630067104703,27.85
1630067104718,35.76
1630067104734,44.09
1630067104750,51.96
1630067104765,58.6
1630067104781,62.93
1630067104796,63.37
1630067104812,58.23
1630067104828,46.44
1630067104843,28.38
1630067104859,6.38
1630067104875,-15.71
1630067104890,-33.8
1630067104906,-45.12
1630067104921,-49.38
1630067104937,-48.6
1630067104953,-46.02
1630067104968,-44.38
1630067104984,-44.75
1630067105000,-46.43
1630067105015,-48.0
1630067105031,-48.56
1630067105046,-48.49
1630067105062,-49.13
1630067105078,-51.83
1630067105093,-57.02
1630067105109,-64.03
1630067105125,-71.65
1630067105140,-78.92
1630067105156,-85.51
1630067105171,-91.35
1630067105187,-95.78
1630067105203,-97.27
1630067105218,-93.74
1630067105234,-83.71
1630067105250,-67.31
1630067105265,-46.7
1630067105281,-25.46
1630067105296,-7.25
1630067105312,5.45
1630067105328,12.04
1630067105343,13.46
1630067105359,11.51
1630067105375,7.99
1630067105390,4.22
1630067105406,1.02
1630067105421,-1.15
1630067105437,-2.09
1630067105453,-1.81
1630067105468,-0.71
1630067105484,0.46
1630067105500,0.76
1630067105515,-0.61
1630067105531,-3.71
1630067105546,-7.61
1630067105562,-10.37
1630067105578,-9.74
1630067105593,-4.07
1630067105609,6.68
1630067105625,20.8
1630067105640,35.4
1630067105656,47.6
1630067105671,55.73
1630067105687,59.79
1630067105703,61.02
1630067105718,60.97
1630067105734,60.59
1630067105750,59.9
1630067105765,58.36
1630067105781,55.48
1630067105796,51.25
1630067105812,46.19
1630067105828,40.91
1630067105843,35.71
1630067105859,30.44
1630067105875,24.77
1630067105890,18.5
1630067105906,11.87
1630067105921,5.53
1630067105937,0.26
1630067105953,-3.42
1630067105968,-5.5
1630067105984,-6.55
1630067106000,-7.5
1630067106015,-9.3
1630067106031,-12.52
1630067106046,-17.19
1630067106062,-22.87
1630067106078,-28.82
1630067106093,-34.18
1630067106109,-38.11
1630067106125,-39.91
1630067106140,-39.07
1630067106156,-35.42
1630067106171,-29.2
1630067106187,-21.09
1630067106203,-12.12
1630067106218,-3.45
1630067106234,3.89
1630067106250,9.13
1630067106265,11.95
1630067106281,12.47
1630067106296,11.23
1630067106312,8.98
1630067106328,6.59
1630067106343,4.8
1630067106359,4.04
1630067106375,4.43
1630067106390,5.73
1630067106406,7.55
1630067106421,9.49
1630067106437,11.18
1630067106453,12.35
1630067106468,12.73
1630067106484,12.15
1630067106500,10.64
1630067106515,8.55
1630067106531,6.52
1630067106546,5.37
1630067106562,5.69
1630067106578,7.57
1630067106593,10.44
1630067106609,13.29
1630067106625,15.04
1630067106640,15.12
1630067106656,13.67
1630067106671,11.41
1630067106687,9.34
1630067106703,8.18
1630067106718,8.16
1630067106734,9.03
1630067106750,10.29
1630067106765,11.4
1630067106781,11.95
1630067106796,11.61
1630067106812,10.18
1630067106828,7.58
1630067106843,4.02
1630067106859,0.07
1630067106875,-3.46
1630067106890,-5.78
1630067106906,-6.43
1630067106921,-5.51
1630067106937,-3.58
1630067106953,-1.4
1630067106968,0.43
1630067106984,1.67
1630067107000,2.49
1630067107015,3.26
1630067107031,4.34
1630067107046,5.9
1630067107062,7.97
1630067107078,10.41
1630067107093,13.07
1630067107109,15.8
1630067107125,18.35
1630067107140,20.38
1630067107156,21.43
1630067107171,21.04
1630067107187,18.9
1630067107203,15.06
1630067107218,10.06
1630067107234,4.84
1630067107250,0.52
1630067107265,-1.95
1630067107281,-2.12
1630067107296,-0.19
1630067107312,3.06
1630067107328,6.64
1630067107343,9.66
1630067107359,11.54
1630067107375,12.13
1630067107390,11.54
1630067107406,9.99
1630067107421,7.77
1630067107437,5.17
1630067107453,2.52
1630067107468,0.15
1630067107484,-1.67
1630067107500,-2.83
1630067107515,-3.45
1630067107531,-3.85
1630067107546,-4.42
1630067107562,-5.5
1630067107578,-7.24
1630067107593,-9.53
1630067107609,-12.05
1630067107625,-14.42
1630067107640,-16.3
1630067107656,-17.48
1630067107671,-17.9
1630067107687,-17.61
1630067107703,-16.81
1630067107718,-15.68
1630067107734,-14.42
1630067107750,-13.26
1630067107765,-12.39
1630067107781,-11.98
1630067107796,-12.11
1630067107812,-12.74
1630067107828,-13.66
1630067107843,-14.54
1630067107859,-14.99
1630067107875,-14.66
1630067107890,-13.32
1630067107906,-10.95
1630067107921,-7.72
1630067107937,-3.98
1630067107953,-0.15
1630067107968,3.35
1630067107984,6.18
1630067108000,8.16
1630067108015,9.25
1630067108031,9.52
1630067108046,9.15
1630067108062,8.38
1630067108078,7.56
1630067108093,7.1
1630067108109,7.4
1630067108125,8.7
1630067108140,10.97
1630067108156,13.8
1630067108171,16.56
1630067108187,18.68
1630067108203,19.82
1630067108218,20.06
1630067108234,19.71
1630067108250,19.17
1630067108265,18.65
1630067108281,18.15
1630067108296,17.53
1630067108312,16.72
1630067108328,15.84
1630067108343,15.11
1630067108359,14.72
1630067108375,14.64
1630067108390,14.52
1630067108406,13.92
1630067108421,12.44
1630067108437,10.01
1630067108453,6.84
1630067108468,3.41
1630067108484,0.17
1630067108500,-2.59
1630067108515,-4.85
1630067108531,-6.77
1630067108546,-8.54
1630067108562,-10.22
1630067108578,-11.66
1630067108593,-12.56
1630067108609,-12.66
1630067108625,-11.89
1630067108640,-10.5
1630067108656,-8.94
1630067108671,-7.74
1630067108687,-7.14
1630067108703,-7.09
1630067108718,-7.15
1630067108734,-6.76
1630067108750,-5.51
1630067108765,-3.33
1630067108781,-0.51
1630067108796,2.42
1630067108812,4.92
1630067108828,6.69
1630067108843,7.71
1630067108859,8.19
1630067108875,8.37
1630067108890,8.42
1630067108906,8.29
1630067108921,7.82
1630067108937,6.84
1630067108953,5.22
1630067108968,2.98
1630067108984,0.31
1630067109000,-2.51
1630067109015,-5.15
1630067109031,-7.22
1630067109046,-8.43
1630067109062,-8.57
1630067109078,-7.53
1630067109093,-5.42
1630067109109,-2.55
1630067109125,0.53
1630067109140,3.16
1630067109156,4.7
1630067109171,4.76
1630067109187,3.33
1630067109203,0.73
1630067109218,-2.5
1630067109234,-5.8
1630067109250,-8.83
1630067109265,-11.48
1630067109281,-13.8
1630067109296,-15.91
1630067109312,-17.92
1630067109328,-19.9
1630067109343,-21.95
1630067109359,-24.21
1630067109375,-26.82
1630067109390,-29.86
1630067109406,-33.25
1630067109421,-36.73
1630067109437,-40.01
1630067109453,-42.9
1630067109468,-45.38
1630067109484,-47.58
1630067109500,-49.67
1630067109515,-51.71
1630067109531,-53.57
1630067109546,-54.87
1630067109562,-55.12
1630067109578,-53.87
1630067109593,-50.89
1630067109609,-46.24
1630067109625,-40.42
1630067109640,-34.11
1630067109656,-27.99
1630067109671,-22.45
1630067109687,-17.42
1630067109703,-12.48
1630067109718,-7.13
1630067109734,-1.08
1630067109750,5.61
1630067109765,12.67
1630067109781,19.92
1630067109796,27.39
1630067109812,35.37
1630067109828,44.01
1630067109843,53.06
1630067109859,61.73
1630067109875,69.0
1630067109890,74.02
1630067109906,76.53
1630067109921,76.91
1630067109937,75.83
1630067109953,73.85
1630067109968,71.13
1630067109984,67.51
1630067110000,62.86
1630067110015,57.37
1630067110031,51.68
1630067110046,46.59
1630067110062,42.71
1630067110078,40.15
1630067110093,38.41
1630067110109,36.72
1630067110125,34.32
1630067110140,30.87
1630067110156,26.49
1630067110171,21.65
1630067110187,16.87
1630067110203,12.47
1630067110218,8.53
1630067110234,4.92
1630067110250,1.55
1630067110265,-1.51
1630067110281,-4.05
1630067110296,-5.79
1630067110312,-6.62
1630067110328,-6.69
1630067110343,-6.42
1630067110359,-6.27
1630067110375,-6.62
1630067110390,-7.6
1630067110406,-9.07
1630067110421,-10.74
1630067110437,-12.37
1630067110453,-13.84
1630067110468,-15.22
1630067110484,-16.65
1630067110500,-18.17
1630067110515,-19.61
1630067110531,-20.57
1630067110546,-20.56
1630067110562,-19.29
1630067110578,-16.79
1630067110593,-13.48
1630067110609,-9.97
1630067110625,-6.86
1630067110640,-4.51
1630067110656,-2.94
1630067110671,-1.94
1630067110687,-1.19
1630067110703,-0.48
1630067110718,0.22
1630067110734,0.76
1630067110750,0.86
1630067110765,0.33
1630067110781,-0.79
1630067110796,-2.16
1630067110812,-3.17
1630067110828,-3.22
1630067110843,-1.99
1630067110859,0.43
1630067110875,3.58
1630067110890,6.87
1630067110906,9.91
1630067110921,12.6
1630067110937,15.17
1630067110953,17.87
1630067110968,20.82
1630067110984,23.9
1630067111000,26.83
1630067111015,29.28
1630067111031,30.94
1630067111046,31.54
1630067111062,30.79
1630067111078,28.48
1630067111093,24.62
1630067111109,19.59
1630067111125,14.08
1630067111140,8.95
1630067111156,4.92
1630067111171,2.38
1630067111187,1.39
1630067111203,1.73
1630067111218,3.18
1630067111234,5.56
1630067111250,8.67
1630067111265,12.15
1630067111281,15.5
1630067111296,18.11
1630067111312,19.58
1630067111328,19.88
1630067111343,19.41
1630067111359,18.81
1630067111375,18.66
1630067111390,19.23
1630067111406,20.25
1630067111421,21.04
1630067111437,20.61
1630067111453,18.04
1630067111468,12.8
1630067111484,4.94
1630067111500,-4.77
1630067111515,-15.0
1630067111531,-24.18
1630067111546,-30.92
1630067111562,-34.3
1630067111578,-34.22
1630067111593,-31.35
1630067111609,-26.97
1630067111625,-22.62
1630067111640,-19.64
1630067111656,-18.81
1630067111671,-20.16
1630067111687,-23.11
1630067111703,-26.88
1630067111718,-30.79
1630067111734,-34.54
1630067111750,-38.11
1630067111765,-41.44
1630067111781,-44.21
1630067111796,-45.86
1630067111812,-45.88
1630067111828,-44.1
1630067111843,-40.94
1630067111859,-37.18
1630067111875,-33.65
1630067111890,-30.84
1630067111906,-28.72
1630067111921,-26.92
1630067111937,-25.01
1630067111953,-22.72
1630067111968,-20.09
1630067111984,-17.38
1630067112000,-14.96
1630067112015,-13.19
1630067112031,-12.3
1630067112046,-12.21
1630067112062,-12.51
1630067112078,-12.55
1630067112093,-11.64
1630067112109,-9.48
1630067112125,-6.26
1630067112140,-2.69
1630067112156,0.36
1630067112171,2.3
1630067112187,3.09
1630067112203,3.19
1630067112218,3.23
1630067112234,3.55
1630067112250,4.05
1630067112265,4.22
1630067112281,3.58
1630067112296,1.98
1630067112312,-0.3
1630067112328,-2.73
1630067112343,-4.84
1630067112359,-6.47
1630067112375,-7.73
1630067112390,-8.83
1630067112406,-9.88
1630067112421,-10.83
1630067112437,-11.56
1630067112453,-11.94
1630067112468,-11.89
1630067112484,-11.26
1630067112500,-9.77
1630067112515,-7.07
1630067112531,-3.05
1630067112546,2.04
1630067112562,7.46
1630067112578,12.33
1630067112593,15.98
1630067112609,18.27
1630067112625,19.57
1630067112640,20.44
1630067112656,21.27
1630067112671,22.06
1630067112687,22.52
1630067112703,22.41
1630067112718,21.77
1630067112734,21.01
1630067112750,20.73
1630067112765,21.39
1630067112781,23.14
1630067112796,25.78
1630067112812,28.91
1630067112828,32.11
1630067112843,35.09
1630067112859,37.67
1630067112875,39.75
1630067112890,41.2
1630067112906,41.89
1630067112921,41.62
1630067112937,40.21
1630067112953,37.59
1630067112968,33.85
1630067112984,29.21
1630067113000,24.05
1630067113015,18.71
1630067113031,13.53
1630067113046,8.68
1630067113062,4.25
1630067113078,0.22
1630067113093,-3.47
1630067113109,-6.85
1630067113125,-9.95
1630067113140,-12.78
1630067113156,-15.32
1630067113171,-17.55
1630067113187,-19.46
1630067113203,-21.01
1630067113218,-22.11
1630067113234,-22.69
1630067113250,-22.72
1630067113265,-22.26
1630067113281,-21.46
1630067113296,-20.56
1630067113312,-19.76
1630067113328,-19.17
1630067113343,-18.73
1630067113359,-18.23
1630067113375,-17.45
1630067113390,-16.21
1630067113406,-14.45
1630067113421,-12.22
1630067113437,-9.62
1630067113453,-6.77
1630067113468,-3.82
1630067113484,-0.94
1630067113500,1.75
1630067113515,4.12
1630067113531,6.12
1630067113546,7.71
1630067113562,8.8
1630067113578,9.3
1630067113593,9.13
1630067113609,8.3
1630067113625,6.96
1630067113640,5.38
1630067113656,3.87
1630067113671,2.61
1630067113687,1.64
1630067113703,0.82
1630067113718,0.07
1630067113734,-0.68
1630067113750,-1.34
1630067113765,-1.77
1630067113781,-1.86
1630067113796,-1.66
1630067113812,-1.35
1630067113828,-1.21
1630067113843,-1.49
1630067113859,-2.24
1630067113875,-3.38
1630067113890,-4.68
1630067113906,-5.93
1630067113921,-7.05
1630067113937,-8.13
1630067113953,-9.35
1630067113968,-10.8
1630067113984,-12.47
1630067114000,-14.12
1630067114015,-15.48
1630067114031,-16.42
1630067114046,-17.0
1630067114062,-17.48
1630067114078,-18.19
1630067114093,-19.35
1630067114109,-21.0
1630067114125,-23.05
1630067114140,-25.23
1630067114156,-27.26
1630067114171,-28.76
1630067114187,-29.39
1630067114203,-28.84
1630067114218,-26.99
1630067114234,-23.94
1630067114250,-20.03
1630067114265,-15.77
1630067114281,-11.62
1630067114296,-7.94
1630067114312,-4.95
1630067114328,-2.74
1630067114343,-1.32
1630067114359,-0.66
1630067114375,-0.64
1630067114390,-1.05
1630067114406,-1.67
1630067114421,-2.29
1630067114437,-2.81
1630067114453,-3.27
1630067114468,-3.71
1630067114484,-4.12
1630067114500,-4.47
1630067114515,-4.62
1630067114531,-4.46
1630067114546,-3.84
1630067114562,-2.6
1630067114578,-0.5
1630067114593,2.62
1630067114609,6.72
1630067114625,11.44
1630067114640,16.13
1630067114656,20.02
1630067114671,22.49
1630067114687,23.28
1630067114703,22.51
1630067114718,20.59
1630067114734,18.01
1630067114750,15.12
1630067114765,12.05
1630067114781,8.89
1630067114796,5.69
1630067114812,2.63
1630067114828,-0.05
1630067114843,-2.18
1630067114859,-3.67
1630067114875,-4.63
1630067114890,-5.25
1630067114906,-5.8
1630067114921,-6.47
1630067114937,-7.35
1630067114953,-8.4
1630067114968,-9.55
1630067114984,-10.68
1630067115000,-11.69
1630067115015,-12.43
1630067115031,-12.68
1630067115046,-12.27
1630067115062,-11.09
1630067115078,-9.19
1630067115093,-6.78
1630067115109,-4.17
1630067115125,-1.67
1630067115140,0.48
1630067115156,2.13
1630067115171,3.26
1630067115187,3.91
1630067115203,4.12
1630067115218,3.99
1630067115234,3.63
1630067115250,3.18
1630067115265,2.77
1630067115281,2.49
1630067115296,2.35
1630067115312,2.29
1630067115328,2.29
1630067115343,2.32
1630067115359,2.46
1630067115375,2.8
1630067115390,3.45
1630067115406,4.37
1630067115421,5.43
1630067115437,6.36
1630067115453,6.91
1630067115468,6.87
1630067115484,6.17
1630067115500,4.88
1630067115515,3.15
1630067115531,1.25
1630067115546,-0.56
1630067115562,-2.05
1630067115578,-3.06
1630067115593,-3.58
1630067115609,-3.73
1630067115625,-3.74
1630067115640,-3.86
1630067115656,-4.31
1630067115671,-5.09
1630067115687,-6.11
1630067115703,-7.14
1630067115718,-8.04
1630067115734,-8.74
1630067115750,-9.33
1630067115765,-9.96
1630067115781,-10.74
1630067115796,-11.66
1630067115812,-12.53
1630067115828,-13.05
1630067115843,-12.93
1630067115859,-11.95
1630067115875,-10.11
1630067115890,-7.49
1630067115906,-4.33
1630067115921,-0.88
1630067115937,2.6
1630067115953,5.93
1630067115968,9.01
1630067115984,11.83
1630067116000,14.42
1630067116015,16.81
1630067116031,19.0
1630067116046,20.97
1630067116062,22.73
1630067116078,24.3
1630067116093,25.8
1630067116109,27.37
1630067116125,29.14
1630067116140,31.22
1630067116156,33.65
1630067116171,36.47
1630067116187,39.7
1630067116203,43.36
1630067116218,47.38
1630067116234,51.65
1630067116250,56.03
1630067116265,60.42
1630067116281,64.89
1630067116296,69.62
1630067116312,74.94
1630067116328,81.13
1630067116343,88.26
1630067116359,96.15
1630067116375,104.35
1630067116390,112.27
1630067116406,119.41
1630067116421,125.52
1630067116437,130.76
1630067116453,135.75
1630067116468,141.47
1630067116484,148.75
1630067116500,157.63
1630067116515,166.69
1630067116531,172.99
1630067116546,172.83
1630067116562,163.2
1630067116578,143.16
1630067116593,114.56
1630067116609,81.38
1630067116625,48.02
1630067116640,17.46
1630067116656,-9.79
1630067116671,-35.3
1630067116687,-61.32
1630067116703,-89.29
1630067116718,-119.15
1630067116734,-149.69
1630067116750,-179.37
1630067116765,-206.91
1630067116781,-231.1
1630067116796,-250.46
1630067116812,-262.98
1630067116828,-266.63
1630067116843,-260.43
1630067116859,-245.18
1630067116875,-223.55
1630067116890,-199.18
1630067116906,-175.29
1630067116921,-153.62
1630067116937,-134.3
1630067116953,-116.53
1630067116968,-99.79
1630067116984,-84.63
1630067117000,-72.53
1630067117015,-65.1
1630067117031,-62.96
1630067117046,-65.08
1630067117062,-69.08
1630067117078,-72.38
1630067117093,-73.46
1630067117109,-72.62
1630067117125,-71.67
1630067117140,-72.77
1630067117156,-77.15
1630067117171,-84.37
1630067117187,-92.56
1630067117203,-99.4
1630067117218,-103.14
1630067117234,-103.05
1630067117250,-99.48
1630067117265,-93.32
1630067117281,-85.51
1630067117296,-76.88
1630067117312,-67.98
1630067117328,-59.09
1630067117343,-50.24
1630067117359,-41.36
1630067117375,-32.43
1630067117390,-23.89
1630067117406,-16.76
1630067117421,-12.49
1630067117437,-12.35
1630067117453,-16.67
1630067117468,-24.39
1630067117484,-33.19
1630067117500,-40.3
1630067117515,-43.62
1630067117531,-42.55
1630067117546,-38.04
1630067117562,-31.96
1630067117578,-26.2
1630067117593,-21.79
1630067117609,-18.53
1630067117625,-15.36
1630067117640,-10.74
1630067117656,-3.28
1630067117671,7.86
1630067117687,22.87
1630067117703,41.28
1630067117718,61.99
1630067117734,83.48
1630067117750,104.03
1630067117765,122.09
1630067117781,136.68
1630067117796,147.38
1630067117812,154.23
1630067117828,157.44
1630067117843,157.16
1630067117859,153.43
1630067117875,146.44
1630067117890,136.72
1630067117906,125.14
1630067117921,112.83
1630067117937,100.95
1630067117953,90.45
1630067117968,81.89
1630067117984,75.36
1630067118000,70.31
1630067118015,65.67
1630067118031,59.96
1630067118046,51.74
1630067118062,40.17
1630067118078,25.47
1630067118093,9.05
1630067118109,-6.7
1630067118125,-19.15
1630067118140,-26.34
1630067118156,-27.65
1630067118171,-24.06
1630067118187,-17.76
1630067118203,-11.37
1630067118218,-7.05
1630067118234,-5.79
1630067118250,-7.28
1630067118265,-10.23
1630067118281,-13.0
1630067118296,-14.33
1630067118312,-13.71
1630067118328,-11.39
1630067118343,-8.11
1630067118359,-4.71
1630067118375,-1.96
1630067118390,-0.5
1630067118406,-0.84
1630067118421,-3.35
1630067118437,-8.0
1630067118453,-14.17
1630067118468,-20.63
1630067118484,-25.88
1630067118500,-28.76
1630067118515,-28.79
1630067118531,-26.36
1630067118546,-22.35
1630067118562,-17.74
1630067118578,-13.18
1630067118593,-8.93
1630067118609,-5.03
1630067118625,-1.4
1630067118640,1.98
1630067118656,5.21
1630067118671,8.48
1630067118687,12.11
1630067118703,16.31
1630067118718,21.06
1630067118734,26.08
1630067118750,30.84
1630067118765,34.87
1630067118781,37.8
1630067118796,39.5
1630067118812,39.96
1630067118828,39.25
1630067118843,37.48
1630067118859,34.89
1630067118875,31.95
1630067118890,29.37
1630067118906,28.02
1630067118921,28.6
1630067118937,31.42
1630067118953,36.2
1630067118968,42.11
1630067118984,47.94
1630067119000,52.5
1630067119015,54.93
1630067119031,54.88
1630067119046,52.57
1630067119062,48.73
1630067119078,44.3
1630067119093,40.28
1630067119109,37.47
1630067119125,36.34
1630067119140,36.89
1630067119156,38.59
1630067119171,40.54
1630067119187,41.72
1630067119203,41.38
1630067119218,39.32
1630067119234,36.07
1630067119250,32.63
1630067119265,30.12
1630067119281,29.19
1630067119296,29.72
1630067119312,30.88
1630067119328,31.61
1630067119343,31.25
1630067119359,29.86
1630067119375,28.1
1630067119390,26.71
1630067119406,25.94
1630067119421,25.29
1630067119437,23.75
1630067119453,20.32
1630067119468,14.46
1630067119484,6.13
1630067119500,-4.41
1630067119515,-16.7
1630067119531,-30.06
1630067119546,-43.35
1630067119562,-54.84
1630067119578,-62.54
1630067119593,-64.88
1630067119609,-61.43
1630067119625,-53.22
1630067119640,-42.39
1630067119656,-31.32
1630067119671,-21.83
1630067119687,-14.66
1630067119703,-9.66
1630067119718,-6.27
1630067119734,-4.01
1630067119750,-2.64
1630067119765,-2.1
1630067119781,-2.29
1630067119796,-2.91
1630067119812,-3.52
1630067119828,-3.74
1630067119843,-3.33
1630067119859,-2.34
1630067119875,-1.04
1630067119890,0.18
1630067119906,0.98
1630067119921,1.12
1630067119937,0.58
1630067119953,-0.5
1630067119968,-1.87
1630067119984,-3.3
1630067120000,-4.7
1630067120015,-6.12
1630067120031,-7.73
1630067120046,-9.64
1630067120062,-11.74
1630067120078,-13.67
1630067120093,-14.95
1630067120109,-15.21
1630067120125,-14.38
1630067120140,-12.78
1630067120156,-10.96
1630067120171,-9.42
1630067120187,-8.45
1630067120203,-8.0
1630067120218,-7.72
1630067120234,-7.27
1630067120250,-6.38
1630067120265,-5.08
1630067120281,-3.8
1630067120296,-3.25
1630067120312,-4.4
1630067120328,-8.14
1630067120343,-15.02
1630067120359,-24.86
1630067120375,-36.77
1630067120390,-49.22
1630067120406,-60.4
1630067120421,-68.61
1630067120437,-72.57
1630067120453,-71.65
1630067120468,-65.99
1630067120484,-56.45
1630067120500,-44.57
1630067120515,-32.27
1630067120531,-21.39
1630067120546,-13.26
1630067120562,-8.36
1630067120578,-6.4
1630067120593,-6.63
1630067120609,-8.27
1630067120625,-10.73
1630067120640,-13.55
1630067120656,-16.21
1630067120671,-18.02
1630067120687,-18.32
1630067120703,-16.87
1630067120718,-14.04
1630067120734,-10.64
1630067120750,-7.39
1630067120765,-4.33
1630067120781,-0.64
1630067120796,4.99
1630067120812,13.57
1630067120828,25.12
1630067120843,38.48
1630067120859,51.73
1630067120875,63.0
1630067120890,71.07
1630067120906,75.65
1630067120921,77.03
1630067120937,75.67
1630067120953,71.93
1630067120968,66.08
1630067120984,58.53
1630067121000,50.1
1630067121015,41.9
1630067121031,35.07
1630067121046,30.38
1630067121062,27.97
1630067121078,27.44
1630067121093,28.1
1630067121109,29.34
1630067121125,30.88
1630067121140,32.83
1630067121156,35.5
1630067121171,39.11
1630067121187,43.58
1630067121203,48.43
1630067121218,52.86
1630067121234,56.05
1630067121250,57.49
1630067121265,57.13
1630067121281,55.39
1630067121296,52.84
1630067121312,49.91
1630067121328,46.54
1630067121343,42.28
1630067121359,36.49
1630067121375,28.69
1630067121390,18.84
1630067121406,7.36
1630067121421,-5.01
1630067121437,-17.49
1630067121453,-29.42
1630067121468,-40.37
1630067121484,-50.1
1630067121500,-58.45
1630067121515,-65.23
1630067121531,-70.32
1630067121546,-73.71
1630067121562,-75.66
1630067121578,-76.65
1630067121593,-77.27
1630067121609,-78.04
1630067121625,-79.1
1630067121640,-80.25
1630067121656,-80.97
1630067121671,-80.69
1630067121687,-79.06
1630067121703,-75.99
1630067121718,-71.62
1630067121734,-66.17
1630067121750,-59.86
1630067121765,-52.92
1630067121781,-45.73
1630067121796,-38.81
1630067121812,-32.71
1630067121828,-27.79
1630067121843,-24.07
1630067121859,-21.19
1630067121875,-18.68
1630067121890,-16.22
1630067121906,-13.78
1630067121921,-11.58
1630067121937,-9.9
1630067121953,-8.82
1630067121968,-8.06
1630067121984,-7.13
1630067122000,-5.52
1630067122015,-3.03
1630067122031,0.15
1630067122046,3.43
1630067122062,6.01
1630067122078,7.21
1630067122093,6.76
1630067122109,4.93
1630067122125,2.43
1630067122140,0.1
1630067122156,-1.4
1630067122171,-1.87
1630067122187,-1.52
1630067122203,-0.79
1630067122218,-0.0
1630067122234,0.84
1630067122250,2.04
1630067122265,4.0
1630067122281,6.86
1630067122296,10.43
1630067122312,14.15
1630067122328,17.35
1630067122343,19.45
1630067122359,20.18
1630067122375,19.68
1630067122390,18.37
1630067122406,16.8
1630067122421,15.45
1630067122437,14.55
1630067122453,14.0
1630067122468,13.45
1630067122484,12.5
1630067122500,10.94
1630067122515,8.82
1630067122531,6.51
1630067122546,4.54
1630067122562,3.56
1630067122578,4.29
1630067122593,7.41
1630067122609,13.42
1630067122625,22.37
1630067122640,33.59
1630067122656,45.66
1630067122671,56.74
1630067122687,65.19
1630067122703,70.09
1630067122718,71.43
1630067122734,69.88
1630067122750,66.15
1630067122765,60.61
1630067122781,53.25
1630067122796,44.07
1630067122812,33.66
1630067122828,23.33
1630067122843,14.81
1630067122859,9.55
1630067122875,7.98
1630067122890,9.3
1630067122906,11.87
1630067122921,13.87
1630067122937,14.12
1630067122953,12.35
1630067122968,9.21
1630067122984,5.77
1630067123000,2.99
1630067123015,1.34
1630067123031,0.76
1630067123046,0.7
1630067123062,0.47
1630067123078,-0.51
1630067123093,-2.46
1630067123109,-5.19
1630067123125,-8.13
1630067123140,-10.6
1630067123156,-12.26
1630067123171,-13.37
1630067123187,-14.9
1630067123203,-18.17
1630067123218,-24.22
1630067123234,-33.15
1630067123250,-43.84
1630067123265,-54.07
1630067123281,-61.38
1630067123296,-63.98
1630067123312,-61.44
1630067123328,-54.69
1630067123343,-45.56
1630067123359,-35.85
1630067123375,-26.8
1630067123390,-18.9
1630067123406,-12.19
1630067123421,-6.67
1630067123437,-2.62
1630067123453,-0.44
1630067123468,-0.37
1630067123484,-2.17
1630067123500,-5.16
1630067123515,-8.37
1630067123531,-10.95
1630067123546,-12.42
1630067123562,-12.71
1630067123578,-12.13
1630067123593,-11.09
1630067123609,-9.94
1630067123625,-8.82
1630067123640,-7.69
1630067123656,-6.32
1630067123671,-4.49
1630067123687,-2.08
1630067123703,0.78
1630067123718,3.74
1630067123734,6.41
1630067123750,8.42
1630067123765,9.6
1630067123781,9.93
1630067123796,9.54
1630067123812,8.62
1630067123828,7.35
1630067123843,5.93
1630067123859,4.52
1630067123875,3.31
1630067123890,2.49
1630067123906,2.18
1630067123921,2.41
1630067123937,3.13
1630067123953,4.16
1630067123968,5.31
1630067123984,6.34
1630067124000,7.07
1630067124015,7.34
1630067124031,7.12
1630067124046,6.38
1630067124062,5.19
1630067124078,3.65
1630067124093,1.92
1630067124109,0.28
1630067124125,-1.0
1630067124140,-1.73
1630067124156,-1.9
1630067124171,-1.7
1630067124187,-1.47
1630067124203,-1.54
1630067124218,-2.12
1630067124234,-3.2
1630067124250,-4.59
1630067124265,-6.02
1630067124281,-7.22
1630067124296,-8.04
1630067124312,-8.45
1630067124328,-8.57
1630067124343,-8.59
1630067124359,-8.7
1630067124375,-9.06
1630067124390,-9.67
1630067124406,-10.39
1630067124421,-10.9
1630067124437,-10.88
1630067124453,-10.07
1630067124468,-8.46
1630067124484,-6.25
1630067124500,-3.77
1630067124515,-1.38
1630067124531,0.66
1630067124546,2.28
1630067124562,3.55
1630067124578,4.61
1630067124593,5.59
1630067124609,6.57
1630067124625,7.6
1630067124640,8.65
1630067124656,9.61
1630067124671,10.44
1630067124687,11.12
1630067124703,11.77
1630067124718,12.57
1630067124734,13.73
1630067124750,15.39
1630067124765,17.53
1630067124781,19.98
1630067124796,22.36
1630067124812,24.33
1630067124828,25.59
1630067124843,26.11
1630067124859,26.15
1630067124875,26.3
1630067124890,27.23
1630067124906,29.47
1630067124921,33.11
1630067124937,37.63
1630067124953,42.12
1630067124968,45.56
1630067124984,47.32
1630067125000,47.32
1630067125015,46.07
1630067125031,44.26
1630067125046,42.39
1630067125062,40.58
1630067125078,38.69
1630067125093,36.7
1630067125109,34.85
1630067125125,33.74
1630067125140,33.98
1630067125156,35.79
1630067125171,38.7
1630067125187,41.77
1630067125203,43.99
1630067125218,44.71
1630067125234,43.87
1630067125250,41.92
1630067125265,39.77
1630067125281,38.66
1630067125296,40.17
1630067125312,45.98
1630067125328,57.15
1630067125343,73.19
1630067125359,91.22
1630067125375,106.11
1630067125390,111.74
1630067125406,102.97
1630067125421,77.63
1630067125437,37.34
1630067125453,-12.98
1630067125468,-66.77
1630067125484,-117.64
1630067125500,-160.81
1630067125515,-193.63
1630067125531,-215.52
1630067125546,-227.62
1630067125562,-232.35
1630067125578,-232.78
1630067125593,-231.93
1630067125609,-231.95
1630067125625,-233.68
1630067125640,-236.52
1630067125656,-239.03
1630067125671,-239.65
1630067125687,-237.32
1630067125703,-231.69
1630067125718,-222.92
1630067125734,-211.37
1630067125750,-197.22
1630067125765,-180.39
1630067125781,-160.62
1630067125796,-137.74
1630067125812,-111.9
1630067125828,-83.8
1630067125843,-54.6
1630067125859,-25.92
1630067125875,0.41
1630067125890,22.73
1630067125906,39.85
1630067125921,51.38
1630067125937,57.75
1630067125953,60.02
1630067125968,59.31
1630067125984,56.4
1630067126000,51.53
1630067126015,44.56
1630067126031,35.49
1630067126046,24.83
1630067126062,13.78
1630067126078,3.79
1630067126093,-4.02
1630067126109,-9.34
1630067126125,-12.7
1630067126140,-14.96
1630067126156,-16.54
1630067126171,-16.93
1630067126187,-14.78
1630067126203,-8.4
1630067126218,3.44
1630067126234,20.9
1630067126250,42.92
1630067126265,67.54
1630067126281,92.46
1630067126296,115.61
1630067126312,135.52
1630067126328,151.35
1630067126343,162.69
1630067126359,169.35
1630067126375,171.24
1630067126390,168.42
1630067126406,161.3
1630067126421,150.82
1630067126437,138.38
1630067126453,125.62
1630067126468,114.03
1630067126484,104.58
1630067126500,97.53
1630067126515,92.5
1630067126531,88.71
1630067126546,85.32
1630067126562,81.76
1630067126578,77.83
1630067126593,73.68
1630067126609,69.58
1630067126625,65.77
1630067126640,62.27
1630067126656,58.88
1630067126671,55.33
1630067126687,51.39
1630067126703,47.01
1630067126718,42.45
1630067126734,38.14
1630067126750,34.6
1630067126765,32.26
1630067126781,31.35
1630067126796,31.8
1630067126812,33.28
1630067126828,35.27
1630067126843,37.23
1630067126859,38.6
1630067126875,38.95
1630067126890,38.02
1630067126906,35.78
1630067126921,32.43
1630067126937,28.33
1630067126953,23.85
1630067126968,19.2
1630067126984,14.3
1630067127000,8.81
1630067127015,2.35
1630067127031,-5.19
1630067127046,-13.52
1630067127062,-21.91
1630067127078,-29.51
1630067127093,-35.6
1630067127109,-39.9
1630067127125,-42.48
1630067127140,-43.73
1630067127156,-44.12
1630067127171,-44.07
1630067127187,-43.89
1630067127203,-43.81
1630067127218,-43.87
1630067127234,-44.03
1630067127250,-44.13
1630067127265,-43.96
1630067127281,-43.37
1630067127296,-42.37
1630067127312,-41.04
1630067127328,-39.47
1630067127343,-37.59
1630067127359,-35.2
1630067127375,-32.1
1630067127390,-28.21
1630067127406,-23.7
1630067127421,-18.96
1630067127437,-14.39
1630067127453,-10.27
1630067127468,-6.67
1630067127484,-3.54
1630067127500,-0.85
1630067127515,1.36
1630067127531,2.96
1630067127546,3.88
1630067127562,4.14
1630067127578,3.93
1630067127593,3.46
1630067127609,2.86
1630067127625,2.13
1630067127640,1.13
1630067127656,-0.28
1630067127671,-2.14
1630067127687,-4.33
1630067127703,-6.62
1630067127718,-8.78
1630067127734,-10.68
1630067127750,-12.35
1630067127765,-13.97
1630067127781,-15.8
1630067127796,-18.06
1630067127812,-20.82
1630067127828,-23.97
1630067127843,-27.16
1630067127859,-29.92
1630067127875,-31.8
1630067127890,-32.41
1630067127906,-31.44
1630067127921,-28.84
1630067127937,-24.68
1630067127953,-19.32
1630067127968,-13.29
1630067127984,-7.31
1630067128000,-2.16
1630067128015,1.55
1630067128031,3.58
1630067128046,4.2
1630067128062,4.12
1630067128078,4.29
1630067128093,5.49
1630067128109,8.05
1630067128125,11.71
1630067128140,15.74
1630067128156,19.3
1630067128171,21.82
1630067128187,23.09
1630067128203,23.34
1630067128218,22.88
1630067128234,21.85
1630067128250,20.17
1630067128265,17.53
1630067128281,13.73
1630067128296,8.84
1630067128312,3.28
1630067128328,-2.31
1630067128343,-7.42
1630067128359,-11.77
1630067128375,-15.52
1630067128390,-19.0
1630067128406,-22.49
1630067128421,-26.08
1630067128437,-29.58
1630067128453,-32.68
1630067128468,-35.16
1630067128484,-36.95
1630067128500,-38.17
1630067128515,-39.1
1630067128531,-40.03
1630067128546,-41.28
1630067128562,-43.27
1630067128578,-46.51
1630067128593,-51.51
1630067128609,-58.4
1630067128625,-66.73
1630067128640,-75.31
1630067128656,-82.45
1630067128671,-86.42
1630067128687,-86.04
1630067128703,-81.09
1630067128718,-72.37
1630067128734,-61.45
1630067128750,-50.08
1630067128765,-39.75
1630067128781,-31.32
1630067128796,-25.07
1630067128812,-20.82
1630067128828,-18.14
1630067128843,-16.58
1630067128859,-15.69
1630067128875,-15.11
1630067128890,-14.49
1630067128906,-13.5
1630067128921,-11.81
1630067128937,-9.18
1630067128953,-5.53
1630067128968,-0.96
1630067128984,4.23
1630067129000,9.67
1630067129015,15.1
1630067129031,20.37
1630067129046,25.37
1630067129062,29.96
1630067129078,33.8
1630067129093,36.44
1630067129109,37.48
1630067129125,36.82
1630067129140,34.76
1630067129156,31.9
1630067129171,28.82
1630067129187,25.86
1630067129203,23.01
1630067129218,20.15
1630067129234,17.28
1630067129250,14.62
1630067129265,12.59
1630067129281,11.57
1630067129296,11.69
1630067129312,12.78
1630067129328,14.5
1630067129343,16.42
1630067129359,18.25
1630067129375,19.9
1630067129390,21.37
1630067129406,22.71
1630067129421,23.83
1630067129437,24.54
1630067129453,24.51
1630067129468,23.49
1630067129484,21.39
1630067129500,18.48
1630067129515,15.35
1630067129531,12.69
1630067129546,11.08
1630067129562,10.68
1630067129578,11.22
1630067129593,12.09
1630067129609,12.58
1630067129625,12.09
1630067129640,10.19
1630067129656,6.7
1630067129671,1.62
1630067129687,-4.63
1630067129703,-11.16
1630067129718,-16.57
1630067129734,-19.27
1630067129750,-17.97
1630067129765,-12.25
1630067129781,-2.8
1630067129796,8.73
1630067129812,20.33
1630067129828,30.39
1630067129843,38.09
1630067129859,43.47
1630067129875,46.98
1630067129890,49.03
1630067129906,49.65
1630067129921,48.53
1630067129937,45.43
1630067129953,40.43
1630067129968,34.16
1630067129984,27.6
1630067130000,21.67
1630067130015,17.05
1630067130031,14.01
1630067130046,12.51
1630067130062,12.37
1630067130078,13.36
1630067130093,15.13
1630067130109,17.31
1630067130125,19.52
1630067130140,21.42
1630067130156,22.86
1630067130171,23.81
1630067130187,24.35
1630067130203,24.51
1630067130218,24.25
1630067130234,23.41
1630067130250,21.83
1630067130265,19.45
1630067130281,16.33
1630067130296,12.61
1630067130312,8.45
1630067130328,4.0
1630067130343,-0.58
1630067130359,-5.11
1630067130375,-9.34
1630067130390,-12.96
1630067130406,-15.62
1630067130421,-17.05
1630067130437,-17.14
1630067130453,-16.07
1630067130468,-14.32
1630067130484,-12.57
1630067130500,-11.5
1630067130515,-11.57
1630067130531,-12.87
1630067130546,-15.13
1630067130562,-17.88
1630067130578,-20.69
1630067130593,-23.26
1630067130609,-25.54
1630067130625,-27.59
1630067130640,-29.44
1630067130656,-31.07
1630067130671,-32.41
1630067130687,-33.5
1630067130703,-34.45
1630067130718,-35.35
1630067130734,-35.96
1630067130750,-35.68
1630067130765,-33.64
1630067130781,-29.03
1630067130796,-21.61
1630067130812,-12.01
1630067130828,-1.64
1630067130843,7.77
1630067130859,14.73
1630067130875,18.56
1630067130890,19.45
1630067130906,18.33
1630067130921,16.38
1630067130937,14.57
1630067130953,13.39
1630067130968,12.82
1630067130984,12.46
1630067131000,11.88
1630067131015,10.79
1630067131031,9.29
1630067131046,7.83
1630067131062,7.05
1630067131078,7.5
1630067131093,9.38
1630067131109,12.35
1630067131125,15.7
1630067131140,18.62
1630067131156,20.6
1630067131171,21.77
1630067131187,22.79
1630067131203,24.61
1630067131218,27.88
1630067131234,32.75
1630067131250,38.9
1630067131265,45.83
1630067131281,53.11
1630067131296,60.11
1630067131312,65.4
1630067131328,66.57
1630067131343,60.71
1630067131359,45.93
1630067131375,22.78
1630067131390,-5.19
1630067131406,-32.61
1630067131421,-54.57
1630067131437,-68.83
1630067131453,-76.43
1630067131468,-80.45
1630067131484,-83.77
1630067131500,-87.17
1630067131515,-89.33
1630067131531,-88.18
1630067131546,-82.79
1630067131562,-74.23
1630067131578,-64.98
1630067131593,-57.3
1630067131609,-51.98
1630067131625,-48.18
1630067131640,-44.27
1630067131656,-39.15
1630067131671,-32.85
1630067131687,-26.41
1630067131703,-21.05
1630067131718,-17.35
1630067131734,-15.01
1630067131750,-13.07
1630067131765,-10.51
1630067131781,-6.8
1630067131796,-2.06
1630067131812,3.02
1630067131828,7.61
1630067131843,11.14
1630067131859,13.59
1630067131875,15.38
1630067131890,17.02
1630067131906,18.74
1630067131921,20.3
1630067131937,20.97
1630067131953,19.93
1630067131968,16.62
1630067131984,11.01
1630067132000,3.62
1630067132015,-4.68
1630067132031,-12.85
1630067132046,-19.98
1630067132062,-25.24
1630067132078,-28.01
1630067132093,-27.97
1630067132109,-25.22
1630067132125,-20.3
1630067132140,-14.05
1630067132156,-7.38
1630067132171,-0.92
1630067132187,5.12
1630067132203,10.94
1630067132218,16.93
1630067132234,23.38
1630067132250,30.24
1630067132265,37.05
1630067132281,43.08
1630067132296,47.56
1630067132312,49.98
1630067132328,50.22
1630067132343,48.58
1630067132359,45.65
1630067132375,42.17
1630067132390,38.76
1630067132406,35.78
1630067132421,33.33
1630067132437,31.27
1630067132453,29.45
1630067132468,27.75
1630067132484,26.27
1630067132500,25.14
1630067132515,24.47
1630067132531,24.26
1630067132546,24.39
1630067132562,24.75
1630067132578,25.31
1630067132593,26.24
1630067132609,27.75
1630067132625,29.99
1630067132640,32.91
1630067132656,36.3
1630067132671,39.8
1630067132687,43.06
1630067132703,45.85
1630067132718,47.93
1630067132734,49.1
1630067132750,49.07
1630067132765,47.54
1630067132781,44.21
1630067132796,38.91
1630067132812,31.58
1630067132828,22.35
1630067132843,11.6
1630067132859,-0.05
1630067132875,-11.77
1630067132890,-22.77
1630067132906,-32.45
1630067132921,-40.47
1630067132937,-46.86
1630067132953,-51.87
1630067132968,-55.74
1630067132984,-58.5
1630067133000,-59.89
1630067133015,-59.54
1630067133031,-57.12
1630067133046,-52.59
1630067133062,-46.28
1630067133078,-38.85
1630067133093,-31.09
1630067133109,-23.83
1630067133125,-17.71
1630067133140,-13.19
1630067133156,-10.43
1630067133171,-9.31
1630067133187,-9.51
1630067133203,-10.5
1630067133218,-11.74
1630067133234,-12.71
1630067133250,-13.03
1630067133265,-12.55
1630067133281,-11.39
1630067133296,-9.84
1630067133312,-8.29
1630067133328,-7.11
1630067133343,-6.51
1630067133359,-6.43
1630067133375,-6.51
1630067133390,-6.29
1630067133406,-5.33
1630067133421,-3.46
1630067133437,-0.78
1630067133453,2.39
1630067133468,5.67
1630067133484,8.72
1630067133500,11.35
1630067133515,13.4
1630067133531,14.82
1630067133546,15.58
1630067133562,15.78
1630067133578,15.62
1630067133593,15.37
1630067133609,15.28
1630067133625,15.43
1630067133640,15.79
1630067133656,16.24
1630067133671,16.68
1630067133687,17.02
1630067133703,17.18
1630067133718,17.08
1630067133734,16.54
1630067133750,15.4
1630067133765,13.57
1630067133781,11.09
1630067133796,8.12
1630067133812,4.95
1630067133828,1.83
1630067133843,-0.98
1630067133859,-3.35
1630067133875,-5.29
1630067133890,-6.96
1630067133906,-8.58
1630067133921,-10.39
1630067133937,-12.48
1630067133953,-14.8
1630067133968,-17.13
1630067133984,-19.23
1630067134000,-20.93
1630067134015,-22.22
1630067134031,-23.2
1630067134046,-23.99
1630067134062,-24.6
1630067134078,-24.99
1630067134093,-25.11
1630067134109,-24.97
1630067134125,-24.67
1630067134140,-24.32
1630067134156,-23.92
1630067134171,-23.36
1630067134187,-22.46
1630067134203,-21.18
1630067134218,-19.73
1630067134234,-18.55
1630067134250,-18.03
1630067134265,-18.18
1630067134281,-18.5
1630067134296,-18.23
1630067134312,-16.78
1630067134328,-14.19
1630067134343,-11.26
1630067134359,-9.08
1630067134375,-8.43
1630067134390,-9.1
1630067134406,-9.95
1630067134421,-9.35
1630067134437,-6.08
1630067134453,0.08
1630067134468,8.28
1630067134484,17.12
1630067134500,25.3
1630067134515,32.04
1630067134531,37.13
1630067134546,40.51
1630067134562,42.08
1630067134578,41.35
1630067134593,37.56
1630067134609,29.96
1630067134625,18.24
1630067134640,2.94
1630067134656,-14.31
1630067134671,-31.0
1630067134687,-44.46
1630067134703,-52.61
1630067134718,-54.72
1630067134734,-51.57
1630067134750,-45.07
1630067134765,-37.45
1630067134781,-30.75
1630067134796,-26.49
1630067134812,-25.77
1630067134828,-29.25
1630067134843,-36.84
1630067134859,-47.35
1630067134875,-58.38
1630067134890,-66.83
1630067134906,-70.1
1630067134921,-67.17
1630067134937,-59.12
1630067134953,-48.63
1630067134968,-38.79
1630067134984,-31.82
1630067135000,-28.33
1630067135015,-27.59
1630067135031,-28.15
1630067135046,-28.76
1630067135062,-28.78
1630067135078,-28.18
1630067135093,-27.24
1630067135109,-26.11
1630067135125,-24.71
1630067135140,-22.78
1630067135156,-20.0
1630067135171,-16.25
1630067135187,-11.61
1630067135203,-6.35
1630067135218,-0.73
1630067135234,5.06
1630067135250,10.94
1630067135265,16.81
1630067135281,22.47
1630067135296,27.47
1630067135312,31.17
1630067135328,32.91
1630067135343,32.28
1630067135359,29.33
1630067135375,24.82
1630067135390,19.96
1630067135406,16.09
1630067135421,14.12
1630067135437,14.19
1630067135453,15.58
1630067135468,17.1
1630067135484,17.61
1630067135500,16.57
1630067135515,14.22
1630067135531,11.45
1630067135546,9.35
1630067135562,8.81
1630067135578,10.33
1630067135593,13.93
1630067135609,19.4
1630067135625,26.41
1630067135640,34.57
1630067135656,43.34
1630067135671,51.96
1630067135687,59.51
1630067135703,65.11
1630067135718,68.27
1630067135734,69.12
1630067135750,68.39
1630067135765,67.1
1630067135781,66.06
1630067135796,65.49
1630067135812,64.95
1630067135828,63.7
1630067135843,61.18
1630067135859,57.38
1630067135875,52.91
1630067135890,48.67
1630067135906,45.36
1630067135921,43.09
1630067135937,41.43
1630067135953,39.68
1630067135968,37.31
1630067135984,34.15
1630067136000,30.34
1630067136015,26.12
1630067136031,21.66
1630067136046,16.94
1630067136062,11.84
1630067136078,6.33
1630067136093,0.52
1630067136109,-5.26
1630067136125,-10.64
1630067136140,-15.23
1630067136156,-18.77
1630067136171,-21.12
1630067136187,-22.28
1630067136203,-22.39
1630067136218,-21.67
1630067136234,-20.44
1630067136250,-19.04
1630067136265,-17.85
1630067136281,-17.15
1630067136296,-17.13
1630067136312,-17.8
1630067136328,-19.13
1630067136343,-21.07
1630067136359,-23.68
1630067136375,-27.15
1630067136390,-31.6
1630067136406,-36.81
1630067136421,-42.14
1630067136437,-46.56
1630067136453,-48.98
1630067136468,-48.72
1630067136484,-45.75
1630067136500,-40.7
1630067136515,-34.54
1630067136531,-28.16
1630067136546,-22.08
1630067136562,-16.48
1630067136578,-11.34
1630067136593,-6.74
1630067136609,-2.95
1630067136625,-0.39
1630067136640,0.62
1630067136656,0.06
1630067136671,-1.68
1630067136687,-3.94
1630067136703,-5.97
1630067136718,-7.21
1630067136734,-7.41
1630067136750,-6.74
1630067136765,-5.57
1630067136781,-4.34
1630067136796,-3.3
1630067136812,-2.48
1630067136828,-1.68
1630067136843,-0.69
1630067136859,0.61
1630067136875,2.2
1630067136890,3.95
1630067136906,5.77
1630067136921,7.67
1630067136937,9.73
1630067136953,12.04
1630067136968,14.5
1630067136984,16.88
1630067137000,18.78
1630067137015,19.87
1630067137031,20.06
1630067137046,19.49
1630067137062,18.52
1630067137078,17.51
1630067137093,16.62
1630067137109,15.75
1630067137125,14.67
1630067137140,13.09
1630067137156,10.92
1630067137171,8.37
1630067137187,5.83
1630067137203,3.78
1630067137218,2.46
1630067137234,1.8
1630067137250,1.43
1630067137265,0.84
1630067137281,-0.33
1630067137296,-2.12
1630067137312,-4.28
1630067137328,-6.39
1630067137343,-8.08
1630067137359,-9.19
1630067137375,-9.84
1630067137390,-10.24
1630067137406,-10.62
1630067137421,-11.16
1630067137437,-11.86
1630067137453,-12.64
1630067137468,-13.39
1630067137484,-13.93
1630067137500,-14.13
1630067137515,-13.96
1630067137531,-13.51
1630067137546,-12.97
1630067137562,-12.64
1630067137578,-12.69
1630067137593,-13.12
1630067137609,-13.71
1630067137625,-14.11
1630067137640,-13.96
1630067137656,-13.06
1630067137671,-11.43
1630067137687,-9.23
1630067137703,-6.75
1630067137718,-4.2
1630067137734,-1.73
1630067137750,0.62
1630067137765,2.88
1630067137781,5.01
1630067137796,6.93
1630067137812,8.46
1630067137828,9.41
1630067137843,9.71
1630067137859,9.41
1630067137875,8.76
1630067137890,8.12
1630067137906,7.81
1630067137921,8.02
1630067137937,8.76
1630067137953,9.87
1630067137968,11.16
1630067137984,12.54
1630067138000,14.06
1630067138015,15.89
1630067138031,18.12
1630067138046,20.73
1630067138062,23.5
1630067138078,26.07
1630067138093,28.02
1630067138109,28.82
1630067138125,27.8
1630067138140,24.26
1630067138156,17.71
1630067138171,8.21
1630067138187,-3.24
1630067138203,-14.8
1630067138218,-24.25
1630067138234,-29.86
1630067138250,-31.1
1630067138265,-28.89
1630067138281,-25.08
1630067138296,-21.6
1630067138312,-19.59
1630067138328,-19.08
1630067138343,-19.33
1630067138359,-19.41
1630067138375,-18.83
1630067138390,-17.62
1630067138406,-16.16
1630067138421,-14.82
1630067138437,-13.7
1630067138453,-12.73
1630067138468,-11.8
1630067138484,-11.04
1630067138500,-10.85
1630067138515,-11.82
1630067138531,-14.52
1630067138546,-19.29
1630067138562,-26.07
1630067138578,-34.33
1630067138593,-43.36
1630067138609,-52.57
1630067138625,-61.87
1630067138640,-71.67
1630067138656,-82.78
1630067138671,-95.85
1630067138687,-110.82
1630067138703,-126.64
1630067138718,-141.28
1630067138734,-152.3
1630067138750,-157.46
1630067138765,-155.1
1630067138781,-144.37
1630067138796,-125.39
1630067138812,-99.34
1630067138828,-68.51
1630067138843,-36.0
1630067138859,-4.87
1630067138875,22.97
1630067138890,47.53
1630067138906,70.63
1630067138921,94.72
1630067138937,121.22
1630067138953,149.37
1630067138968,176.08
1630067138984,197.19
1630067139000,209.27
1630067139015,210.98
1630067139031,203.43
1630067139046,189.15
1630067139062,170.83
1630067139078,150.39
1630067139093,128.88
1630067139109,106.95
1630067139125,85.48
1630067139140,65.72
1630067139156,48.92
1630067139171,35.81
1630067139187,26.13
1630067139203,18.66
1630067139218,11.73
1630067139234,3.88
1630067139250,-5.56
1630067139265,-16.23
1630067139281,-26.96
1630067139296,-36.32
1630067139312,-43.22
1630067139328,-47.33
1630067139343,-49.14
1630067139359,-49.64
1630067139375,-49.75
1630067139390,-49.79
1630067139406,-49.26
1630067139421,-46.94
1630067139437,-41.55
1630067139453,-32.37
1630067139468,-19.9
1630067139484,-5.82
1630067139500,7.4
1630067139515,17.41
1630067139531,22.83
1630067139546,23.66
1630067139562,21.16
1630067139578,17.2
1630067139593,13.51
1630067139609,11.11
1630067139625,10.21
1630067139640,10.39
1630067139656,11.09
1630067139671,11.94
1630067139687,12.92
1630067139703,14.38
1630067139718,16.65
1630067139734,19.83
1630067139750,23.55
1630067139765,27.14
1630067139781,29.87
1630067139796,31.27
1630067139812,31.32
1630067139828,30.32
1630067139843,28.75
1630067139859,26.93
1630067139875,25.05
1630067139890,23.24
1630067139906,21.67
1630067139921,20.51
1630067139937,19.84
1630067139953,19.5
1630067139968,19.14
1630067139984,18.45
1630067140000,17.36
1630067140015,15.97
1630067140031,14.38
1630067140046,12.42
1630067140062,9.64
1630067140078,5.69
1630067140093,0.68
1630067140109,-4.59
1630067140125,-8.82
1630067140140,-10.85
1630067140156,-10.25
1630067140171,-7.69
1630067140187,-4.66
1630067140203,-2.73
1630067140218,-2.9
1630067140234,-5.08
1630067140250,-8.31
1630067140265,-11.15
1630067140281,-12.48
1630067140296,-11.8
1630067140312,-9.5
1630067140328,-6.64
1630067140343,-4.51
1630067140359,-4.32
1630067140375,-6.86
1630067140390,-12.4
1630067140406,-20.7
1630067140421,-31.08
1630067140437,-42.57
1630067140453,-54.2
1630067140468,-65.24
1630067140484,-75.38
1630067140500,-84.79
1630067140515,-93.9
1630067140531,-103.04
1630067140546,-111.89
1630067140562,-119.19
1630067140578,-122.79
1630067140593,-120.18
1630067140609,-109.38
1630067140625,-89.75
1630067140640,-62.44
1630067140656,-30.18
1630067140671,3.52
1630067140687,35.28
1630067140703,62.68
1630067140718,84.51
1630067140734,100.58
1630067140750,111.28
1630067140765,117.23
1630067140781,119.07
1630067140796,117.48
1630067140812,113.24
1630067140828,107.24
1630067140843,100.29
1630067140859,92.94
1630067140875,85.34
1630067140890,77.29
1630067140906,68.43
1630067140921,58.55
1630067140937,47.85
1630067140953,36.94
1630067140968,26.65
1630067140984,17.75
1630067141000,10.62
1630067141015,5.23
1630067141031,1.24
1630067141046,-1.69
1630067141062,-3.76
1630067141078,-4.93
1630067141093,-5.1
1630067141109,-4.22
1630067141125,-2.41
1630067141140,0.12
1630067141156,3.1
1630067141171,6.35
1630067141187,9.75
1630067141203,13.25
1630067141218,16.86
1630067141234,20.6
1630067141250,24.49
1630067141265,28.46
1630067141281,32.32
1630067141296,35.77
1630067141312,38.47
1630067141328,40.25
1630067141343,41.17
1630067141359,41.54
1630067141375,41.78
1630067141390,42.22
1630067141406,42.95
1630067141421,43.83
1630067141437,44.61
1630067141453,45.17
1630067141468,45.56
1630067141484,46.04
1630067141500,46.95
1630067141515,48.49
1630067141531,50.69
1630067141546,53.31
1630067141562,56.01
1630067141578,58.31
1630067141593,59.69
1630067141609,59.54
1630067141625,57.16
1630067141640,51.89
1630067141656,43.37
1630067141671,31.75
1630067141687,17.79
1630067141703,2.68
1630067141718,-12.36
1630067141734,-26.62
1630067141750,-40.04
1630067141765,-52.99
1630067141781,-65.9
1630067141796,-78.65
1630067141812,-90.52
1630067141828,-100.37
1630067141843,-107.17
1630067141859,-110.4
1630067141875,-110.2
1630067141890,-107.08
1630067141906,-101.58
1630067141921,-94.04
1630067141937,-84.62
1630067141953,-73.54
1630067141968,-61.34
1630067141984,-48.92
1630067142000,-37.29
1630067142015,-27.25
1630067142031,-19.15
1630067142046,-12.8
1630067142062,-7.7
1630067142078,-3.28
1630067142093,0.88
1630067142109,4.91
1630067142125,8.82
1630067142140,12.53
1630067142156,16.12
1630067142171,19.75
1630067142187,23.62
1630067142203,27.84
1630067142218,32.37
1630067142234,37.0
1630067142250,41.48
1630067142265,45.63
1630067142281,49.36
1630067142296,52.65
1630067142312,55.52
1630067142328,57.92
1630067142343,59.72
1630067142359,60.78
1630067142375,60.93
1630067142390,60.03
1630067142406,57.93
1630067142421,54.46
1630067142437,49.42
1630067142453,42.63
1630067142468,34.03
1630067142484,23.74
1630067142500,12.08
1630067142515,-0.4
1630067142531,-13.03
1630067142546,-25.13
1630067142562,-36.11
1630067142578,-45.53
1630067142593,-53.11
1630067142609,-58.69
1630067142625,-62.15
1630067142640,-63.46
1630067142656,-62.66
1630067142671,-60.0
1630067142687,-55.93
1630067142703,-51.16
1630067142718,-46.51
1630067142734,-42.72
1630067142750,-40.27
1630067142765,-39.22
1630067142781,-39.18
1630067142796,-39.43
1630067142812,-39.15
1630067142828,-37.71
1630067142843,-34.92
1630067142859,-31.15
1630067142875,-27.13
1630067142890,-23.76
1630067142906,-21.72
1630067142921,-21.17
1630067142937,-21.7
1630067142953,-22.47
1630067142968,-22.63
1630067142984,-21.72
1630067143000,-20.0
1630067143015,-18.28
1630067143031,-17.6
1630067143046,-18.63
1630067143062,-21.37
1630067143078,-25.11
1630067143093,-28.76
1630067143109,-31.38
1630067143125,-32.54
1630067143140,-32.43
1630067143156,-31.69
1630067143171,-31.25
1630067143187,-32.12
1630067143203,-35.36
1630067143218,-41.87
1630067143234,-52.03
1630067143250,-65.22
1630067143265,-79.6
1630067143281,-92.42
1630067143296,-100.74
1630067143312,-102.43
1630067143328,-96.93
1630067143343,-85.36
1630067143359,-69.88
1630067143375,-52.81
1630067143390,-35.78
1630067143406,-19.52
1630067143421,-4.19
1630067143437,9.98
1630067143453,22.4
1630067143468,32.26
1630067143484,39.08
1630067143500,43.14
1630067143515,45.5
1630067143531,47.43
1630067143546,49.72
1630067143562,52.31
1630067143578,54.39
1630067143593,55.04
1630067143609,53.78
1630067143625,50.89
1630067143640,47.17
1630067143656,43.51
1630067143671,40.49
1630067143687,38.47
1630067143703,37.66
1630067143718,38.29
1630067143734,40.47
1630067143750,43.94
1630067143765,48.02
1630067143781,51.68
1630067143796,53.99
1630067143812,54.42
1630067143828,52.97
1630067143843,49.93
1630067143859,45.53
1630067143875,39.81
1630067143890,32.6
1630067143906,23.83
1630067143921,13.75
1630067143937,2.95
1630067143953,-7.75
1630067143968,-17.53
1630067143984,-25.83
1630067144000,-32.45
1630067144015,-37.4
1630067144031,-40.84
1630067144046,-42.95
1630067144062,-43.81
1630067144078,-43.56
1630067144093,-42.34
1630067144109,-40.43
1630067144125,-38.18
1630067144140,-35.98
1630067144156,-34.13
1630067144171,-32.82
1630067144187,-32.05
1630067144203,-31.67
1630067144218,-31.43
1630067144234,-31.05
1630067144250,-30.31
1630067144265,-29.05
1630067144281,-27.27
1630067144296,-25.0
1630067144312,-22.41
1630067144328,-19.68
1630067144343,-16.94
1630067144359,-14.34
1630067144375,-11.94
1630067144390,-9.78
1630067144406,-7.88
1630067144421,-6.23
1630067144437,-4.69
1630067144453,-3.07
1630067144468,-1.02
1630067144484,1.75
1630067144500,5.38
1630067144515,9.8
1630067144531,14.67
1630067144546,19.52
1630067144562,24.0
1630067144578,28.05
1630067144593,31.89
1630067144609,35.87
1630067144625,40.19
1630067144640,44.62
1630067144656,48.45
1630067144671,50.62
1630067144687,49.94
1630067144703,45.52
1630067144718,37.05
1630067144734,24.95
1630067144750,10.35
1630067144765,-5.14
1630067144781,-19.81
1630067144796,-32.28
1630067144812,-41.8
1630067144828,-48.27
1630067144843,-52.1
1630067144859,-53.88
1630067144875,-54.17
