timestamp,bvp
1631106796171,0.52
1631106796187,-0.36
1631106796203,-0.86
1631106796218,-1.21
1631106796234,-1.64
1631106796250,-2.32
1631106796265,-3.33
1631106796281,-4.63
1631106796296,-6.14
1631106796312,-7.75
1631106796328,-9.35
1631106796343,-10.85
1631106796359,-12.19
1631106796375,-13.32
1631106796390,-14.29
1631106796406,-15.29
1631106796421,-16.57
1631106796437,-18.39
1631106796453,-20.83
1631106796468,-23.7
1631106796484,-26.44
1631106796500,-28.25
1631106796515,-28.32
1631106796531,-26.13
1631106796546,-21.71
1631106796562,-15.65
1631106796578,-8.91
1631106796593,-2.51
1631106796609,2.78
1631106796625,6.63
1631106796640,9.11
1631106796656,10.56
1631106796671,11.3
1631106796687,11.61
1631106796703,11.63
1631106796718,11.44
1631106796734,11.13
1631106796750,10.78
1631106796765,10.51
1631106796781,10.34
1631106796796,10.23
1631106796812,10.11
1631106796828,9.91
1631106796843,9.61
1631106796859,9.32
1631106796875,9.19
1631106796890,9.37
1631106796906,9.9
1631106796921,10.72
1631106796937,11.63
1631106796953,12.39
1631106796968,12.81
1631106796984,12.78
1631106797000,12.3
1631106797015,11.45
1631106797031,10.38
1631106797046,9.25
1631106797062,8.2
1631106797078,7.25
1631106797093,6.34
1631106797109,5.36
1631106797125,4.2
1631106797140,2.81
1631106797156,1.3
1631106797171,-0.21
1631106797187,-1.56
1631106797203,-2.72
1631106797218,-3.74
1631106797234,-4.73
1631106797250,-5.76
1631106797265,-6.79
1631106797281,-7.72
1631106797296,-8.42
1631106797312,-8.91
1631106797328,-9.31
1631106797343,-9.85
1631106797359,-10.74
1631106797375,-12.09
1631106797390,-13.92
1631106797406,-16.17
1631106797421,-18.81
1631106797437,-21.75
1631106797453,-24.84
1631106797468,-27.74
1631106797484,-29.89
1631106797500,-30.61
1631106797515,-29.36
1631106797531,-25.94
1631106797546,-20.66
1631106797562,-14.23
1631106797578,-7.58
1631106797593,-1.5
1631106797609,3.51
1631106797625,7.33
1631106797640,10.07
1631106797656,11.94
1631106797671,13.08
1631106797687,13.54
1631106797703,13.37
1631106797718,12.65
1631106797734,11.61
1631106797750,10.52
1631106797765,9.62
1631106797781,9.02
1631106797796,8.69
1631106797812,8.52
1631106797828,8.43
1631106797843,8.47
1631106797859,8.76
1631106797875,9.43
1631106797890,10.47
1631106797906,11.68
1631106797921,12.72
1631106797937,13.26
1631106797953,13.17
1631106797968,12.55
1631106797984,11.66
1631106798000,10.78
1631106798015,10.06
1631106798031,9.42
1631106798046,8.72
1631106798062,7.82
1631106798078,6.7
1631106798093,5.49
1631106798109,4.33
1631106798125,3.35
1631106798140,2.58
1631106798156,2.02
1631106798171,1.69
1631106798187,1.61
1631106798203,1.79
1631106798218,2.18
1631106798234,2.57
1631106798250,2.7
1631106798265,2.36
1631106798281,1.49
1631106798296,0.3
1631106798312,-0.87
1631106798328,-1.68
1631106798343,-2.05
1631106798359,-2.23
1631106798375,-2.77
1631106798390,-4.2
1631106798406,-6.74
1631106798421,-10.0
1631106798437,-13.03
1631106798453,-14.58
1631106798468,-13.6
1631106798484,-9.63
1631106798500,-3.02
1631106798515,5.18
1631106798531,13.69
1631106798546,21.37
1631106798562,27.65
1631106798578,32.61
1631106798593,36.79
1631106798609,40.83
1631106798625,45.15
1631106798640,49.63
1631106798656,53.7
1631106798671,56.66
1631106798687,58.05
1631106798703,58.04
1631106798718,57.53
1631106798734,57.89
1631106798750,60.44
1631106798765,66.02
1631106798781,74.54
1631106798796,84.95
1631106798812,95.53
1631106798828,104.51
1631106798843,110.61
1631106798859,113.75
1631106798875,115.29
1631106798890,117.82
1631106798906,124.42
1631106798921,137.31
1631106798937,156.6
1631106798953,179.55
1631106798968,200.9
1631106798984,214.26
1631106799000,214.2
1631106799015,198.0
1631106799031,166.23
1631106799046,122.28
1631106799062,70.71
1631106799078,15.48
1631106799093,-41.09
1631106799109,-98.45
1631106799125,-157.38
1631106799140,-219.23
1631106799156,-284.99
1631106799171,-354.38
1631106799187,-424.73
1631106799203,-490.62
1631106799218,-544.43
1631106799234,-578.29
1631106799250,-586.66
1631106799265,-568.47
1631106799281,-527.49
1631106799296,-470.73
1631106799312,-405.55
1631106799328,-337.01
1631106799343,-267.02
1631106799359,-195.49
1631106799375,-122.53
1631106799390,-50.32
1631106799406,16.79
1631106799421,73.8
1631106799437,117.3
1631106799453,146.99
1631106799468,165.68
1631106799484,177.77
1631106799500,187.33
1631106799515,196.69
1631106799531,205.89
1631106799546,213.54
1631106799562,218.03
1631106799578,218.46
1631106799593,215.05
1631106799609,208.9
1631106799625,201.49
1631106799640,194.43
1631106799656,189.39
1631106799671,188.06
1631106799687,191.31
1631106799703,198.45
1631106799718,206.51
1631106799734,210.31
1631106799750,203.82
1631106799765,182.15
1631106799781,143.35
1631106799796,89.06
1631106799812,23.88
1631106799828,-45.98
1631106799843,-114.1
1631106799859,-174.51
1631106799875,-222.02
1631106799890,-252.44
1631106799906,-263.37
1631106799921,-255.07
1631106799937,-230.99
1631106799953,-197.23
1631106799968,-160.82
1631106799984,-127.66
1631106800000,-101.01
1631106800015,-81.24
1631106800031,-66.56
1631106800046,-54.28
1631106800062,-42.05
1631106800078,-28.41
1631106800093,-13.02
1631106800109,3.6
1631106800125,20.28
1631106800140,35.48
1631106800156,47.74
1631106800171,56.31
1631106800187,61.3
1631106800203,63.61
1631106800218,64.52
1631106800234,64.94
1631106800250,65.02
1631106800265,64.14
1631106800281,61.39
1631106800296,56.16
1631106800312,48.62
1631106800328,39.78
1631106800343,31.11
1631106800359,24.0
1631106800375,19.2
1631106800390,16.73
1631106800406,15.97
1631106800421,16.09
1631106800437,16.35
1631106800453,16.34
1631106800468,15.86
1631106800484,14.89
1631106800500,13.45
1631106800515,11.59
1631106800531,9.35
1631106800546,6.84
1631106800562,4.18
1631106800578,1.54
1631106800593,-0.89
1631106800609,-2.92
1631106800625,-4.33
1631106800640,-4.98
1631106800656,-4.85
1631106800671,-4.05
1631106800687,-2.87
1631106800703,-1.64
1631106800718,-0.6
1631106800734,0.17
1631106800750,0.75
1631106800765,1.3
1631106800781,1.91
1631106800796,2.55
1631106800812,3.12
1631106800828,3.51
1631106800843,3.67
1631106800859,3.63
1631106800875,3.45
1631106800890,3.15
1631106800906,2.74
1631106800921,2.21
1631106800937,1.58
1631106800953,0.9
1631106800968,0.2
1631106800984,-0.49
1631106801000,-1.24
1631106801015,-2.06
1631106801031,-2.93
1631106801046,-3.78
1631106801062,-4.48
1631106801078,-4.95
1631106801093,-5.17
1631106801109,-5.18
1631106801125,-5.08
1631106801140,-5.06
1631106801156,-5.34
1631106801171,-6.16
1631106801187,-7.61
1631106801203,-9.63
1631106801218,-11.82
1631106801234,-13.62
1631106801250,-14.4
1631106801265,-13.69
1631106801281,-11.36
1631106801296,-7.65
1631106801312,-3.04
1631106801328,1.87
1631106801343,6.56
1631106801359,10.65
1631106801375,13.93
1631106801390,16.37
1631106801406,17.98
1631106801421,18.82
1631106801437,18.91
1631106801453,18.3
1631106801468,17.06
1631106801484,15.34
1631106801500,13.4
1631106801515,11.53
1631106801531,10.01
1631106801546,8.98
1631106801562,8.45
1631106801578,8.31
1631106801593,8.42
1631106801609,8.69
1631106801625,9.07
1631106801640,9.54
1631106801656,10.05
1631106801671,10.55
1631106801687,10.95
1631106801703,11.19
1631106801718,11.23
1631106801734,11.05
1631106801750,10.66
1631106801765,10.06
1631106801781,9.27
1631106801796,8.34
1631106801812,7.34
1631106801828,6.34
1631106801843,5.34
1631106801859,4.33
1631106801875,3.24
1631106801890,2.02
1631106801906,0.68
1631106801921,-0.74
1631106801937,-2.12
1631106801953,-3.4
1631106801968,-4.55
1631106801984,-5.62
1631106802000,-6.72
1631106802015,-8.01
1631106802031,-9.66
1631106802046,-11.81
1631106802062,-14.54
1631106802078,-17.79
1631106802093,-21.27
1631106802109,-24.48
1631106802125,-26.7
1631106802140,-27.25
1631106802156,-25.7
1631106802171,-22.1
1631106802187,-16.95
1631106802203,-11.09
1631106802218,-5.33
1631106802234,-0.24
1631106802250,3.97
1631106802265,7.34
1631106802281,9.98
1631106802296,11.96
1631106802312,13.27
1631106802328,13.91
1631106802343,13.99
1631106802359,13.73
1631106802375,13.33
1631106802390,12.93
1631106802406,12.54
1631106802421,12.13
1631106802437,11.72
1631106802453,11.42
1631106802468,11.36
1631106802484,11.63
1631106802500,12.21
1631106802515,12.92
1631106802531,13.54
1631106802546,13.87
1631106802562,13.83
1631106802578,13.44
1631106802593,12.8
1631106802609,12.0
1631106802625,11.09
1631106802640,10.08
1631106802656,8.94
1631106802671,7.63
1631106802687,6.15
1631106802703,4.51
1631106802718,2.79
1631106802734,1.11
1631106802750,-0.41
1631106802765,-1.64
1631106802781,-2.54
1631106802796,-3.15
1631106802812,-3.58
1631106802828,-4.01
1631106802843,-4.6
1631106802859,-5.42
1631106802875,-6.46
1631106802890,-7.62
1631106802906,-8.81
1631106802921,-9.94
1631106802937,-11.02
1631106802953,-12.11
1631106802968,-13.35
1631106802984,-14.85
1631106803000,-16.69
1631106803015,-18.88
1631106803031,-21.3
1631106803046,-23.66
1631106803062,-25.52
1631106803078,-26.34
1631106803093,-25.63
1631106803109,-23.17
1631106803125,-19.05
1631106803140,-13.75
1631106803156,-7.93
1631106803171,-2.3
1631106803187,2.61
1631106803203,6.58
1631106803218,9.59
1631106803234,11.8
1631106803250,13.35
1631106803265,14.35
1631106803281,14.86
1631106803296,14.91
1631106803312,14.58
1631106803328,13.99
1631106803343,13.26
1631106803359,12.47
1631106803375,11.7
1631106803390,10.95
1631106803406,10.27
1631106803421,9.68
1631106803437,9.27
1631106803453,9.11
1631106803468,9.26
1631106803484,9.7
1631106803500,10.36
1631106803515,11.09
1631106803531,11.74
1631106803546,12.15
1631106803562,12.2
1631106803578,11.86
1631106803593,11.19
1631106803609,10.29
1631106803625,9.27
1631106803640,8.22
1631106803656,7.17
1631106803671,6.13
1631106803687,5.05
1631106803703,3.94
1631106803718,2.8
1631106803734,1.64
1631106803750,0.5
1631106803765,-0.61
1631106803781,-1.66
1631106803796,-2.62
1631106803812,-3.42
1631106803828,-4.04
1631106803843,-4.48
1631106803859,-4.85
1631106803875,-5.33
1631106803890,-6.08
1631106803906,-7.2
1631106803921,-8.66
1631106803937,-10.31
1631106803953,-11.92
1631106803968,-13.34
1631106803984,-14.53
1631106804000,-15.64
1631106804015,-16.92
1631106804031,-18.62
1631106804046,-20.95
1631106804062,-23.92
1631106804078,-27.37
1631106804093,-30.93
1631106804109,-34.07
1631106804125,-36.18
1631106804140,-36.74
1631106804156,-35.43
1631106804171,-32.32
1631106804187,-27.77
1631106804203,-22.46
1631106804218,-17.16
1631106804234,-12.58
1631106804250,-9.21
1631106804265,-7.26
1631106804281,-6.66
1631106804296,-7.18
1631106804312,-8.49
1631106804328,-10.27
1631106804343,-12.32
1631106804359,-14.49
1631106804375,-16.77
1631106804390,-19.18
1631106804406,-21.82
1631106804421,-24.73
1631106804437,-27.92
1631106804453,-31.24
1631106804468,-34.37
1631106804484,-36.89
1631106804500,-38.31
1631106804515,-38.26
1631106804531,-36.57
1631106804546,-33.35
1631106804562,-28.97
1631106804578,-23.9
1631106804593,-18.62
1631106804609,-13.4
1631106804625,-8.29
1631106804640,-3.11
1631106804656,2.38
1631106804671,8.3
1631106804687,14.58
1631106804703,20.85
1631106804718,26.53
1631106804734,30.85
1631106804750,33.05
1631106804765,32.44
1631106804781,28.64
1631106804796,21.86
1631106804812,12.91
1631106804828,3.33
1631106804843,-5.02
1631106804859,-10.35
1631106804875,-11.49
1631106804890,-7.97
1631106804906,0.1
1631106804921,12.39
1631106804937,28.55
1631106804953,48.08
1631106804968,69.98
1631106804984,92.5
1631106805000,113.33
1631106805015,130.18
1631106805031,141.55
1631106805046,147.22
1631106805062,148.13
1631106805078,145.75
1631106805093,141.24
1631106805109,134.97
1631106805125,126.6
1631106805140,115.7
1631106805156,102.38
1631106805171,87.53
1631106805187,72.67
1631106805203,59.2
1631106805218,47.88
1631106805234,38.48
1631106805250,30.14
1631106805265,21.82
1631106805281,12.92
1631106805296,3.6
1631106805312,-5.47
1631106805328,-13.46
1631106805343,-19.91
1631106805359,-24.91
1631106805375,-29.0
1631106805390,-32.78
1631106805406,-36.63
1631106805421,-40.5
1631106805437,-44.03
1631106805453,-46.77
1631106805468,-48.42
1631106805484,-48.99
1631106805500,-48.71
1631106805515,-47.9
1631106805531,-46.8
1631106805546,-45.51
1631106805562,-43.95
1631106805578,-42.0
1631106805593,-39.61
1631106805609,-36.87
1631106805625,-34.02
1631106805640,-31.38
1631106805656,-29.24
1631106805671,-27.85
1631106805687,-27.34
1631106805703,-27.77
1631106805718,-29.04
1631106805734,-30.99
1631106805750,-33.33
1631106805765,-35.68
1631106805781,-37.63
1631106805796,-38.8
1631106805812,-38.95
1631106805828,-38.03
1631106805843,-36.13
1631106805859,-33.51
1631106805875,-30.48
1631106805890,-27.33
1631106805906,-24.27
1631106805921,-21.42
1631106805937,-18.79
1631106805953,-16.35
1631106805968,-14.08
1631106805984,-12.05
1631106806000,-10.38
1631106806015,-9.18
1631106806031,-8.47
1631106806046,-8.17
1631106806062,-8.1
1631106806078,-8.06
1631106806093,-7.92
1631106806109,-7.68
1631106806125,-7.47
1631106806140,-7.44
1631106806156,-7.78
1631106806171,-8.6
1631106806187,-9.99
1631106806203,-11.93
1631106806218,-14.24
1631106806234,-16.57
1631106806250,-18.41
1631106806265,-19.2
1631106806281,-18.52
1631106806296,-16.19
1631106806312,-12.4
1631106806328,-7.61
1631106806343,-2.45
1631106806359,2.44
1631106806375,6.51
1631106806390,9.44
1631106806406,11.13
1631106806421,11.74
1631106806437,11.55
1631106806453,10.88
1631106806468,9.97
1631106806484,9.0
1631106806500,8.01
1631106806515,7.07
1631106806531,6.22
1631106806546,5.5
1631106806562,4.95
1631106806578,4.55
1631106806593,4.27
1631106806609,4.13
1631106806625,4.18
1631106806640,4.47
1631106806656,5.03
1631106806671,5.78
1631106806687,6.58
1631106806703,7.25
1631106806718,7.71
1631106806734,7.95
1631106806750,8.07
1631106806765,8.16
1631106806781,8.22
1631106806796,8.2
1631106806812,7.94
1631106806828,7.26
1631106806843,6.08
1631106806859,4.39
1631106806875,2.37
1631106806890,0.29
1631106806906,-1.55
1631106806921,-2.95
1631106806937,-3.85
1631106806953,-4.4
1631106806968,-4.84
1631106806984,-5.42
1631106807000,-6.27
1631106807015,-7.36
1631106807031,-8.57
1631106807046,-9.71
1631106807062,-10.66
1631106807078,-11.39
1631106807093,-12.02
1631106807109,-12.75
1631106807125,-13.84
1631106807140,-15.48
1631106807156,-17.72
1631106807171,-20.4
1631106807187,-23.13
1631106807203,-25.35
1631106807218,-26.44
1631106807234,-25.91
1631106807250,-23.53
1631106807265,-19.38
1631106807281,-13.88
1631106807296,-7.6
1631106807312,-1.19
1631106807328,4.78
1631106807343,9.91
1631106807359,13.99
1631106807375,17.02
1631106807390,19.12
1631106807406,20.45
1631106807421,21.17
1631106807437,21.35
1631106807453,20.95
1631106807468,19.94
1631106807484,18.27
1631106807500,16.05
1631106807515,13.52
1631106807531,11.04
1631106807546,8.99
1631106807562,7.64
1631106807578,7.08
1631106807593,7.21
1631106807609,7.77
1631106807625,8.47
1631106807640,9.1
1631106807656,9.51
1631106807671,9.65
1631106807687,9.53
1631106807703,9.19
1631106807718,8.77
1631106807734,8.48
1631106807750,8.46
1631106807765,8.77
1631106807781,9.26
1631106807796,9.61
1631106807812,9.49
1631106807828,8.73
1631106807843,7.39
1631106807859,5.74
1631106807875,4.14
1631106807890,2.8
1631106807906,1.75
1631106807921,0.81
1631106807937,-0.24
1631106807953,-1.54
1631106807968,-3.07
1631106807984,-4.69
1631106808000,-6.24
1631106808015,-7.57
1631106808031,-8.64
1631106808046,-9.56
1631106808062,-10.54
1631106808078,-11.87
1631106808093,-13.78
1631106808109,-16.42
1631106808125,-19.74
1631106808140,-23.53
1631106808156,-27.38
1631106808171,-30.77
1631106808187,-33.1
1631106808203,-33.8
1631106808218,-32.51
1631106808234,-29.19
1631106808250,-24.22
1631106808265,-18.28
1631106808281,-12.18
1631106808296,-6.63
1631106808312,-1.98
1631106808328,1.7
1631106808343,4.61
1631106808359,7.01
1631106808375,9.06
1631106808390,10.81
1631106808406,12.22
1631106808421,13.2
1631106808437,13.67
1631106808453,13.59
1631106808468,12.93
1631106808484,11.77
1631106808500,10.3
1631106808515,8.82
1631106808531,7.7
1631106808546,7.27
1631106808562,7.67
1631106808578,8.84
1631106808593,10.59
1631106808609,12.64
1631106808625,14.76
1631106808640,16.74
1631106808656,18.44
1631106808671,19.67
1631106808687,20.25
1631106808703,20.06
1631106808718,19.1
1631106808734,17.54
1631106808750,15.6
1631106808765,13.51
1631106808781,11.38
1631106808796,9.22
1631106808812,7.01
1631106808828,4.81
1631106808843,2.82
1631106808859,1.3
1631106808875,0.53
1631106808890,0.58
1631106808906,1.35
1631106808921,2.54
1631106808937,3.85
1631106808953,4.97
1631106808968,5.76
1631106808984,6.15
1631106809000,6.16
1631106809015,5.79
1631106809031,5.08
1631106809046,4.11
1631106809062,2.95
1631106809078,1.7
1631106809093,0.35
1631106809109,-1.21
1631106809125,-3.23
1631106809140,-5.98
1631106809156,-9.58
1631106809171,-13.92
1631106809187,-18.55
1631106809203,-22.76
1631106809218,-25.76
1631106809234,-26.88
1631106809250,-25.76
1631106809265,-22.48
1631106809281,-17.52
1631106809296,-11.65
1631106809312,-5.68
1631106809328,-0.31
1631106809343,4.01
1631106809359,7.15
1631106809375,9.16
1631106809390,10.23
1631106809406,10.6
1631106809421,10.49
1631106809437,10.13
1631106809453,9.72
1631106809468,9.39
1631106809484,9.2
1631106809500,9.12
1631106809515,9.04
1631106809531,8.86
1631106809546,8.52
1631106809562,8.06
1631106809578,7.57
1631106809593,7.18
1631106809609,6.98
1631106809625,7.03
1631106809640,7.37
1631106809656,8.0
1631106809671,8.83
1631106809687,9.7
1631106809703,10.41
1631106809718,10.72
1631106809734,10.46
1631106809750,9.61
1631106809765,8.32
1631106809781,6.84
1631106809796,5.44
1631106809812,4.3
1631106809828,3.46
1631106809843,2.8
1631106809859,2.13
1631106809875,1.28
1631106809890,0.2
1631106809906,-1.06
1631106809921,-2.34
1631106809937,-3.47
1631106809953,-4.35
1631106809968,-4.95
1631106809984,-5.37
1631106810000,-5.8
1631106810015,-6.43
1631106810031,-7.37
1631106810046,-8.63
1631106810062,-10.09
1631106810078,-11.54
1631106810093,-12.81
1631106810109,-13.77
1631106810125,-14.51
1631106810140,-15.26
1631106810156,-16.35
1631106810171,-18.07
1631106810187,-20.56
1631106810203,-23.65
1631106810218,-26.88
1631106810234,-29.56
1631106810250,-30.97
1631106810265,-30.54
1631106810281,-28.02
1631106810296,-23.53
1631106810312,-17.54
1631106810328,-10.75
1631106810343,-3.92
1631106810359,2.29
1631106810375,7.39
1631106810390,11.18
1631106810406,13.71
1631106810421,15.19
1631106810437,15.9
1631106810453,16.05
1631106810468,15.76
1631106810484,15.1
1631106810500,14.12
1631106810515,12.99
1631106810531,11.9
1631106810546,11.07
1631106810562,10.55
1631106810578,10.33
1631106810593,10.3
1631106810609,10.38
1631106810625,10.58
1631106810640,10.94
1631106810656,11.5
1631106810671,12.2
1631106810687,12.93
1631106810703,13.52
1631106810718,13.86
1631106810734,13.87
1631106810750,13.56
1631106810765,12.92
1631106810781,11.98
1631106810796,10.75
1631106810812,9.33
1631106810828,7.84
1631106810843,6.42
1631106810859,5.19
1631106810875,4.14
1631106810890,3.23
1631106810906,2.39
1631106810921,1.57
1631106810937,0.78
1631106810953,0.05
1631106810968,-0.6
1631106810984,-1.17
1631106811000,-1.69
1631106811015,-2.24
1631106811031,-2.89
1631106811046,-3.69
1631106811062,-4.64
1631106811078,-5.73
1631106811093,-6.87
1631106811109,-7.97
1631106811125,-9.01
1631106811140,-9.97
1631106811156,-10.93
1631106811171,-11.96
1631106811187,-13.11
1631106811203,-14.42
1631106811218,-15.95
1631106811234,-17.79
1631106811250,-20.07
1631106811265,-22.81
1631106811281,-25.79
1631106811296,-28.47
1631106811312,-30.09
1631106811328,-29.89
1631106811343,-27.45
1631106811359,-22.85
1631106811375,-16.73
1631106811390,-10.0
1631106811406,-3.55
1631106811421,2.05
1631106811437,6.61
1631106811453,10.22
1631106811468,13.02
1631106811484,15.06
1631106811500,16.23
1631106811515,16.42
1631106811531,15.66
1631106811546,14.22
1631106811562,12.57
1631106811578,11.14
1631106811593,10.21
1631106811609,9.8
1631106811625,9.71
1631106811640,9.76
1631106811656,9.85
1631106811671,10.0
1631106811687,10.3
1631106811703,10.78
1631106811718,11.36
1631106811734,11.9
1631106811750,12.25
1631106811765,12.36
1631106811781,12.29
1631106811796,12.15
1631106811812,12.01
1631106811828,11.82
1631106811843,11.45
1631106811859,10.76
1631106811875,9.68
1631106811890,8.23
1631106811906,6.58
1631106811921,4.95
1631106811937,3.55
1631106811953,2.53
1631106811968,1.94
1631106811984,1.7
1631106812000,1.67
1631106812015,1.62
1631106812031,1.33
1631106812046,0.68
1631106812062,-0.36
1631106812078,-1.69
1631106812093,-3.09
1631106812109,-4.36
1631106812125,-5.39
1631106812140,-6.19
1631106812156,-6.92
1631106812171,-7.74
1631106812187,-8.75
1631106812203,-9.92
1631106812218,-11.09
1631106812234,-12.09
1631106812250,-12.88
1631106812265,-13.58
1631106812281,-14.46
1631106812296,-15.83
1631106812312,-17.89
1631106812328,-20.63
1631106812343,-23.81
1631106812359,-26.94
1631106812375,-29.42
1631106812390,-30.68
1631106812406,-30.25
1631106812421,-27.88
1631106812437,-23.61
1631106812453,-17.79
1631106812468,-11.06
1631106812484,-4.18
1631106812500,2.09
1631106812515,7.23
1631106812531,11.02
1631106812546,13.56
1631106812562,15.08
1631106812578,15.87
1631106812593,16.13
1631106812609,15.95
1631106812625,15.34
1631106812640,14.37
1631106812656,13.19
1631106812671,12.03
1631106812687,11.09
1631106812703,10.51
1631106812718,10.26
1631106812734,10.24
1631106812750,10.33
1631106812765,10.47
1631106812781,10.69
1631106812796,11.04
1631106812812,11.52
1631106812828,12.05
1631106812843,12.47
1631106812859,12.6
1631106812875,12.34
1631106812890,11.72
1631106812906,10.85
1631106812921,9.87
1631106812937,8.9
1631106812953,7.96
1631106812968,7.05
1631106812984,6.1
1631106813000,5.11
1631106813015,4.09
1631106813031,3.1
1631106813046,2.22
1631106813062,1.51
1631106813078,0.95
1631106813093,0.48
1631106813109,-0.01
1631106813125,-0.62
1631106813140,-1.37
1631106813156,-2.22
1631106813171,-3.07
1631106813187,-3.83
1631106813203,-4.52
1631106813218,-5.24
1631106813234,-6.12
1631106813250,-7.23
1631106813265,-8.55
1631106813281,-9.95
1631106813296,-11.28
1631106813312,-12.42
1631106813328,-13.38
1631106813343,-14.24
1631106813359,-15.2
1631106813375,-16.45
1631106813390,-18.17
1631106813406,-20.43
1631106813421,-23.12
1631106813437,-25.92
1631106813453,-28.3
1631106813468,-29.62
1631106813484,-29.33
1631106813500,-27.08
1631106813515,-22.92
1631106813531,-17.28
1631106813546,-10.86
1631106813562,-4.44
1631106813578,1.35
1631106813593,6.13
1631106813609,9.83
1631106813625,12.53
1631106813640,14.39
1631106813656,15.5
1631106813671,15.88
1631106813687,15.54
1631106813703,14.6
1631106813718,13.31
1631106813734,12.03
1631106813750,11.04
1631106813765,10.47
1631106813781,10.26
1631106813796,10.26
1631106813812,10.37
1631106813828,10.57
1631106813843,10.88
1631106813859,11.35
1631106813875,11.92
1631106813890,12.44
1631106813906,12.73
1631106813921,12.68
1631106813937,12.29
1631106813953,11.68
1631106813968,10.99
1631106813984,10.31
1631106814000,9.67
1631106814015,9.02
1631106814031,8.29
1631106814046,7.46
1631106814062,6.52
1631106814078,5.48
1631106814093,4.36
1631106814109,3.21
1631106814125,2.08
1631106814140,1.03
1631106814156,0.11
1631106814171,-0.64
1631106814187,-1.21
1631106814203,-1.62
1631106814218,-1.92
1631106814234,-2.15
1631106814250,-2.4
1631106814265,-2.77
1631106814281,-3.39
1631106814296,-4.34
1631106814312,-5.67
1631106814328,-7.29
1631106814343,-9.02
1631106814359,-10.64
1631106814375,-11.98
1631106814390,-13.03
1631106814406,-13.91
1631106814421,-14.84
1631106814437,-16.08
1631106814453,-17.83
1631106814468,-20.14
1631106814484,-22.91
1631106814500,-25.88
1631106814515,-28.58
1631106814531,-30.46
1631106814546,-30.9
1631106814562,-29.42
1631106814578,-25.85
1631106814593,-20.41
1631106814609,-13.7
1631106814625,-6.62
1631106814640,-0.06
1631106814656,5.38
1631106814671,9.44
1631106814687,12.24
1631106814703,14.07
1631106814718,15.21
1631106814734,15.76
1631106814750,15.72
1631106814765,15.08
1631106814781,13.96
1631106814796,12.64
1631106814812,11.44
1631106814828,10.65
1631106814843,10.34
1631106814859,10.43
1631106814875,10.69
1631106814890,10.93
1631106814906,11.08
1631106814921,11.18
1631106814937,11.35
1631106814953,11.68
1631106814968,12.17
1631106814984,12.71
1631106815000,13.13
1631106815015,13.22
1631106815031,12.86
1631106815046,12.08
1631106815062,11.0
1631106815078,9.82
1631106815093,8.73
1631106815109,7.82
1631106815125,7.09
1631106815140,6.45
1631106815156,5.79
1631106815171,5.05
1631106815187,4.19
1631106815203,3.24
1631106815218,2.24
1631106815234,1.24
1631106815250,0.29
1631106815265,-0.56
1631106815281,-1.29
1631106815296,-1.89
1631106815312,-2.44
1631106815328,-3.04
1631106815343,-3.79
1631106815359,-4.75
1631106815375,-5.92
1631106815390,-7.26
1631106815406,-8.68
1631106815421,-10.12
1631106815437,-11.51
1631106815453,-12.81
1631106815468,-14.05
1631106815484,-15.34
1631106815500,-16.88
1631106815515,-18.92
1631106815531,-21.56
1631106815546,-24.65
1631106815562,-27.68
1631106815578,-29.89
1631106815593,-30.51
1631106815609,-29.03
1631106815625,-25.36
1631106815640,-19.91
1631106815656,-13.39
1631106815671,-6.62
1631106815687,-0.25
1631106815703,5.27
1631106815718,9.77
1631106815734,13.17
1631106815750,15.48
1631106815765,16.73
1631106815781,17.0
1631106815796,16.48
1631106815812,15.46
1631106815828,14.29
1631106815843,13.24
1631106815859,12.46
1631106815875,11.93
1631106815890,11.51
1631106815906,11.09
1631106815921,10.62
1631106815937,10.22
1631106815953,10.03
1631106815968,10.16
1631106815984,10.63
1631106816000,11.29
1631106816015,11.98
1631106816031,12.53
1631106816046,12.82
1631106816062,12.75
1631106816078,12.28
1631106816093,11.39
1631106816109,10.15
1631106816125,8.69
1631106816140,7.2
1631106816156,5.8
1631106816171,4.55
1631106816187,3.42
1631106816203,2.32
1631106816218,1.17
1631106816234,-0.05
1631106816250,-1.23
1631106816265,-2.23
1631106816281,-2.89
1631106816296,-3.08
1631106816312,-2.8
1631106816328,-2.16
1631106816343,-1.39
1631106816359,-0.74
1631106816375,-0.43
1631106816390,-0.55
1631106816406,-1.09
1631106816421,-1.89
1631106816437,-2.79
1631106816453,-3.67
1631106816468,-4.5
1631106816484,-5.38
1631106816500,-6.48
1631106816515,-8.05
1631106816531,-10.25
1631106816546,-13.14
1631106816562,-16.53
1631106816578,-19.95
1631106816593,-22.74
1631106816609,-24.2
1631106816625,-23.81
1631106816640,-21.45
1631106816656,-17.41
1631106816671,-12.29
1631106816687,-6.8
1631106816703,-1.56
1631106816718,2.99
1631106816734,6.64
1631106816750,9.31
1631106816765,10.99
1631106816781,11.71
1631106816796,11.56
1631106816812,10.67
1631106816828,9.27
1631106816843,7.59
1631106816859,5.85
1631106816875,4.22
1631106816890,2.83
1631106816906,1.82
1631106816921,1.28
1631106816937,1.29
1631106816953,1.82
1631106816968,2.69
1631106816984,3.67
1631106817000,4.52
1631106817015,5.09
1631106817031,5.38
1631106817046,5.45
1631106817062,5.4
1631106817078,5.24
1631106817093,4.94
1631106817109,4.48
1631106817125,3.89
1631106817140,3.25
1631106817156,2.62
1631106817171,1.97
1631106817187,1.17
1631106817203,0.1
1631106817218,-1.26
1631106817234,-2.75
1631106817250,-4.06
1631106817265,-4.95
1631106817281,-5.37
1631106817296,-5.49
1631106817312,-5.6
1631106817328,-5.95
1631106817343,-6.62
1631106817359,-7.52
1631106817375,-8.47
1631106817390,-9.35
1631106817406,-10.15
1631106817421,-10.96
1631106817437,-11.88
1631106817453,-13.05
1631106817468,-14.57
1631106817484,-16.56
1631106817500,-19.03
1631106817515,-21.82
1631106817531,-24.52
1631106817546,-26.48
1631106817562,-26.95
1631106817578,-25.38
1631106817593,-21.62
1631106817609,-16.0
1631106817625,-9.27
1631106817640,-2.33
1631106817656,4.05
1631106817671,9.39
1631106817687,13.5
1631106817703,16.4
1631106817718,18.14
1631106817734,18.82
1631106817750,18.55
1631106817765,17.5
1631106817781,15.95
1631106817796,14.24
1631106817812,12.68
1631106817828,11.49
1631106817843,10.72
1631106817859,10.32
1631106817875,10.14
1631106817890,10.1
1631106817906,10.14
1631106817921,10.28
1631106817937,10.59
1631106817953,11.12
1631106817968,11.85
1631106817984,12.71
1631106818000,13.49
1631106818015,13.99
1631106818031,14.01
1631106818046,13.49
1631106818062,12.49
1631106818078,11.17
1631106818093,9.73
1631106818109,8.32
1631106818125,6.94
1631106818140,5.53
1631106818156,4.03
1631106818171,2.42
1631106818187,0.82
1631106818203,-0.61
1631106818218,-1.71
1631106818234,-2.46
1631106818250,-2.99
1631106818265,-3.55
1631106818281,-4.38
1631106818296,-5.61
1631106818312,-7.17
1631106818328,-8.89
1631106818343,-10.52
1631106818359,-11.9
1631106818375,-13.02
1631106818390,-13.97
1631106818406,-15.02
1631106818421,-16.42
1631106818437,-18.4
1631106818453,-21.05
1631106818468,-24.24
1631106818484,-27.58
1631106818500,-30.43
1631106818515,-32.04
1631106818531,-31.72
1631106818546,-29.08
1631106818562,-24.19
1631106818578,-17.58
1631106818593,-10.13
1631106818609,-2.74
1631106818625,3.82
1631106818640,9.14
1631106818656,13.13
1631106818671,15.93
1631106818687,17.77
1631106818703,18.87
1631106818718,19.4
1631106818734,19.5
1631106818750,19.29
1631106818765,18.87
1631106818781,18.35
1631106818796,17.8
1631106818812,17.26
1631106818828,16.75
1631106818843,16.27
1631106818859,15.79
1631106818875,15.29
1631106818890,14.78
1631106818906,14.31
1631106818921,13.99
1631106818937,13.94
1631106818953,14.22
1631106818968,14.73
1631106818984,15.25
1631106819000,15.5
1631106819015,15.27
1631106819031,14.52
1631106819046,13.35
1631106819062,11.94
1631106819078,10.42
1631106819093,8.85
1631106819109,7.23
1631106819125,5.61
1631106819140,4.12
1631106819156,2.93
1631106819171,2.15
1631106819187,1.7
1631106819203,1.37
1631106819218,0.91
1631106819234,0.13
1631106819250,-0.93
1631106819265,-2.05
1631106819281,-2.95
1631106819296,-3.46
1631106819312,-3.59
1631106819328,-3.53
1631106819343,-3.58
1631106819359,-3.98
1631106819375,-4.86
1631106819390,-6.22
1631106819406,-7.96
1631106819421,-9.89
1631106819437,-11.84
1631106819453,-13.62
1631106819468,-15.08
1631106819484,-16.2
1631106819500,-17.06
1631106819515,-17.96
1631106819531,-19.31
1631106819546,-21.49
1631106819562,-24.64
1631106819578,-28.46
1631106819593,-32.2
1631106819609,-34.81
1631106819625,-35.32
1631106819640,-33.15
1631106819656,-28.36
1631106819671,-21.58
1631106819687,-13.85
1631106819703,-6.2
1631106819718,0.61
1631106819734,6.18
1631106819750,10.47
1631106819765,13.59
1631106819781,15.71
1631106819796,16.93
1631106819812,17.36
1631106819828,17.12
1631106819843,16.4
1631106819859,15.47
1631106819875,14.62
1631106819890,14.03
1631106819906,13.76
1631106819921,13.67
1631106819937,13.61
1631106819953,13.44
1631106819968,13.14
1631106819984,12.85
1631106820000,12.75
1631106820015,12.95
1631106820031,13.43
1631106820046,14.03
1631106820062,14.57
1631106820078,14.91
1631106820093,15.02
1631106820109,14.88
1631106820125,14.49
1631106820140,13.78
1631106820156,12.69
1631106820171,11.23
1631106820187,9.56
1631106820203,7.9
1631106820218,6.48
1631106820234,5.39
1631106820250,4.56
1631106820265,3.84
1631106820281,3.07
1631106820296,2.2
1631106820312,1.27
1631106820328,0.36
1631106820343,-0.49
1631106820359,-1.3
1631106820375,-2.11
1631106820390,-2.96
1631106820406,-3.85
1631106820421,-4.75
1631106820437,-5.64
1631106820453,-6.51
1631106820468,-7.38
1631106820484,-8.28
1631106820500,-9.2
1631106820515,-10.15
1631106820531,-11.11
1631106820546,-12.04
1631106820562,-12.9
1631106820578,-13.66
1631106820593,-14.38
1631106820609,-15.26
1631106820625,-16.56
1631106820640,-18.59
1631106820656,-21.46
1631106820671,-24.99
1631106820687,-28.62
1631106820703,-31.51
1631106820718,-32.78
1631106820734,-31.74
1631106820750,-28.19
1631106820765,-22.44
1631106820781,-15.24
1631106820796,-7.58
1631106820812,-0.4
1631106820828,5.63
1631106820843,10.19
1631106820859,13.29
1631106820875,15.18
1631106820890,16.13
1631106820906,16.35
1631106820921,16.02
1631106820937,15.3
1631106820953,14.39
1631106820968,13.54
1631106820984,12.95
1631106821000,12.72
1631106821015,12.78
1631106821031,12.93
1631106821046,12.99
1631106821062,12.88
1631106821078,12.68
1631106821093,12.56
1631106821109,12.69
1631106821125,13.13
1631106821140,13.77
1631106821156,14.41
1631106821171,14.79
1631106821187,14.76
1631106821203,14.29
1631106821218,13.47
1631106821234,12.47
1631106821250,11.42
1631106821265,10.41
1631106821281,9.47
1631106821296,8.55
1631106821312,7.61
1631106821328,6.61
1631106821343,5.54
1631106821359,4.44
1631106821375,3.35
1631106821390,2.29
1631106821406,1.25
1631106821421,0.2
1631106821437,-0.9
1631106821453,-2.03
1631106821468,-3.09
1631106821484,-4.0
1631106821500,-4.67
1631106821515,-5.18
1631106821531,-5.69
1631106821546,-6.4
1631106821562,-7.46
1631106821578,-8.83
1631106821593,-10.33
1631106821609,-11.71
1631106821625,-12.77
1631106821640,-13.47
1631106821656,-13.92
1631106821671,-14.33
1631106821687,-14.93
1631106821703,-15.98
1631106821718,-17.67
1631106821734,-20.08
1631106821750,-23.05
1631106821765,-26.14
1631106821781,-28.62
1631106821796,-29.63
1631106821812,-28.46
1631106821828,-24.87
1631106821843,-19.17
1631106821859,-12.23
1631106821875,-5.14
1631106821890,1.17
1631106821906,6.16
1631106821921,9.73
1631106821937,12.06
1631106821953,13.42
1631106821968,13.99
1631106821984,13.85
1631106822000,13.06
1631106822015,11.77
1631106822031,10.26
1631106822046,8.86
1631106822062,7.79
1631106822078,7.13
1631106822093,6.8
1631106822109,6.61
1631106822125,6.39
1631106822140,6.09
1631106822156,5.76
1631106822171,5.55
1631106822187,5.64
1631106822203,6.12
1631106822218,6.93
1631106822234,7.92
1631106822250,8.81
1631106822265,9.36
1631106822281,9.39
1631106822296,8.88
1631106822312,7.96
1631106822328,6.8
1631106822343,5.61
1631106822359,4.47
1631106822375,3.39
1631106822390,2.33
1631106822406,1.26
1631106822421,0.22
1631106822437,-0.7
1631106822453,-1.4
1631106822468,-1.84
1631106822484,-2.1
1631106822500,-2.37
1631106822515,-2.85
1631106822531,-3.68
1631106822546,-4.82
1631106822562,-6.11
1631106822578,-7.32
1631106822593,-8.28
1631106822609,-8.97
1631106822625,-9.5
1631106822640,-10.05
1631106822656,-10.79
1631106822671,-11.86
1631106822687,-13.36
1631106822703,-15.38
1631106822718,-17.94
1631106822734,-20.89
1631106822750,-23.85
1631106822765,-26.16
1631106822781,-27.07
1631106822796,-25.95
1631106822812,-22.6
1631106822828,-17.34
1631106822843,-10.89
1631106822859,-4.21
1631106822875,1.91
1631106822890,6.97
1631106822906,10.86
1631106822921,13.68
1631106822937,15.6
1631106822953,16.7
1631106822968,17.04
1631106822984,16.65
1631106823000,15.63
1631106823015,14.22
1631106823031,12.72
1631106823046,11.43
1631106823062,10.51
1631106823078,10.0
1631106823093,9.79
1631106823109,9.73
1631106823125,9.7
1631106823140,9.68
1631106823156,9.73
1631106823171,9.9
1631106823187,10.25
1631106823203,10.73
1631106823218,11.19
1631106823234,11.48
1631106823250,11.47
1631106823265,11.1
1631106823281,10.44
1631106823296,9.63
1631106823312,8.8
1631106823328,8.05
1631106823343,7.36
1631106823359,6.63
1631106823375,5.73
1631106823390,4.58
1631106823406,3.2
1631106823421,1.74
1631106823437,0.41
1631106823453,-0.61
1631106823468,-1.23
1631106823484,-1.58
1631106823500,-1.89
1631106823515,-2.41
1631106823531,-3.33
1631106823546,-4.66
1631106823562,-6.28
1631106823578,-7.95
1631106823593,-9.44
1631106823609,-10.61
1631106823625,-11.47
1631106823640,-12.15
1631106823656,-12.92
1631106823671,-14.08
1631106823687,-15.91
1631106823703,-18.56
1631106823718,-22.01
1631106823734,-25.94
1631106823750,-29.75
1631106823765,-32.68
1631106823781,-33.92
1631106823796,-32.86
1631106823812,-29.31
1631106823828,-23.57
1631106823843,-16.39
1631106823859,-8.72
1631106823875,-1.51
1631106823890,4.57
1631106823906,9.19
1631106823921,12.37
1631106823937,14.32
1631106823953,15.34
1631106823968,15.72
1631106823984,15.66
1631106824000,15.31
1631106824015,14.81
1631106824031,14.27
1631106824046,13.78
1631106824062,13.41
1631106824078,13.16
1631106824093,13.04
1631106824109,13.0
1631106824125,13.04
1631106824140,13.12
1631106824156,13.21
1631106824171,13.3
1631106824187,13.37
1631106824203,13.39
1631106824218,13.37
1631106824234,13.31
1631106824250,13.19
1631106824265,12.95
1631106824281,12.48
1631106824296,11.7
1631106824312,10.58
1631106824328,9.19
1631106824343,7.71
1631106824359,6.36
1631106824375,5.29
1631106824390,4.57
1631106824406,4.09
1631106824421,3.7
1631106824437,3.2
1631106824453,2.52
1631106824468,1.66
1631106824484,0.71
1631106824500,-0.21
1631106824515,-1.03
1631106824531,-1.77
1631106824546,-2.51
1631106824562,-3.4
1631106824578,-4.53
1631106824593,-5.9
1631106824609,-7.44
1631106824625,-9.0
1631106824640,-10.45
1631106824656,-11.72
1631106824671,-12.8
1631106824687,-13.76
1631106824703,-14.71
1631106824718,-15.83
1631106824734,-17.33
1631106824750,-19.42
1631106824765,-22.19
1631106824781,-25.52
1631106824796,-28.93
1631106824812,-31.68
1631106824828,-32.9
1631106824843,-31.9
1631106824859,-28.44
1631106824875,-22.83
1631106824890,-15.83
1631106824906,-8.43
1631106824921,-1.53
1631106824937,4.28
1631106824953,8.78
1631106824968,12.1
1631106824984,14.46
1631106825000,16.09
1631106825015,17.09
1631106825031,17.48
1631106825046,17.27
1631106825062,16.53
1631106825078,15.43
1631106825093,14.19
1631106825109,13.06
1631106825125,12.19
1631106825140,11.66
1631106825156,11.46
1631106825171,11.56
1631106825187,11.91
1631106825203,12.49
1631106825218,13.26
1631106825234,14.15
1631106825250,15.02
1631106825265,15.7
1631106825281,16.0
1631106825296,15.81
1631106825312,15.14
1631106825328,14.11
1631106825343,12.93
1631106825359,11.78
1631106825375,10.74
1631106825390,9.78
1631106825406,8.8
1631106825421,7.72
1631106825437,6.56
1631106825453,5.39
1631106825468,4.29
1631106825484,3.28
1631106825500,2.32
1631106825515,1.34
1631106825531,0.3
1631106825546,-0.77
1631106825562,-1.79
1631106825578,-2.7
1631106825593,-3.49
1631106825609,-4.23
1631106825625,-5.07
1631106825640,-6.09
1631106825656,-7.34
1631106825671,-8.73
1631106825687,-10.09
1631106825703,-11.26
1631106825718,-12.17
1631106825734,-12.83
1631106825750,-13.4
1631106825765,-14.13
1631106825781,-15.27
1631106825796,-17.07
1631106825812,-19.63
1631106825828,-22.85
1631106825843,-26.34
1631106825859,-29.48
1631106825875,-31.49
1631106825890,-31.65
1631106825906,-29.57
1631106825921,-25.29
1631106825937,-19.37
1631106825953,-12.64
1631106825968,-5.98
1631106825984,-0.07
1631106826000,4.73
1631106826015,8.34
1631106826031,10.86
1631106826046,12.42
1631106826062,13.14
1631106826078,13.12
1631106826093,12.49
1631106826109,11.41
1631106826125,10.13
1631106826140,8.86
1631106826156,7.76
1631106826171,6.92
1631106826187,6.35
1631106826203,6.04
1631106826218,5.98
1631106826234,6.19
1631106826250,6.7
1631106826265,7.47
1631106826281,8.43
1631106826296,9.42
1631106826312,10.28
1631106826328,10.86
1631106826343,11.07
1631106826359,10.92
1631106826375,10.46
1631106826390,9.8
1631106826406,9.06
1631106826421,8.32
1631106826437,7.58
1631106826453,6.78
1631106826468,5.79
1631106826484,4.51
1631106826500,2.93
1631106826515,1.16
1631106826531,-0.56
1631106826546,-2.0
1631106826562,-3.02
1631106826578,-3.61
1631106826593,-3.97
1631106826609,-4.34
1631106826625,-4.92
1631106826640,-5.8
1631106826656,-6.96
1631106826671,-8.26
1631106826687,-9.57
1631106826703,-10.77
1631106826718,-11.82
1631106826734,-12.8
1631106826750,-13.89
1631106826765,-15.36
1631106826781,-17.49
1631106826796,-20.38
1631106826812,-23.84
1631106826828,-27.27
1631106826843,-29.81
1631106826859,-30.55
1631106826875,-28.92
1631106826890,-24.88
1631106826906,-18.97
1631106826921,-12.09
1631106826937,-5.17
1631106826953,1.12
1631106826968,6.46
1631106826984,10.81
1631106827000,14.27
1631106827015,16.87
1631106827031,18.58
1631106827046,19.34
1631106827062,19.16
1631106827078,18.2
1631106827093,16.77
1631106827109,15.25
1631106827125,13.97
1631106827140,13.13
1631106827156,12.71
1631106827171,12.57
1631106827187,12.53
1631106827203,12.46
1631106827218,12.34
1631106827234,12.3
1631106827250,12.48
1631106827265,12.94
1631106827281,13.58
1631106827296,14.2
1631106827312,14.55
1631106827328,14.53
1631106827343,14.11
1631106827359,13.41
1631106827375,12.53
1631106827390,11.58
1631106827406,10.54
1631106827421,9.37
1631106827437,8.01
1631106827453,6.38
1631106827468,4.53
1631106827484,2.56
1631106827500,0.65
1631106827515,-0.96
1631106827531,-2.08
1631106827546,-2.68
1631106827562,-2.85
1631106827578,-2.9
1631106827593,-3.15
1631106827609,-3.9
1631106827625,-5.24
1631106827640,-7.07
1631106827656,-9.13
1631106827671,-11.12
1631106827687,-12.82
1631106827703,-14.13
1631106827718,-15.1
1631106827734,-15.93
1631106827750,-16.94
1631106827765,-18.51
1631106827781,-20.9
1631106827796,-24.16
1631106827812,-27.93
1631106827828,-31.47
1631106827843,-33.81
1631106827859,-34.08
1631106827875,-31.77
1631106827890,-26.94
1631106827906,-20.24
1631106827921,-12.64
1631106827937,-5.16
1631106827953,1.42
1631106827968,6.68
1631106827984,10.56
1631106828000,13.2
1631106828015,14.86
1631106828031,15.8
1631106828046,16.25
1631106828062,16.4
1631106828078,16.4
1631106828093,16.31
1631106828109,16.12
1631106828125,15.77
1631106828140,15.19
1631106828156,14.38
1631106828171,13.41
1631106828187,12.44
1631106828203,11.67
1631106828218,11.26
1631106828234,11.31
1631106828250,11.84
1631106828265,12.72
1631106828281,13.74
1631106828296,14.6
1631106828312,15.04
1631106828328,14.86
1631106828343,14.05
1631106828359,12.77
1631106828375,11.27
1631106828390,9.82
1631106828406,8.56
1631106828421,7.52
1631106828437,6.61
1631106828453,5.71
1631106828468,4.74
1631106828484,3.69
1631106828500,2.59
1631106828515,1.47
1631106828531,0.41
1631106828546,-0.54
1631106828562,-1.32
1631106828578,-1.94
1631106828593,-2.46
1631106828609,-3.07
1631106828625,-3.94
1631106828640,-5.22
1631106828656,-6.9
1631106828671,-8.82
1631106828687,-10.75
1631106828703,-12.46
1631106828718,-13.82
1631106828734,-14.84
1631106828750,-15.63
1631106828765,-16.4
1631106828781,-17.43
1631106828796,-19.0
1631106828812,-21.27
1631106828828,-24.24
1631106828843,-27.53
1631106828859,-30.48
1631106828875,-32.2
1631106828890,-31.86
1631106828906,-29.02
1631106828921,-23.79
1631106828937,-16.81
1631106828953,-9.09
1631106828968,-1.62
1631106828984,4.84
1631106829000,9.93
1631106829015,13.67
1631106829031,16.29
1631106829046,18.06
1631106829062,19.18
1631106829078,19.75
1631106829093,19.87
1631106829109,19.71
1631106829125,19.51
1631106829140,19.54
1631106829156,19.93
1631106829171,20.63
1631106829187,21.45
1631106829203,22.21
1631106829218,22.84
1631106829234,23.49
1631106829250,24.43
1631106829265,25.92
1631106829281,28.05
1631106829296,30.66
1631106829312,33.44
1631106829328,36.0
1631106829343,38.04
1631106829359,39.41
1631106829375,40.14
1631106829390,40.42
1631106829406,40.48
1631106829421,40.57
1631106829437,40.84
1631106829453,41.31
1631106829468,41.91
1631106829484,42.49
1631106829500,42.98
1631106829515,43.4
1631106829531,43.98
1631106829546,45.09
1631106829562,47.16
1631106829578,50.53
1631106829593,55.25
1631106829609,60.97
1631106829625,67.01
1631106829640,72.56
1631106829656,77.03
1631106829671,80.37
1631106829687,83.13
1631106829703,86.27
1631106829718,90.76
1631106829734,97.13
1631106829750,105.21
1631106829765,114.22
1631106829781,123.08
1631106829796,130.88
1631106829812,137.34
1631106829828,143.05
1631106829843,149.5
1631106829859,158.64
1631106829875,172.39
1631106829890,191.76
1631106829906,216.13
1631106829921,242.99
1631106829937,268.1
1631106829953,286.6
1631106829968,294.3
1631106829984,289.08
1631106830000,271.47
1631106830015,244.23
1631106830031,210.92
1631106830046,174.43
1631106830062,136.2
1631106830078,96.18
1631106830093,53.52
1631106830109,7.6
1631106830125,-41.27
1631106830140,-91.89
1631106830156,-142.78
1631106830171,-193.16
1631106830187,-243.45
1631106830203,-294.78
1631106830218,-348.53
1631106830234,-405.97
1631106830250,-468.27
1631106830265,-536.25
1631106830281,-609.39
1631106830296,-684.95
1631106830312,-757.25
1631106830328,-818.41
1631106830343,-859.62
1631106830359,-874.24
1631106830375,-860.49
1631106830390,-822.33
1631106830406,-767.75
1631106830421,-705.02
1631106830437,-640.39
1631106830453,-577.12
1631106830468,-516.84
1631106830484,-459.15
1631106830500,-403.38
1631106830515,-349.28
1631106830531,-297.09
1631106830546,-246.72
1631106830562,-196.06
1631106830578,-142.91
1631106830593,-86.59
1631106830609,-30.06
1631106830625,24.41
1631106830640,75.35
1631106830656,122.89
1631106830671,168.06
1631106830687,212.63
1631106830703,260.31
1631106830718,312.84
1631106830734,367.89
1631106830750,416.66
1631106830765,452.23
1631106830781,470.85
1631106830796,473.38
1631106830812,463.73
1631106830828,448.06
1631106830843,435.8
1631106830859,434.51
1631106830875,446.96
1631106830890,467.46
1631106830906,491.31
1631106830921,514.83
1631106830937,535.98
1631106830953,552.59
1631106830968,544.83
1631106830984,499.89
1631106831000,419.43
1631106831015,339.97
1631106831031,272.96
1631106831046,220.24
1631106831062,174.28
1631106831078,133.12
1631106831093,95.64
1631106831109,61.1
1631106831125,31.83
1631106831140,9.93
1631106831156,-4.46
1631106831171,-16.76
1631106831187,-29.26
1631106831203,-42.42
1631106831218,-55.23
1631106831234,-67.61
1631106831250,-79.8
1631106831265,-89.69
1631106831281,-95.18
1631106831296,-95.56
1631106831312,-94.52
1631106831328,-93.55
1631106831343,-92.9
1631106831359,-91.75
1631106831375,-90.01
1631106831390,-87.91
1631106831406,-84.52
1631106831421,-79.22
1631106831437,-72.42
1631106831453,-67.15
1631106831468,-64.65
1631106831484,-64.89
1631106831500,-66.78
1631106831515,-69.53
1631106831531,-72.57
1631106831546,-74.82
1631106831562,-75.37
1631106831578,-73.91
1631106831593,-71.53
1631106831609,-68.7
1631106831625,-65.58
1631106831640,-62.08
1631106831656,-58.34
1631106831671,-54.61
1631106831687,-50.95
1631106831703,-47.42
1631106831718,-44.18
1631106831734,-41.82
1631106831750,-40.48
1631106831765,-39.94
1631106831781,-39.63
1631106831796,-38.97
1631106831812,-37.46
1631106831828,-34.78
1631106831843,-30.85
1631106831859,-25.84
1631106831875,-20.09
1631106831890,-14.01
1631106831906,-8.03
1631106831921,-2.48
1631106831937,2.46
1631106831953,6.73
1631106831968,10.39
1631106831984,13.52
1631106832000,16.16
1631106832015,18.27
1631106832031,19.77
1631106832046,20.6
1631106832062,20.81
1631106832078,20.56
1631106832093,20.11
1631106832109,19.74
1631106832125,19.67
1631106832140,19.98
1631106832156,20.59
1631106832171,21.26
1631106832187,21.75
1631106832203,21.86
1631106832218,21.54
1631106832234,20.88
1631106832250,20.05
1631106832265,19.21
1631106832281,18.45
1631106832296,17.72
1631106832312,16.93
1631106832328,15.96
1631106832343,14.75
1631106832359,13.26
1631106832375,11.56
1631106832390,9.69
1631106832406,7.72
1631106832421,5.78
1631106832437,3.98
1631106832453,2.47
1631106832468,1.39
1631106832484,0.72
1631106832500,0.37
1631106832515,0.08
1631106832531,-0.4
1631106832546,-1.25
1631106832562,-2.48
1631106832578,-3.92
1631106832593,-5.31
1631106832609,-6.45
1631106832625,-7.27
1631106832640,-7.89
1631106832656,-8.58
1631106832671,-9.67
1631106832687,-11.46
1631106832703,-14.08
1631106832718,-17.44
1631106832734,-21.18
1631106832750,-24.75
1631106832765,-27.49
1631106832781,-28.78
1631106832796,-28.21
1631106832812,-25.69
1631106832828,-21.46
1631106832843,-16.04
1631106832859,-10.1
1631106832875,-4.3
1631106832890,0.87
1631106832906,5.08
1631106832921,8.24
1631106832937,10.4
1631106832953,11.74
1631106832968,12.45
1631106832984,12.75
1631106833000,12.81
1631106833015,12.78
1631106833031,12.76
1631106833046,12.79
1631106833062,12.87
1631106833078,12.92
1631106833093,12.85
1631106833109,12.58
1631106833125,12.14
1631106833140,11.61
1631106833156,11.15
1631106833171,10.86
1631106833187,10.78
1631106833203,10.87
1631106833218,11.0
1631106833234,11.05
1631106833250,10.92
1631106833265,10.58
1631106833281,10.02
1631106833296,9.25
1631106833312,8.33
1631106833328,7.32
1631106833343,6.34
1631106833359,5.43
1631106833375,4.56
1631106833390,3.62
1631106833406,2.49
1631106833421,1.14
1631106833437,-0.33
1631106833453,-1.73
1631106833468,-2.87
1631106833484,-3.73
1631106833500,-4.43
1631106833515,-5.17
1631106833531,-6.13
1631106833546,-7.32
1631106833562,-8.62
1631106833578,-9.86
1631106833593,-10.92
1631106833609,-11.83
1631106833625,-12.75
1631106833640,-13.87
1631106833656,-15.4
1631106833671,-17.43
1631106833687,-19.93
1631106833703,-22.69
1631106833718,-25.3
1631106833734,-27.23
1631106833750,-27.95
1631106833765,-27.06
1631106833781,-24.46
1631106833796,-20.34
1631106833812,-15.17
1631106833828,-9.52
1631106833843,-3.96
1631106833859,1.1
1631106833875,5.37
1631106833890,8.76
1631106833906,11.25
1631106833921,12.93
1631106833937,13.91
1631106833953,14.33
1631106833968,14.34
1631106833984,14.06
1631106834000,13.61
1631106834015,13.06
1631106834031,12.47
1631106834046,11.88
1631106834062,11.32
1631106834078,10.84
1631106834093,10.5
1631106834109,10.38
1631106834125,10.53
1631106834140,10.94
1631106834156,11.5
1631106834171,12.03
1631106834187,12.33
1631106834203,12.27
1631106834218,11.88
1631106834234,11.26
1631106834250,10.56
1631106834265,9.89
1631106834281,9.22
1631106834296,8.44
1631106834312,7.46
1631106834328,6.24
1631106834343,4.88
1631106834359,3.56
1631106834375,2.4
1631106834390,1.47
1631106834406,0.68
1631106834421,-0.1
1631106834437,-0.97
1631106834453,-1.98
1631106834468,-3.05
1631106834484,-4.1
1631106834500,-5.08
1631106834515,-5.99
1631106834531,-6.93
1631106834546,-8.02
1631106834562,-9.34
1631106834578,-10.96
1631106834593,-12.91
1631106834609,-15.22
1631106834625,-17.9
1631106834640,-20.94
1631106834656,-24.17
1631106834671,-27.2
1631106834687,-29.44
1631106834703,-30.24
1631106834718,-29.14
1631106834734,-26.03
1631106834750,-21.25
1631106834765,-15.46
1631106834781,-9.4
1631106834796,-3.7
1631106834812,1.33
1631106834828,5.6
1631106834843,9.22
1631106834859,12.24
1631106834875,14.64
1631106834890,16.32
1631106834906,17.17
1631106834921,17.2
1631106834937,16.53
1631106834953,15.43
1631106834968,14.23
1631106834984,13.22
1631106835000,12.61
1631106835015,12.41
1631106835031,12.53
1631106835046,12.79
1631106835062,13.03
1631106835078,13.21
1631106835093,13.35
1631106835109,13.52
1631106835125,13.73
1631106835140,13.9
1631106835156,13.87
1631106835171,13.51
1631106835187,12.78
1631106835203,11.78
1631106835218,10.73
1631106835234,9.83
1631106835250,9.22
1631106835265,8.85
1631106835281,8.56
1631106835296,8.11
1631106835312,7.33
1631106835328,6.15
1631106835343,4.64
1631106835359,2.98
1631106835375,1.41
1631106835390,0.08
1631106835406,-0.96
1631106835421,-1.79
1631106835437,-2.6
1631106835453,-3.59
1631106835468,-4.85
1631106835484,-6.38
1631106835500,-8.05
1631106835515,-9.7
1631106835531,-11.19
1631106835546,-12.49
1631106835562,-13.65
1631106835578,-14.8
1631106835593,-16.1
1631106835609,-17.7
1631106835625,-19.75
1631106835640,-22.32
1631106835656,-25.35
1631106835671,-28.56
1631106835687,-31.41
1631106835703,-33.2
1631106835718,-33.25
1631106835734,-31.1
1631106835750,-26.8
1631106835765,-20.82
1631106835781,-14.02
1631106835796,-7.26
1631106835812,-1.24
1631106835828,3.71
1631106835843,7.59
1631106835859,10.58
1631106835875,12.88
1631106835890,14.61
1631106835906,15.8
1631106835921,16.45
1631106835937,16.61
1631106835953,16.41
1631106835968,16.08
1631106835984,15.81
1631106836000,15.7
1631106836015,15.69
1631106836031,15.62
1631106836046,15.35
1631106836062,14.88
1631106836078,14.33
1631106836093,13.94
1631106836109,13.92
1631106836125,14.27
1631106836140,14.82
1631106836156,15.26
1631106836171,15.31
1631106836187,14.82
1631106836203,13.81
1631106836218,12.46
1631106836234,11.03
1631106836250,9.73
1631106836265,8.71
1631106836281,8.01
1631106836296,7.55
1631106836312,7.2
1631106836328,6.8
1631106836343,6.27
1631106836359,5.55
1631106836375,4.68
1631106836390,3.74
1631106836406,2.79
1631106836421,1.86
1631106836437,0.99
1631106836453,0.19
1631106836468,-0.58
1631106836484,-1.31
1631106836500,-2.1
1631106836515,-3.01
1631106836531,-4.13
1631106836546,-5.5
1631106836562,-7.09
1631106836578,-8.78
1631106836593,-10.47
1631106836609,-12.07
1631106836625,-13.62
1631106836640,-15.28
1631106836656,-17.36
1631106836671,-20.16
1631106836687,-23.81
1631106836703,-28.09
1631106836718,-32.43
1631106836734,-35.96
1631106836750,-37.78
1631106836765,-37.23
1631106836781,-34.14
1631106836796,-28.86
1631106836812,-22.16
1631106836828,-14.94
1631106836843,-8.06
1631106836859,-2.1
1631106836875,2.66
1631106836890,6.2
1631106836906,8.68
1631106836921,10.29
1631106836937,11.24
1631106836953,11.69
1631106836968,11.8
1631106836984,11.73
1631106837000,11.62
1631106837015,11.62
1631106837031,11.82
1631106837046,12.22
1631106837062,12.77
1631106837078,13.37
1631106837093,13.96
1631106837109,14.5
1631106837125,14.99
1631106837140,15.48
1631106837156,15.98
1631106837171,16.45
1631106837187,16.83
1631106837203,17.02
1631106837218,16.94
1631106837234,16.55
1631106837250,15.83
1631106837265,14.79
1631106837281,13.46
1631106837296,11.88
1631106837312,10.14
1631106837328,8.34
1631106837343,6.57
1631106837359,4.9
1631106837375,3.35
1631106837390,1.87
1631106837406,0.37
1631106837421,-1.21
1631106837437,-2.86
1631106837453,-4.48
1631106837468,-5.9
1631106837484,-6.96
1631106837500,-7.58
1631106837515,-7.83
1631106837531,-7.91
1631106837546,-8.05
1631106837562,-8.4
1631106837578,-8.97
1631106837593,-9.67
1631106837609,-10.29
1631106837625,-10.68
1631106837640,-10.77
1631106837656,-10.63
1631106837671,-10.48
1631106837687,-10.56
1631106837703,-11.13
1631106837718,-12.41
1631106837734,-14.51
1631106837750,-17.29
1631106837765,-20.39
1631106837781,-23.17
1631106837796,-24.91
1631106837812,-24.99
1631106837828,-23.11
1631106837843,-19.4
1631106837859,-14.37
1631106837875,-8.73
1631106837890,-3.18
1631106837906,1.78
1631106837921,5.93
1631106837937,9.22
1631106837953,11.73
1631106837968,13.46
1631106837984,14.41
1631106838000,14.53
1631106838015,13.88
1631106838031,12.66
1631106838046,11.14
1631106838062,9.62
1631106838078,8.3
1631106838093,7.2
1631106838109,6.32
1631106838125,5.59
1631106838140,5.1
1631106838156,4.98
1631106838171,5.38
1631106838187,6.3
1631106838203,7.57
1631106838218,8.89
1631106838234,9.95
1631106838250,10.56
1631106838265,10.71
1631106838281,10.55
1631106838296,10.33
1631106838312,10.26
1631106838328,10.42
1631106838343,10.77
1631106838359,11.13
1631106838375,11.29
1631106838390,11.09
1631106838406,10.46
1631106838421,9.47
1631106838437,8.27
1631106838453,6.99
1631106838468,5.75
1631106838484,4.58
1631106838500,3.42
1631106838515,2.19
1631106838531,0.84
1631106838546,-0.68
1631106838562,-2.38
1631106838578,-4.22
1631106838593,-6.13
1631106838609,-8.01
1631106838625,-9.77
1631106838640,-11.4
1631106838656,-12.98
1631106838671,-14.71
1631106838687,-16.79
1631106838703,-19.33
1631106838718,-22.23
1631106838734,-25.14
1631106838750,-27.51
1631106838765,-28.77
1631106838781,-28.46
1631106838796,-26.39
1631106838812,-22.72
1631106838828,-17.86
1631106838843,-12.4
1631106838859,-6.94
1631106838875,-1.87
1631106838890,2.58
1631106838906,6.38
1631106838921,9.61
1631106838937,12.35
1631106838953,14.71
1631106838968,16.78
1631106838984,18.65
1631106839000,20.39
1631106839015,22.06
1631106839031,23.68
1631106839046,25.17
1631106839062,26.41
1631106839078,27.27
1631106839093,27.65
1631106839109,27.57
1631106839125,27.19
1631106839140,26.78
1631106839156,26.66
1631106839171,27.04
1631106839187,27.89
1631106839203,28.93
1631106839218,29.71
1631106839234,29.74
1631106839250,28.78
1631106839265,26.94
1631106839281,24.7
1631106839296,22.68
1631106839312,21.37
1631106839328,20.98
1631106839343,21.35
1631106839359,22.07
1631106839375,22.73
1631106839390,23.2
1631106839406,23.67
1631106839421,24.62
1631106839437,26.55
1631106839453,29.59
1631106839468,33.45
1631106839484,37.34
1631106839500,40.29
1631106839515,41.49
1631106839531,40.76
1631106839546,38.69
1631106839562,36.47
1631106839578,35.38
1631106839593,36.15
1631106839609,38.76
1631106839625,42.32
1631106839640,45.59
1631106839656,47.55
1631106839671,47.94
1631106839687,47.45
1631106839703,47.28
1631106839718,48.47
1631106839734,51.51
1631106839750,56.51
1631106839765,63.32
1631106839781,71.53
1631106839796,80.24
1631106839812,87.76
1631106839828,91.35
1631106839843,87.55
1631106839859,72.88
1631106839875,45.03
1631106839890,4.39
1631106839906,-46.48
1631106839921,-104.37
1631106839937,-167.14
1631106839953,-234.24
1631106839968,-305.53
1631106839984,-379.17
1631106840000,-450.02
1631106840015,-509.64
1631106840031,-547.66
1631106840046,-556.06
1631106840062,-532.88
1631106840078,-483.31
1631106840093,-417.31
1631106840109,-345.23
1631106840125,-274.1
1631106840140,-206.26
1631106840156,-140.53
1631106840171,-73.56
1631106840187,-3.2
1631106840203,69.6
1631106840218,140.87
1631106840234,205.7
1631106840250,260.67
1631106840265,304.71
1631106840281,338.33
1631106840296,355.14
1631106840312,348.2
1631106840328,315.05
1631106840343,261.11
1631106840359,197.13
1631106840375,134.5
1631106840390,82.75
1631106840406,48.12
1631106840421,32.23
1631106840437,31.48
1631106840453,39.48
1631106840468,49.09
1631106840484,54.77
1631106840500,54.03
1631106840515,47.69
1631106840531,38.77
1631106840546,30.36
1631106840562,24.07
1631106840578,19.76
1631106840593,17.19
1631106840609,16.25
1631106840625,16.78
1631106840640,18.14
1631106840656,19.18
1631106840671,18.82
1631106840687,16.55
1631106840703,12.7
1631106840718,8.33
1631106840734,5.35
1631106840750,5.38
1631106840765,8.77
1631106840781,14.36
1631106840796,20.12
1631106840812,24.24
1631106840828,25.82
1631106840843,24.82
1631106840859,21.9
1631106840875,18.22
1631106840890,15.17
1631106840906,13.46
1631106840921,13.3
1631106840937,14.22
1631106840953,15.28
1631106840968,15.39
1631106840984,13.68
1631106841000,9.92
1631106841015,4.87
1631106841031,-0.14
1631106841046,-3.99
1631106841062,-6.27
1631106841078,-7.52
1631106841093,-8.8
1631106841109,-11.02
1631106841125,-14.44
1631106841140,-18.64
1631106841156,-22.78
1631106841171,-26.18
1631106841187,-28.66
1631106841203,-30.35
1631106841218,-31.43
1631106841234,-31.88
1631106841250,-31.38
1631106841265,-29.65
1631106841281,-26.75
1631106841296,-23.18
1631106841312,-19.88
1631106841328,-17.75
1631106841343,-17.21
1631106841359,-18.03
1631106841375,-19.39
1631106841390,-20.28
1631106841406,-19.96
1631106841421,-18.18
1631106841437,-15.15
1631106841453,-11.55
1631106841468,-8.2
1631106841484,-5.74
1631106841500,-4.7
1631106841515,-5.24
1631106841531,-7.16
1631106841546,-9.8
1631106841562,-12.07
1631106841578,-12.53
1631106841593,-10.17
1631106841609,-4.66
1631106841625,3.53
1631106841640,13.4
1631106841656,23.77
1631106841671,33.59
1631106841687,42.38
1631106841703,50.35
1631106841718,58.27
1631106841734,66.32
1631106841750,73.82
1631106841765,79.61
1631106841781,82.8
1631106841796,83.19
1631106841812,81.25
1631106841828,78.12
1631106841843,75.4
1631106841859,74.62
1631106841875,75.58
1631106841890,76.46
1631106841906,74.98
1631106841921,69.97
1631106841937,61.95
1631106841953,52.62
1631106841968,44.17
1631106841984,38.41
1631106842000,36.06
1631106842015,35.27
1631106842031,32.39
1631106842046,23.8
1631106842062,7.64
1631106842078,-16.5
1631106842093,-48.98
1631106842109,-90.75
1631106842125,-142.67
1631106842140,-196.37
1631106842156,-237.36
1631106842171,-252.65
1631106842187,-238.93
1631106842203,-201.68
1631106842218,-150.61
1631106842234,-96.71
1631106842250,-49.69
1631106842265,-15.19
1631106842281,6.57
1631106842296,18.54
1631106842312,24.42
1631106842328,26.8
1631106842343,26.95
1631106842359,25.05
1631106842375,20.91
1631106842390,15.16
1631106842406,9.59
1631106842421,6.43
1631106842437,6.2
1631106842453,7.38
1631106842468,7.55
1631106842484,5.3
1631106842500,0.85
1631106842515,-4.24
1631106842531,-7.81
1631106842546,-7.92
1631106842562,-3.55
1631106842578,4.25
1631106842593,13.16
1631106842609,20.26
1631106842625,23.54
1631106842640,22.46
1631106842656,17.83
1631106842671,11.43
1631106842687,5.35
1631106842703,1.41
1631106842718,0.2
1631106842734,0.92
1631106842750,1.92
1631106842765,1.7
1631106842781,-0.46
1631106842796,-4.4
1631106842812,-9.29
1631106842828,-14.03
1631106842843,-17.61
1631106842859,-19.69
1631106842875,-20.68
1631106842890,-21.54
1631106842906,-23.25
1631106842921,-26.43
1631106842937,-31.33
1631106842953,-37.78
1631106842968,-45.24
1631106842984,-52.32
1631106843000,-57.63
1631106843015,-60.11
1631106843031,-59.31
1631106843046,-55.54
1631106843062,-49.84
1631106843078,-43.96
1631106843093,-40.0
1631106843109,-39.55
1631106843125,-41.81
1631106843140,-44.48
1631106843156,-44.56
1631106843171,-39.4
1631106843187,-27.42
1631106843203,-8.75
1631106843218,14.52
1631106843234,38.62
1631106843250,59.21
1631106843265,74.38
1631106843281,83.57
1631106843296,86.85
1631106843312,84.54
1631106843328,77.44
1631106843343,67.11
1631106843359,55.89
1631106843375,46.66
1631106843390,42.44
1631106843406,47.87
1631106843421,65.47
1631106843437,93.99
1631106843453,128.62
1631106843468,163.48
1631106843484,194.37
1631106843500,219.96
1631106843515,241.45
1631106843531,247.17
1631106843546,230.53
1631106843562,193.34
1631106843578,144.94
1631106843593,95.16
1631106843609,50.1
1631106843625,12.67
1631106843640,-16.03
1631106843656,-36.36
1631106843671,-50.01
1631106843687,-57.47
1631106843703,-59.65
1631106843718,-58.12
1631106843734,-54.85
1631106843750,-51.37
1631106843765,-48.34
1631106843781,-45.85
1631106843796,-43.91
1631106843812,-42.63
1631106843828,-40.78
1631106843843,-37.74
1631106843859,-33.77
1631106843875,-29.79
1631106843890,-26.72
1631106843906,-24.91
1631106843921,-24.27
1631106843937,-24.59
1631106843953,-25.67
1631106843968,-27.01
1631106843984,-28.1
1631106844000,-28.61
1631106844015,-28.41
1631106844031,-27.49
1631106844046,-26.06
1631106844062,-24.62
1631106844078,-23.94
1631106844093,-24.75
1631106844109,-28.25
1631106844125,-34.15
1631106844140,-42.09
1631106844156,-51.43
1631106844171,-61.69
1631106844187,-72.68
1631106844203,-84.38
1631106844218,-96.73
1631106844234,-104.05
1631106844250,-102.4
1631106844265,-91.27
1631106844281,-73.74
1631106844296,-53.8
1631106844312,-34.41
1631106844328,-17.2
1631106844343,-2.83
1631106844359,7.68
1631106844375,15.76
1631106844390,21.53
1631106844406,24.97
1631106844421,26.33
1631106844437,26.32
1631106844453,25.66
1631106844468,24.75
1631106844484,23.95
1631106844500,23.21
1631106844515,22.61
1631106844531,21.34
1631106844546,18.87
1631106844562,15.21
1631106844578,10.94
1631106844593,6.81
1631106844609,3.39
1631106844625,0.98
1631106844640,-0.44
1631106844656,-0.86
1631106844671,-1.04
1631106844687,-1.54
1631106844703,-2.64
1631106844718,-4.15
1631106844734,-5.76
1631106844750,-7.2
1631106844765,-8.34
1631106844781,-9.25
1631106844796,-9.98
1631106844812,-11.01
1631106844828,-12.7
1631106844843,-15.16
1631106844859,-18.17
1631106844875,-21.18
1631106844890,-23.47
1631106844906,-24.31
1631106844921,-23.14
1631106844937,-19.74
1631106844953,-14.48
1631106844968,-8.1
1631106844984,-1.5
1631106845000,4.56
1631106845015,9.56
1631106845031,13.32
1631106845046,15.91
1631106845062,17.53
1631106845078,18.4
1631106845093,18.67
1631106845109,18.42
1631106845125,17.77
1631106845140,16.86
1631106845156,15.89
1631106845171,15.04
1631106845187,14.38
1631106845203,13.91
1631106845218,13.49
1631106845234,13.03
1631106845250,12.49
1631106845265,11.95
1631106845281,11.58
1631106845296,11.46
1631106845312,11.59
1631106845328,11.78
1631106845343,11.76
1631106845359,11.36
1631106845375,10.54
1631106845390,9.47
1631106845406,8.35
1631106845421,7.36
1631106845437,6.56
1631106845453,5.83
1631106845468,5.01
1631106845484,3.99
1631106845500,2.76
1631106845515,1.47
1631106845531,0.25
1631106845546,-0.81
1631106845562,-1.8
1631106845578,-2.85
1631106845593,-4.13
1631106845609,-5.66
1631106845625,-7.35
1631106845640,-9.04
1631106845656,-10.56
1631106845671,-11.86
1631106845687,-13.05
1631106845703,-14.32
1631106845718,-15.86
1631106845734,-17.8
1631106845750,-20.15
1631106845765,-22.84
1631106845781,-25.69
1631106845796,-28.41
1631106845812,-30.59
1631106845828,-31.73
1631106845843,-31.34
1631106845859,-29.07
1631106845875,-24.89
1631106845890,-19.12
1631106845906,-12.41
1631106845921,-5.49
1631106845937,0.94
1631106845953,6.43
1631106845968,10.79
1631106845984,14.04
1631106846000,16.32
1631106846015,17.75
1631106846031,18.46
1631106846046,18.58
1631106846062,18.25
1631106846078,17.65
1631106846093,16.97
1631106846109,16.33
1631106846125,15.78
1631106846140,15.32
1631106846156,14.92
1631106846171,14.57
1631106846187,14.3
1631106846203,14.17
1631106846218,14.19
1631106846234,14.32
1631106846250,14.46
1631106846265,14.5
1631106846281,14.38
1631106846296,14.04
1631106846312,13.51
1631106846328,12.78
1631106846343,11.87
1631106846359,10.82
1631106846375,9.69
1631106846390,8.6
1631106846406,7.65
1631106846421,6.85
1631106846437,6.17
1631106846453,5.46
1631106846468,4.6
1631106846484,3.51
1631106846500,2.21
1631106846515,0.81
1631106846531,-0.53
1631106846546,-1.67
1631106846562,-2.53
1631106846578,-3.17
1631106846593,-3.75
1631106846609,-4.51
1631106846625,-5.68
1631106846640,-7.34
1631106846656,-9.35
1631106846671,-11.44
1631106846687,-13.28
1631106846703,-14.7
1631106846718,-15.71
1631106846734,-16.55
1631106846750,-17.51
1631106846765,-18.85
1631106846781,-20.66
1631106846796,-22.91
1631106846812,-25.49
1631106846828,-28.15
1631106846843,-30.54
1631106846859,-32.15
1631106846875,-32.41
1631106846890,-30.82
1631106846906,-27.14
1631106846921,-21.52
1631106846937,-14.53
1631106846953,-7.02
1631106846968,0.15
1631106846984,6.24
1631106847000,10.89
1631106847015,14.07
1631106847031,16.0
1631106847046,17.04
1631106847062,17.5
1631106847078,17.59
1631106847093,17.43
1631106847109,17.07
1631106847125,16.62
1631106847140,16.21
1631106847156,15.94
1631106847171,15.81
1631106847187,15.69
1631106847203,15.43
1631106847218,14.97
1631106847234,14.39
1631106847250,13.89
1631106847265,13.63
1631106847281,13.67
1631106847296,13.87
1631106847312,14.04
1631106847328,14.04
1631106847343,13.8
1631106847359,13.36
1631106847375,12.76
1631106847390,11.98
1631106847406,11.0
1631106847421,9.79
1631106847437,8.45
1631106847453,7.15
1631106847468,6.08
1631106847484,5.29
1631106847500,4.69
1631106847515,4.08
1631106847531,3.27
1631106847546,2.17
1631106847562,0.83
1631106847578,-0.62
1631106847593,-2.04
1631106847609,-3.34
1631106847625,-4.47
1631106847640,-5.42
1631106847656,-6.19
1631106847671,-6.82
1631106847687,-7.38
1631106847703,-8.0
1631106847718,-8.87
1631106847734,-10.11
1631106847750,-11.73
1631106847765,-13.58
1631106847781,-15.44
1631106847796,-17.02
1631106847812,-18.21
1631106847828,-19.08
1631106847843,-19.88
1631106847859,-20.93
1631106847875,-22.51
1631106847890,-24.65
1631106847906,-27.14
1631106847921,-29.47
1631106847937,-31.01
1631106847953,-31.15
1631106847968,-29.45
1631106847984,-25.8
1631106848000,-20.42
1631106848015,-13.82
1631106848031,-6.7
1631106848046,0.22
1631106848062,6.33
1631106848078,11.25
1631106848093,14.82
1631106848109,17.13
1631106848125,18.4
1631106848140,18.92
1631106848156,18.97
1631106848171,18.76
1631106848187,18.45
1631106848203,18.1
1631106848218,17.72
1631106848234,17.3
1631106848250,16.83
1631106848265,16.34
1631106848281,15.84
1631106848296,15.37
1631106848312,14.97
1631106848328,14.65
1631106848343,14.42
1631106848359,14.3
1631106848375,14.28
1631106848390,14.33
1631106848406,14.33
1631106848421,14.15
1631106848437,13.66
1631106848453,12.82
1631106848468,11.68
1631106848484,10.42
1631106848500,9.26
1631106848515,8.33
1631106848531,7.65
1631106848546,7.1
1631106848562,6.5
1631106848578,5.71
1631106848593,4.69
1631106848609,3.52
1631106848625,2.29
1631106848640,1.12
1631106848656,0.03
1631106848671,-1.02
1631106848687,-2.08
1631106848703,-3.19
1631106848718,-4.31
1631106848734,-5.41
1631106848750,-6.41
1631106848765,-7.3
1631106848781,-8.13
1631106848796,-8.96
1631106848812,-9.89
1631106848828,-11.0
1631106848843,-12.29
1631106848859,-13.72
1631106848875,-15.19
1631106848890,-16.59
1631106848906,-17.87
1631106848921,-19.05
1631106848937,-20.29
1631106848953,-21.76
1631106848968,-23.59
1631106848984,-25.67
1631106849000,-27.64
1631106849015,-28.9
1631106849031,-28.8
1631106849046,-26.85
1631106849062,-22.92
1631106849078,-17.34
1631106849093,-10.75
1631106849109,-3.93
1631106849125,2.41
1631106849140,7.85
1631106849156,12.22
1631106849171,15.56
1631106849187,17.97
1631106849203,19.53
1631106849218,20.27
1631106849234,20.26
1631106849250,19.6
1631106849265,18.49
1631106849281,17.19
1631106849296,15.93
1631106849312,14.89
1631106849328,14.15
1631106849343,13.7
1631106849359,13.49
1631106849375,13.42
1631106849390,13.39
1631106849406,13.31
1631106849421,13.14
1631106849437,12.85
1631106849453,12.51
1631106849468,12.15
1631106849484,11.82
1631106849500,11.52
1631106849515,11.15
1631106849531,10.6
1631106849546,9.8
1631106849562,8.75
1631106849578,7.59
1631106849593,6.49
1631106849609,5.6
1631106849625,4.92
1631106849640,4.3
1631106849656,3.51
1631106849671,2.36
1631106849687,0.86
1631106849703,-0.82
1631106849718,-2.38
1631106849734,-3.58
1631106849750,-4.38
1631106849765,-4.94
1631106849781,-5.56
1631106849796,-6.5
1631106849812,-7.86
1631106849828,-9.5
1631106849843,-11.19
1631106849859,-12.67
1631106849875,-13.83
1631106849890,-14.75
1631106849906,-15.63
1631106849921,-16.68
1631106849937,-18.08
1631106849953,-19.86
1631106849968,-21.91
1631106849984,-24.04
1631106850000,-25.99
1631106850015,-27.45
1631106850031,-28.05
1631106850046,-27.44
1631106850062,-25.34
1631106850078,-21.64
1631106850093,-16.49
1631106850109,-10.33
1631106850125,-3.77
1631106850140,2.54
1631106850156,8.1
1631106850171,12.66
1631106850187,16.17
1631106850203,18.69
1631106850218,20.31
1631106850234,21.09
1631106850250,21.09
1631106850265,20.46
1631106850281,19.41
1631106850296,18.19
1631106850312,17.03
1631106850328,16.04
1631106850343,15.22
1631106850359,14.47
1631106850375,13.72
1631106850390,12.95
1631106850406,12.25
1631106850421,11.71
1631106850437,11.43
1631106850453,11.38
1631106850468,11.44
1631106850484,11.44
1631106850500,11.22
1631106850515,10.67
1631106850531,9.8
1631106850546,8.72
1631106850562,7.58
1631106850578,6.5
1631106850593,5.56
1631106850609,4.69
1631106850625,3.79
1631106850640,2.7
1631106850656,1.34
1631106850671,-0.24
1631106850687,-1.87
1631106850703,-3.35
1631106850718,-4.52
1631106850734,-5.37
1631106850750,-6.02
1631106850765,-6.7
1631106850781,-7.6
1631106850796,-8.83
1631106850812,-10.39
1631106850828,-12.18
1631106850843,-14.1
1631106850859,-16.01
1631106850875,-17.81
1631106850890,-19.41
1631106850906,-20.76
1631106850921,-21.9
1631106850937,-22.99
1631106850953,-24.24
1631106850968,-25.84
1631106850984,-27.84
1631106851000,-30.01
1631106851015,-31.87
1631106851031,-32.8
1631106851046,-32.2
1631106851062,-29.7
1631106851078,-25.32
1631106851093,-19.4
1631106851109,-12.58
1631106851125,-5.54
1631106851140,1.08
1631106851156,6.85
1631106851171,11.52
1631106851187,15.04
1631106851203,17.47
1631106851218,18.98
1631106851234,19.73
1631106851250,19.88
1631106851265,19.56
1631106851281,18.94
1631106851296,18.17
1631106851312,17.43
1631106851328,16.86
1631106851343,16.54
1631106851359,16.46
1631106851375,16.55
1631106851390,16.71
1631106851406,16.87
1631106851421,16.97
1631106851437,17.01
1631106851453,16.96
1631106851468,16.81
1631106851484,16.54
1631106851500,16.16
1631106851515,15.71
1631106851531,15.21
1631106851546,14.66
1631106851562,14.04
1631106851578,13.3
1631106851593,12.45
1631106851609,11.58
1631106851625,10.79
1631106851640,10.13
1631106851656,9.53
1631106851671,8.81
1631106851687,7.79
1631106851703,6.35
1631106851718,4.58
1631106851734,2.66
1631106851750,0.81
1631106851765,-0.83
1631106851781,-2.24
1631106851796,-3.55
1631106851812,-4.92
1631106851828,-6.46
1631106851843,-8.16
1631106851859,-9.96
1631106851875,-11.74
1631106851890,-13.33
1631106851906,-14.57
1631106851921,-15.32
1631106851937,-15.64
1631106851953,-15.73
1631106851968,-15.94
1631106851984,-16.6
1631106852000,-17.88
1631106852015,-19.69
1631106852031,-21.62
1631106852046,-23.07
1631106852062,-23.35
1631106852078,-21.98
1631106852093,-18.72
1631106852109,-13.54
1631106852125,-6.61
1631106852140,1.73
1631106852156,11.01
1631106852171,20.75
1631106852187,30.55
1631106852203,40.12
1631106852218,48.95
1631106852234,56.51
1631106852250,62.47
1631106852265,66.65
1631106852281,69.01
1631106852296,69.58
1631106852312,68.53
1631106852328,66.19
1631106852343,63.0
1631106852359,58.78
1631106852375,53.33
1631106852390,46.77
1631106852406,39.58
1631106852421,32.36
1631106852437,25.52
1631106852453,19.32
1631106852468,13.91
1631106852484,9.42
1631106852500,4.89
1631106852515,-0.66
1631106852531,-7.74
1631106852546,-16.25
1631106852562,-25.78
1631106852578,-35.92
1631106852593,-46.16
1631106852609,-55.82
1631106852625,-64.1
1631106852640,-71.89
1631106852656,-80.53
1631106852671,-91.05
1631106852687,-103.77
1631106852703,-118.4
1631106852718,-134.38
1631106852734,-151.06
1631106852750,-167.7
1631106852765,-175.53
1631106852781,-168.67
1631106852796,-147.11
1631106852812,-116.64
1631106852828,-84.2
1631106852843,-54.07
1631106852859,-27.86
1631106852875,-6.04
1631106852890,11.28
1631106852906,24.3
1631106852921,32.44
1631106852937,35.54
1631106852953,35.12
1631106852968,33.3
1631106852984,31.94
1631106853000,31.92
1631106853015,33.06
1631106853031,34.56
1631106853046,35.6
1631106853062,34.77
1631106853078,31.36
1631106853093,25.94
1631106853109,20.12
1631106853125,15.95
1631106853140,14.75
1631106853156,16.81
1631106853171,21.78
1631106853187,29.21
1631106853203,38.28
1631106853218,48.47
1631106853234,59.49
1631106853250,70.81
1631106853265,81.32
1631106853281,89.47
1631106853296,94.13
1631106853312,95.34
1631106853328,94.19
1631106853343,91.63
1631106853359,87.69
1631106853375,81.18
1631106853390,70.09
1631106853406,52.61
1631106853421,28.17
1631106853437,-1.91
1631106853453,-34.45
1631106853468,-65.45
1631106853484,-91.42
1631106853500,-110.18
1631106853515,-121.26
1631106853531,-125.67
1631106853546,-125.43
1631106853562,-122.89
1631106853578,-119.89
1631106853593,-116.96
1631106853609,-113.77
1631106853625,-109.76
1631106853640,-104.85
1631106853656,-99.98
1631106853671,-96.49
1631106853687,-95.69
1631106853703,-98.27
1631106853718,-103.44
1631106853734,-108.11
1631106853750,-108.04
1631106853765,-99.12
1631106853781,-78.61
1631106853796,-46.31
1631106853812,-4.29
1631106853828,43.09
1631106853843,89.7
1631106853859,128.83
1631106853875,155.41
1631106853890,166.29
1631106853906,161.3
1631106853921,143.57
1631106853937,118.85
1631106853953,95.49
1631106853968,81.28
1631106853984,80.8
1631106854000,94.18
1631106854015,118.53
1631106854031,147.91
1631106854046,175.24
1631106854062,194.59
1631106854078,202.26
1631106854093,198.94
1631106854109,187.9
1631106854125,172.6
1631106854140,147.54
1631106854156,110.82
1631106854171,65.61
1631106854187,20.06
1631106854203,-12.38
1631106854218,-29.53
1631106854234,-33.58
1631106854250,-28.9
1631106854265,-22.02
1631106854281,-18.67
1631106854296,-20.8
1631106854312,-26.72
1631106854328,-32.6
1631106854343,-33.85
1631106854359,-28.77
1631106854375,-18.53
1631106854390,-6.91
1631106854406,0.58
1631106854421,-1.68
1631106854437,-16.98
1631106854453,-46.22
1631106854468,-88.87
1631106854484,-141.53
1631106854500,-199.2
1631106854515,-254.2
1631106854531,-296.16
1631106854546,-314.94
1631106854562,-303.99
1631106854578,-262.04
1631106854593,-193.61
1631106854609,-108.2
1631106854625,-14.97
1631106854640,77.6
1631106854656,155.19
1631106854671,205.31
1631106854687,223.52
1631106854703,213.58
1631106854718,183.15
1631106854734,147.25
1631106854750,110.01
1631106854765,75.0
1631106854781,44.93
1631106854796,20.93
1631106854812,3.56
1631106854828,-8.31
1631106854843,-15.83
1631106854859,-20.48
1631106854875,-23.4
1631106854890,-26.11
1631106854906,-28.33
1631106854921,-29.69
1631106854937,-30.15
1631106854953,-28.89
1631106854968,-25.04
1631106854984,-18.57
1631106855000,-10.53
1631106855015,-2.48
1631106855031,3.35
1631106855046,6.25
1631106855062,6.08
1631106855078,2.99
1631106855093,-2.01
1631106855109,-7.61
1631106855125,-12.9
1631106855140,-17.59
1631106855156,-21.58
1631106855171,-25.1
1631106855187,-27.5
1631106855203,-28.13
1631106855218,-26.82
1631106855234,-23.71
1631106855250,-19.28
1631106855265,-14.35
1631106855281,-9.77
1631106855296,-6.08
1631106855312,-3.6
1631106855328,-1.98
1631106855343,-0.81
1631106855359,0.09
1631106855375,0.84
1631106855390,1.39
1631106855406,1.67
1631106855421,1.52
1631106855437,0.86
1631106855453,-0.38
1631106855468,-2.07
1631106855484,-4.05
1631106855500,-6.17
1631106855515,-8.37
1631106855531,-10.5
1631106855546,-12.32
1631106855562,-13.46
1631106855578,-13.42
1631106855593,-11.77
1631106855609,-8.24
1631106855625,-2.85
1631106855640,4.1
1631106855656,12.03
1631106855671,20.21
1631106855687,27.9
1631106855703,34.5
1631106855718,39.61
1631106855734,43.18
1631106855750,45.43
1631106855765,46.76
1631106855781,47.52
1631106855796,47.89
1631106855812,47.83
1631106855828,47.27
1631106855843,46.26
1631106855859,44.99
1631106855875,43.77
1631106855890,42.85
1631106855906,42.21
1631106855921,41.65
1631106855937,40.8
1631106855953,39.41
1631106855968,37.56
1631106855984,35.55
1631106856000,33.74
1631106856015,32.33
1631106856031,31.3
1631106856046,30.41
1631106856062,29.4
1631106856078,27.85
1631106856093,25.53
1631106856109,22.53
1631106856125,19.21
1631106856140,15.97
1631106856156,13.04
1631106856171,10.59
1631106856187,8.5
1631106856203,6.61
1631106856218,4.18
1631106856234,0.53
1631106856250,-4.44
1631106856265,-10.27
1631106856281,-16.15
1631106856296,-21.26
1631106856312,-24.77
1631106856328,-26.42
1631106856343,-26.26
1631106856359,-25.6
1631106856375,-25.82
1631106856390,-27.6
1631106856406,-30.75
1631106856421,-34.54
1631106856437,-38.28
1631106856453,-41.19
1631106856468,-43.29
1631106856484,-44.84
1631106856500,-47.44
1631106856515,-52.61
1631106856531,-61.01
1631106856546,-72.38
1631106856562,-85.96
1631106856578,-101.11
1631106856593,-116.79
1631106856609,-132.65
1631106856625,-140.26
1631106856640,-133.79
1631106856656,-113.55
1631106856671,-85.98
1631106856687,-58.64
1631106856703,-35.92
1631106856718,-22.05
1631106856734,-14.05
1631106856750,-9.23
1631106856765,-5.39
1631106856781,-2.18
1631106856796,0.13
1631106856812,2.74
1631106856828,6.3
1631106856843,11.02
1631106856859,16.37
1631106856875,21.95
1631106856890,26.81
1631106856906,30.53
1631106856921,32.4
1631106856937,32.16
1631106856953,30.17
1631106856968,26.82
1631106856984,22.09
1631106857000,15.13
1631106857015,5.2
1631106857031,-8.29
1631106857046,-24.43
1631106857062,-41.34
1631106857078,-56.27
1631106857093,-66.4
1631106857109,-70.16
1631106857125,-67.77
1631106857140,-61.2
1631106857156,-52.97
1631106857171,-45.51
1631106857187,-39.97
1631106857203,-36.31
1631106857218,-33.51
1631106857234,-30.02
1631106857250,-24.51
1631106857265,-16.16
1631106857281,-4.93
1631106857296,8.64
1631106857312,23.45
1631106857328,38.27
1631106857343,51.89
1631106857359,63.37
1631106857375,72.11
1631106857390,77.79
1631106857406,80.43
1631106857421,80.33
1631106857437,78.12
1631106857453,74.71
1631106857468,71.13
1631106857484,68.41
1631106857500,67.14
1631106857515,67.36
1631106857531,68.43
1631106857546,69.4
1631106857562,69.42
1631106857578,68.07
1631106857593,65.54
1631106857609,62.47
1631106857625,59.72
1631106857640,57.96
1631106857656,57.45
1631106857671,58.02
1631106857687,59.28
1631106857703,60.88
1631106857718,62.53
1631106857734,64.02
1631106857750,64.96
1631106857765,64.87
1631106857781,62.99
1631106857796,58.4
1631106857812,50.31
1631106857828,38.5
1631106857843,23.55
1631106857859,6.62
1631106857875,-10.89
1631106857890,-27.72
1631106857906,-42.41
1631106857921,-53.75
1631106857937,-61.08
1631106857953,-64.57
1631106857968,-65.15
1631106857984,-64.29
1631106858000,-63.63
1631106858015,-64.7
1631106858031,-68.38
1631106858046,-73.93
1631106858062,-79.56
1631106858078,-83.21
1631106858093,-83.4
1631106858109,-79.48
1631106858125,-71.67
1631106858140,-60.81
1631106858156,-48.28
1631106858171,-35.54
1631106858187,-22.63
1631106858203,-8.77
1631106858218,6.94
1631106858234,24.8
1631106858250,44.56
1631106858265,65.84
1631106858281,88.47
1631106858296,112.49
1631106858312,131.81
1631106858328,140.84
1631106858343,137.11
1631106858359,122.93
1631106858375,102.77
1631106858390,80.17
1631106858406,57.19
1631106858421,35.21
1631106858437,15.41
1631106858453,-1.44
1631106858468,-13.94
1631106858484,-21.2
1631106858500,-23.38
1631106858515,-21.84
1631106858531,-18.39
1631106858546,-14.64
1631106858562,-11.66
1631106858578,-10.09
1631106858593,-10.61
1631106858609,-12.48
1631106858625,-14.55
1631106858640,-15.69
1631106858656,-15.51
1631106858671,-14.08
1631106858687,-11.88
1631106858703,-9.7
1631106858718,-8.67
1631106858734,-10.56
1631106858750,-16.07
1631106858765,-24.97
1631106858781,-36.11
1631106858796,-47.75
1631106858812,-57.82
1631106858828,-64.55
1631106858843,-67.07
1631106858859,-63.36
1631106858875,-55.81
1631106858890,-47.62
1631106858906,-41.43
1631106858921,-38.42
1631106858937,-38.25
1631106858953,-39.46
1631106858968,-40.23
1631106858984,-39.23
1631106859000,-36.0
1631106859015,-31.45
1631106859031,-26.58
1631106859046,-22.37
1631106859062,-19.66
1631106859078,-19.01
1631106859093,-20.33
1631106859109,-22.77
1631106859125,-24.7
1631106859140,-24.25
1631106859156,-20.15
1631106859171,-11.89
1631106859187,-0.33
1631106859203,12.36
1631106859218,23.35
1631106859234,30.28
1631106859250,32.12
1631106859265,29.4
1631106859281,23.8
1631106859296,17.15
1631106859312,11.01
1631106859328,6.24
1631106859343,3.04
1631106859359,1.23
1631106859375,0.57
1631106859390,0.8
1631106859406,1.65
1631106859421,2.63
1631106859437,3.06
1631106859453,2.37
1631106859468,0.29
1631106859484,-3.0
1631106859500,-6.81
1631106859515,-10.07
1631106859531,-11.48
1631106859546,-9.87
1631106859562,-4.63
1631106859578,3.9
1631106859593,14.32
1631106859609,24.48
1631106859625,32.23
1631106859640,36.01
1631106859656,35.47
1631106859671,31.41
1631106859687,25.32
1631106859703,18.7
1631106859718,12.67
1631106859734,7.76
1631106859750,4.01
1631106859765,1.27
1631106859781,-0.66
1631106859796,-1.95
1631106859812,-2.83
1631106859828,-3.47
1631106859843,-4.07
1631106859859,-4.7
1631106859875,-5.39
1631106859890,-6.17
1631106859906,-7.03
1631106859921,-8.01
1631106859937,-9.04
1631106859953,-10.0
1631106859968,-10.74
1631106859984,-11.22
1631106860000,-11.44
1631106860015,-11.62
1631106860031,-11.98
1631106860046,-12.74
1631106860062,-13.97
1631106860078,-15.51
1631106860093,-17.13
1631106860109,-18.52
1631106860125,-19.49
1631106860140,-20.11
1631106860156,-20.75
1631106860171,-21.92
1631106860187,-24.05
1631106860203,-27.27
1631106860218,-31.32
1631106860234,-35.65
1631106860250,-39.55
1631106860265,-42.42
1631106860281,-43.8
1631106860296,-43.36
1631106860312,-40.89
1631106860328,-36.25
1631106860343,-29.47
1631106860359,-20.89
1631106860375,-11.17
1631106860390,-1.21
1631106860406,8.12
1631106860421,16.17
1631106860437,22.64
1631106860453,27.49
1631106860468,30.88
1631106860484,32.92
1631106860500,33.81
1631106860515,33.75
1631106860531,33.1
1631106860546,32.23
1631106860562,31.52
1631106860578,31.18
1631106860593,31.2
1631106860609,31.41
1631106860625,31.57
1631106860640,31.52
1631106860656,31.19
1631106860671,30.62
1631106860687,29.87
1631106860703,29.05
1631106860718,28.19
1631106860734,27.29
1631106860750,26.34
1631106860765,25.25
1631106860781,24.05
1631106860796,22.74
1631106860812,21.4
1631106860828,20.07
1631106860843,18.74
1631106860859,17.32
1631106860875,15.65
1631106860890,13.62
1631106860906,11.2
1631106860921,8.5
1631106860937,5.64
1631106860953,2.7
1631106860968,-0.29
1631106860984,-3.39
1631106861000,-6.61
1631106861015,-9.88
1631106861031,-13.09
1631106861046,-16.15
1631106861062,-19.05
1631106861078,-21.85
1631106861093,-24.61
1631106861109,-27.24
1631106861125,-29.56
1631106861140,-31.3
1631106861156,-32.31
1631106861171,-32.56
1631106861187,-32.21
1631106861203,-31.44
1631106861218,-30.36
1631106861234,-28.96
1631106861250,-27.18
1631106861265,-25.03
1631106861281,-22.65
1631106861296,-20.32
1631106861312,-18.39
1631106861328,-17.11
1631106861343,-16.51
1631106861359,-16.39
1631106861375,-16.34
1631106861390,-15.89
1631106861406,-14.65
1631106861421,-12.43
1631106861437,-9.28
1631106861453,-5.48
1631106861468,-1.37
1631106861484,2.69
1631106861500,6.45
1631106861515,9.76
1631106861531,12.6
1631106861546,14.97
1631106861562,16.91
1631106861578,18.45
1631106861593,19.59
1631106861609,20.28
1631106861625,20.48
1631106861640,20.16
1631106861656,19.42
1631106861671,18.41
1631106861687,17.37
1631106861703,16.44
1631106861718,15.69
1631106861734,15.1
1631106861750,14.62
1631106861765,14.25
1631106861781,14.04
1631106861796,14.03
1631106861812,14.17
1631106861828,14.3
1631106861843,14.19
1631106861859,13.63
1631106861875,12.58
1631106861890,11.13
1631106861906,9.51
1631106861921,7.97
1631106861937,6.69
1631106861953,5.77
1631106861968,5.19
1631106861984,4.87
1631106862000,4.64
1631106862015,4.33
1631106862031,3.78
1631106862046,2.89
1631106862062,1.66
1631106862078,0.16
1631106862093,-1.41
1631106862109,-2.9
1631106862125,-4.15
1631106862140,-5.11
1631106862156,-5.85
1631106862171,-6.51
1631106862187,-7.27
1631106862203,-8.28
1631106862218,-9.6
1631106862234,-11.15
1631106862250,-12.8
1631106862265,-14.38
1631106862281,-15.79
1631106862296,-16.99
1631106862312,-18.04
1631106862328,-19.0
1631106862343,-19.96
1631106862359,-20.97
1631106862375,-22.02
1631106862390,-23.0
1631106862406,-23.68
1631106862421,-23.74
1631106862437,-22.85
1631106862453,-20.76
1631106862468,-17.45
1631106862484,-13.14
1631106862500,-8.25
1631106862515,-3.26
1631106862531,1.44
1631106862546,5.64
1631106862562,9.32
1631106862578,12.55
1631106862593,15.4
1631106862609,17.85
1631106862625,19.83
1631106862640,21.19
1631106862656,21.84
1631106862671,21.78
1631106862687,21.12
1631106862703,20.07
1631106862718,18.85
1631106862734,17.64
1631106862750,16.58
1631106862765,15.78
1631106862781,15.29
1631106862796,15.11
1631106862812,15.2
1631106862828,15.44
1631106862843,15.69
1631106862859,15.81
1631106862875,15.71
1631106862890,15.4
1631106862906,14.98
1631106862921,14.54
1631106862937,14.13
1631106862953,13.77
1631106862968,13.4
1631106862984,13.01
1631106863000,12.58
1631106863015,12.09
1631106863031,11.52
1631106863046,10.87
1631106863062,10.14
1631106863078,9.35
1631106863093,8.56
1631106863109,7.76
1631106863125,6.94
1631106863140,6.02
1631106863156,4.96
1631106863171,3.75
1631106863187,2.5
1631106863203,1.34
1631106863218,0.38
1631106863234,-0.33
1631106863250,-0.84
1631106863265,-1.3
1631106863281,-1.81
1631106863296,-2.46
1631106863312,-3.3
1631106863328,-4.34
1631106863343,-5.54
1631106863359,-6.88
1631106863375,-8.3
1631106863390,-9.74
1631106863406,-11.18
1631106863421,-12.58
1631106863437,-14.0
1631106863453,-15.51
1631106863468,-17.24
1631106863484,-19.21
1631106863500,-21.3
1631106863515,-23.21
1631106863531,-24.54
1631106863546,-24.89
1631106863562,-24.05
1631106863578,-22.04
1631106863593,-19.11
1631106863609,-15.65
1631106863625,-12.03
1631106863640,-8.52
1631106863656,-5.26
1631106863671,-2.32
1631106863687,0.26
1631106863703,2.44
1631106863718,4.15
1631106863734,5.37
1631106863750,6.1
1631106863765,6.35
1631106863781,6.21
1631106863796,5.76
1631106863812,5.12
1631106863828,4.46
1631106863843,3.97
1631106863859,3.78
1631106863875,3.98
1631106863890,4.54
1631106863906,5.4
1631106863921,6.49
1631106863937,7.8
1631106863953,9.36
1631106863968,11.19
1631106863984,13.24
1631106864000,15.38
1631106864015,17.36
1631106864031,18.98
1631106864046,20.06
1631106864062,20.6
1631106864078,20.68
1631106864093,20.45
1631106864109,20.0
1631106864125,19.34
1631106864140,18.4
1631106864156,17.13
1631106864171,15.54
1631106864187,13.78
1631106864203,12.09
1631106864218,10.68
1631106864234,9.64
1631106864250,8.86
1631106864265,8.09
1631106864281,7.08
1631106864296,5.74
1631106864312,4.15
1631106864328,2.58
1631106864343,1.27
1631106864359,0.3
1631106864375,-0.43
1631106864390,-1.17
1631106864406,-2.15
1631106864421,-3.49
1631106864437,-5.13
1631106864453,-6.87
1631106864468,-8.5
1631106864484,-9.89
1631106864500,-11.04
1631106864515,-12.04
1631106864531,-13.04
1631106864546,-14.19
1631106864562,-15.62
1631106864578,-17.39
1631106864593,-19.43
1631106864609,-21.54
1631106864625,-23.44
1631106864640,-24.81
1631106864656,-25.31
1631106864671,-24.74
1631106864687,-22.96
1631106864703,-20.05
1631106864718,-16.21
1631106864734,-11.81
1631106864750,-7.27
1631106864765,-2.99
1631106864781,0.72
1631106864796,3.77
1631106864812,6.19
1631106864828,8.08
1631106864843,9.51
1631106864859,10.51
1631106864875,11.04
1631106864890,11.16
1631106864906,10.97
1631106864921,10.66
1631106864937,10.37
1631106864953,10.21
1631106864968,10.17
1631106864984,10.22
1631106865000,10.32
1631106865015,10.45
1631106865031,10.6
1631106865046,10.77
1631106865062,10.92
1631106865078,11.02
1631106865093,11.06
1631106865109,11.07
1631106865125,11.08
1631106865140,11.07
1631106865156,11.0
1631106865171,10.76
1631106865187,10.3
1631106865203,9.58
1631106865218,8.63
1631106865234,7.56
1631106865250,6.46
1631106865265,5.44
1631106865281,4.57
1631106865296,3.84
1631106865312,3.22
1631106865328,2.61
1631106865343,1.9
1631106865359,1.0
1631106865375,-0.14
1631106865390,-1.46
1631106865406,-2.87
1631106865421,-4.23
1631106865437,-5.48
1631106865453,-6.61
1631106865468,-7.71
1631106865484,-8.91
1631106865500,-10.29
1631106865515,-11.81
1631106865531,-13.39
1631106865546,-14.91
1631106865562,-16.31
1631106865578,-17.6
1631106865593,-18.87
1631106865609,-20.16
1631106865625,-21.46
1631106865640,-22.71
1631106865656,-23.81
1631106865671,-24.66
1631106865687,-25.18
1631106865703,-25.2
1631106865718,-24.53
1631106865734,-22.91
1631106865750,-20.17
1631106865765,-16.31
1631106865781,-11.55
1631106865796,-6.32
1631106865812,-1.06
1631106865828,3.83
1631106865843,8.15
1631106865859,11.84
1631106865875,14.89
1631106865890,17.29
1631106865906,18.95
1631106865921,19.83
1631106865937,19.95
1631106865953,19.48
1631106865968,18.69
1631106865984,17.83
1631106866000,17.05
1631106866015,16.36
1631106866031,15.66
1631106866046,14.88
1631106866062,14.0
1631106866078,13.12
1631106866093,12.42
1631106866109,12.01
1631106866125,11.93
1631106866140,12.07
1631106866156,12.28
1631106866171,12.39
1631106866187,12.29
1631106866203,11.94
1631106866218,11.35
1631106866234,10.61
1631106866250,9.78
1631106866265,8.95
1631106866281,8.21
1631106866296,7.58
1631106866312,7.05
1631106866328,6.55
1631106866343,5.97
1631106866359,5.21
1631106866375,4.24
1631106866390,3.07
1631106866406,1.8
1631106866421,0.52
1631106866437,-0.64
1631106866453,-1.64
1631106866468,-2.47
1631106866484,-3.2
1631106866500,-3.92
1631106866515,-4.72
1631106866531,-5.61
1631106866546,-6.58
1631106866562,-7.56
1631106866578,-8.49
1631106866593,-9.35
1631106866609,-10.17
1631106866625,-11.0
1631106866640,-11.93
1631106866656,-13.03
1631106866671,-14.39
1631106866687,-16.05
1631106866703,-17.99
1631106866718,-20.08
1631106866734,-22.04
1631106866750,-23.56
1631106866765,-24.25
1631106866781,-23.87
1631106866796,-22.3
1631106866812,-19.61
1631106866828,-16.06
1631106866843,-11.95
1631106866859,-7.61
1631106866875,-3.35
1631106866890,0.6
1631106866906,4.1
1631106866921,7.04
1631106866937,9.31
1631106866953,10.87
1631106866968,11.71
1631106866984,11.89
1631106867000,11.59
1631106867015,11.0
1631106867031,10.35
1631106867046,9.77
1631106867062,9.35
1631106867078,9.13
1631106867093,9.08
1631106867109,9.2
1631106867125,9.44
1631106867140,9.74
1631106867156,10.03
1631106867171,10.23
1631106867187,10.3
1631106867203,10.24
1631106867218,10.1
1631106867234,9.92
1631106867250,9.73
1631106867265,9.55
1631106867281,9.33
1631106867296,9.04
1631106867312,8.62
1631106867328,8.01
1631106867343,7.2
1631106867359,6.25
1631106867375,5.26
1631106867390,4.4
1631106867406,3.77
1631106867421,3.37
1631106867437,3.11
1631106867453,2.79
1631106867468,2.26
1631106867484,1.44
1631106867500,0.37
1631106867515,-0.84
1631106867531,-2.1
1631106867546,-3.36
1631106867562,-4.63
1631106867578,-5.91
1631106867593,-7.11
1631106867609,-8.15
1631106867625,-8.97
1631106867640,-9.58
1631106867656,-10.11
1631106867671,-10.74
1631106867687,-11.68
1631106867703,-13.04
1631106867718,-14.83
1631106867734,-16.92
1631106867750,-19.09
1631106867765,-21.04
1631106867781,-22.44
1631106867796,-23.04
1631106867812,-22.66
1631106867828,-21.28
1631106867843,-18.97
1631106867859,-15.86
1631106867875,-12.16
1631106867890,-8.08
1631106867906,-3.91
1631106867921,0.01
1631106867937,3.38
1631106867953,5.99
1631106867968,7.83
1631106867984,9.04
1631106868000,9.86
1631106868015,10.46
1631106868031,10.86
1631106868046,11.02
1631106868062,10.84
1631106868078,10.33
1631106868093,9.62
1631106868109,8.95
1631106868125,8.52
1631106868140,8.44
1631106868156,8.67
1631106868171,9.01
1631106868187,9.24
1631106868203,9.2
1631106868218,8.85
1631106868234,8.29
1631106868250,7.68
1631106868265,7.17
1631106868281,6.86
1631106868296,6.72
1631106868312,6.69
1631106868328,6.64
1631106868343,6.44
1631106868359,5.96
1631106868375,5.17
1631106868390,4.07
1631106868406,2.76
1631106868421,1.37
1631106868437,0.04
1631106868453,-1.17
1631106868468,-2.21
1631106868484,-3.09
1631106868500,-3.86
1631106868515,-4.55
1631106868531,-5.22
1631106868546,-5.98
1631106868562,-6.94
1631106868578,-8.18
1631106868593,-9.73
1631106868609,-11.47
1631106868625,-13.2
1631106868640,-14.72
1631106868656,-15.91
1631106868671,-16.81
1631106868687,-17.57
1631106868703,-18.37
1631106868718,-19.35
1631106868734,-20.57
1631106868750,-21.94
1631106868765,-23.31
1631106868781,-24.51
1631106868796,-25.25
1631106868812,-25.28
1631106868828,-24.31
1631106868843,-22.15
1631106868859,-18.76
1631106868875,-14.31
1631106868890,-9.15
1631106868906,-3.69
1631106868921,1.63
1631106868937,6.5
1631106868953,10.71
1631106868968,14.15
1631106868984,16.76
1631106869000,18.58
1631106869015,19.63
1631106869031,20.01
1631106869046,19.81
1631106869062,19.16
1631106869078,18.23
1631106869093,17.18
1631106869109,16.18
1631106869125,15.36
1631106869140,14.77
1631106869156,14.36
1631106869171,14.03
1631106869187,13.7
1631106869203,13.32
1631106869218,12.93
1631106869234,12.64
1631106869250,12.52
1631106869265,12.58
1631106869281,12.69
1631106869296,12.69
1631106869312,12.43
1631106869328,11.81
1631106869343,10.86
1631106869359,9.65
1631106869375,8.36
1631106869390,7.13
1631106869406,6.05
1631106869421,5.16
1631106869437,4.43
1631106869453,3.8
1631106869468,3.18
1631106869484,2.46
1631106869500,1.62
1631106869515,0.63
1631106869531,-0.44
1631106869546,-1.53
1631106869562,-2.57
1631106869578,-3.56
1631106869593,-4.52
1631106869609,-5.49
1631106869625,-6.48
1631106869640,-7.46
1631106869656,-8.36
1631106869671,-9.13
1631106869687,-9.82
1631106869703,-10.55
1631106869718,-11.47
1631106869734,-12.72
1631106869750,-14.31
1631106869765,-16.15
1631106869781,-18.05
1631106869796,-19.76
1631106869812,-21.01
1631106869828,-21.56
1631106869843,-21.23
1631106869859,-19.94
1631106869875,-17.72
1631106869890,-14.7
1631106869906,-11.12
1631106869921,-7.26
1631106869937,-3.43
1631106869953,0.11
1631106869968,3.15
1631106869984,5.61
1631106870000,7.52
1631106870015,8.99
1631106870031,10.14
1631106870046,11.07
1631106870062,11.74
1631106870078,12.07
1631106870093,11.99
1631106870109,11.52
1631106870125,10.79
1631106870140,10.03
1631106870156,9.43
1631106870171,9.12
1631106870187,9.11
1631106870203,9.31
1631106870218,9.61
1631106870234,9.89
1631106870250,10.08
1631106870265,10.15
1631106870281,10.07
1631106870296,9.83
1631106870312,9.41
1631106870328,8.84
1631106870343,8.16
1631106870359,7.42
1631106870375,6.73
1631106870390,6.12
1631106870406,5.63
1631106870421,5.24
1631106870437,4.85
1631106870453,4.37
1631106870468,3.73
1631106870484,2.92
1631106870500,1.97
1631106870515,0.97
1631106870531,-0.04
1631106870546,-0.99
1631106870562,-1.82
1631106870578,-2.51
1631106870593,-3.08
1631106870609,-3.57
1631106870625,-4.09
1631106870640,-4.7
1631106870656,-5.38
1631106870671,-6.1
1631106870687,-6.73
1631106870703,-7.25
1631106870718,-7.71
1631106870734,-8.24
1631106870750,-8.99
1631106870765,-10.01
1631106870781,-11.26
1631106870796,-12.58
1631106870812,-13.85
1631106870828,-15.03
1631106870843,-16.17
1631106870859,-17.34
1631106870875,-18.52
1631106870890,-19.54
1631106870906,-20.13
1631106870921,-19.95
1631106870937,-18.76
1631106870953,-16.5
1631106870968,-13.32
1631106870984,-9.49
1631106871000,-5.4
1631106871015,-1.39
1631106871031,2.26
1631106871046,5.36
1631106871062,7.81
1631106871078,9.57
1631106871093,10.67
1631106871109,11.23
1631106871125,11.39
1631106871140,11.32
1631106871156,11.13
1631106871171,10.91
1631106871187,10.64
1631106871203,10.34
1631106871218,10.0
1631106871234,9.62
1631106871250,9.26
1631106871265,8.93
1631106871281,8.7
1631106871296,8.6
1631106871312,8.64
1631106871328,8.8
1631106871343,9.01
1631106871359,9.17
1631106871375,9.18
1631106871390,8.97
1631106871406,8.56
1631106871421,8.01
1631106871437,7.46
1631106871453,6.97
1631106871468,6.55
1631106871484,6.15
1631106871500,5.69
1631106871515,5.11
1631106871531,4.38
1631106871546,3.49
1631106871562,2.47
1631106871578,1.36
1631106871593,0.25
1631106871609,-0.8
1631106871625,-1.73
1631106871640,-2.55
1631106871656,-3.31
1631106871671,-4.1
1631106871687,-5.0
1631106871703,-6.01
1631106871718,-7.07
1631106871734,-8.07
1631106871750,-8.89
1631106871765,-9.52
1631106871781,-10.01
1631106871796,-10.51
1631106871812,-11.21
1631106871828,-12.27
1631106871843,-13.81
1631106871859,-15.78
1631106871875,-18.02
1631106871890,-20.26
1631106871906,-22.17
1631106871921,-23.42
1631106871937,-23.79
1631106871953,-23.1
1631106871968,-21.34
1631106871984,-18.59
1631106872000,-15.09
1631106872015,-11.17
1631106872031,-7.19
1631106872046,-3.48
1631106872062,-0.22
1631106872078,2.56
1631106872093,4.95
1631106872109,7.08
1631106872125,8.96
1631106872140,10.56
1631106872156,11.75
1631106872171,12.49
1631106872187,12.83
1631106872203,12.94
1631106872218,12.98
1631106872234,13.02
1631106872250,12.98
1631106872265,12.71
1631106872281,12.11
1631106872296,11.2
1631106872312,10.18
1631106872328,9.35
1631106872343,8.92
1631106872359,8.93
1631106872375,9.23
1631106872390,9.56
1631106872406,9.71
1631106872421,9.58
1631106872437,9.2
1631106872453,8.66
1631106872468,7.99
1631106872484,7.2
1631106872500,6.25
1631106872515,5.12
1631106872531,3.92
1631106872546,2.81
1631106872562,1.97
1631106872578,1.47
1631106872593,1.27
1631106872609,1.17
1631106872625,0.91
1631106872640,0.32
1631106872656,-0.64
1631106872671,-1.85
1631106872687,-3.1
1631106872703,-4.18
1631106872718,-4.97
1631106872734,-5.41
1631106872750,-5.55
1631106872765,-5.51
1631106872781,-5.43
1631106872796,-5.47
1631106872812,-5.74
1631106872828,-6.28
1631106872843,-7.03
1631106872859,-7.86
1631106872875,-8.66
1631106872890,-9.35
1631106872906,-9.97
1631106872921,-10.66
1631106872937,-11.58
1631106872953,-12.85
1631106872968,-14.46
1631106872984,-16.2
1631106873000,-17.74
1631106873015,-18.7
1631106873031,-18.75
1631106873046,-17.74
1631106873062,-15.69
1631106873078,-12.8
1631106873093,-9.36
1631106873109,-5.67
1631106873125,-1.98
1631106873140,1.49
1631106873156,4.57
1631106873171,7.12
1631106873187,9.08
1631106873203,10.43
1631106873218,11.23
1631106873234,11.57
1631106873250,11.57
1631106873265,11.36
1631106873281,11.02
1631106873296,10.64
1631106873312,10.28
1631106873328,9.98
1631106873343,9.72
1631106873359,9.5
1631106873375,9.29
1631106873390,9.1
1631106873406,8.95
1631106873421,8.84
1631106873437,8.77
1631106873453,8.74
1631106873468,8.76
1631106873484,8.8
1631106873500,8.83
1631106873515,8.75
1631106873531,8.49
1631106873546,7.99
1631106873562,7.26
1631106873578,6.4
1631106873593,5.52
1631106873609,4.71
1631106873625,3.99
1631106873640,3.34
1631106873656,2.72
1631106873671,2.05
1631106873687,1.33
1631106873703,0.53
1631106873718,-0.34
1631106873734,-1.28
1631106873750,-2.25
1631106873765,-3.19
1631106873781,-4.06
1631106873796,-4.84
1631106873812,-5.55
1631106873828,-6.25
1631106873843,-6.97
1631106873859,-7.74
1631106873875,-8.55
1631106873890,-9.42
1631106873906,-10.4
1631106873921,-11.59
1631106873937,-13.06
1631106873953,-14.83
1631106873968,-16.79
1631106873984,-18.73
1631106874000,-20.36
1631106874015,-21.4
1631106874031,-21.65
1631106874046,-20.99
1631106874062,-19.42
1631106874078,-17.03
1631106874093,-13.99
1631106874109,-10.47
1631106874125,-6.68
1631106874140,-2.8
1631106874156,0.96
1631106874171,4.41
1631106874187,7.36
1631106874203,9.68
1631106874218,11.33
1631106874234,12.36
1631106874250,12.85
1631106874265,12.9
1631106874281,12.63
1631106874296,12.11
1631106874312,11.47
1631106874328,10.86
1631106874343,10.4
1631106874359,10.16
1631106874375,10.11
1631106874390,10.15
1631106874406,10.17
1631106874421,10.08
1631106874437,9.92
1631106874453,9.75
1631106874468,9.65
1631106874484,9.68
1631106874500,9.82
1631106874515,10.0
1631106874531,10.13
1631106874546,10.09
1631106874562,9.82
1631106874578,9.3
1631106874593,8.56
1631106874609,7.67
1631106874625,6.71
1631106874640,5.72
1631106874656,4.64
1631106874671,3.46
1631106874687,2.17
1631106874703,0.91
1631106874718,-0.16
1631106874734,-0.9
1631106874750,-1.31
1631106874765,-1.51
1631106874781,-1.72
1631106874796,-2.12
1631106874812,-2.79
1631106874828,-3.66
1631106874843,-4.61
1631106874859,-5.51
1631106874875,-6.34
1631106874890,-7.14
1631106874906,-7.98
1631106874921,-8.89
1631106874937,-9.85
1631106874953,-10.79
1631106874968,-11.69
1631106874984,-12.61
1631106875000,-13.69
1631106875015,-15.09
1631106875031,-16.86
1631106875046,-18.93
1631106875062,-21.07
1631106875078,-22.95
1631106875093,-24.2
1631106875109,-24.55
1631106875125,-23.8
1631106875140,-21.89
1631106875156,-18.89
1631106875171,-15.01
1631106875187,-10.55
1631106875203,-5.92
1631106875218,-1.49
1631106875234,2.43
1631106875250,5.69
1631106875265,8.26
1631106875281,10.21
1631106875296,11.63
1631106875312,12.6
1631106875328,13.16
1631106875343,13.33
1631106875359,13.13
1631106875375,12.68
1631106875390,12.09
1631106875406,11.51
1631106875421,11.1
1631106875437,10.91
1631106875453,10.92
1631106875468,11.04
1631106875484,11.15
1631106875500,11.16
1631106875515,11.06
1631106875531,10.86
1631106875546,10.62
1631106875562,10.37
1631106875578,10.07
1631106875593,9.69
1631106875609,9.21
1631106875625,8.66
1631106875640,8.14
1631106875656,7.72
1631106875671,7.42
1631106875687,7.13
1631106875703,6.7
1631106875718,5.99
1631106875734,4.99
1631106875750,3.83
1631106875765,2.73
1631106875781,1.86
1631106875796,1.27
1631106875812,0.86
1631106875828,0.5
1631106875843,0.03
1631106875859,-0.56
1631106875875,-1.23
1631106875890,-1.86
1631106875906,-2.36
1631106875921,-2.73
1631106875937,-3.04
1631106875953,-3.43
1631106875968,-4.0
1631106875984,-4.84
1631106876000,-5.92
1631106876015,-7.16
1631106876031,-8.45
1631106876046,-9.67
1631106876062,-10.78
1631106876078,-11.79
1631106876093,-12.76
1631106876109,-13.78
1631106876125,-14.96
1631106876140,-16.4
1631106876156,-18.1
1631106876171,-19.99
1631106876187,-21.81
1631106876203,-23.18
1631106876218,-23.65
1631106876234,-22.84
1631106876250,-20.59
1631106876265,-17.04
1631106876281,-12.61
1631106876296,-7.86
1631106876312,-3.3
1631106876328,0.71
1631106876343,4.04
1631106876359,6.72
1631106876375,8.79
1631106876390,10.31
1631106876406,11.25
1631106876421,11.66
1631106876437,11.63
1631106876453,11.41
1631106876468,11.29
1631106876484,11.45
1631106876500,11.9
1631106876515,12.45
1631106876531,12.79
1631106876546,12.71
1631106876562,12.15
1631106876578,11.29
1631106876593,10.4
1631106876609,9.76
1631106876625,9.49
1631106876640,9.5
1631106876656,9.6
1631106876671,9.59
1631106876687,9.36
1631106876703,8.94
1631106876718,8.42
1631106876734,7.91
1631106876750,7.43
1631106876765,6.95
1631106876781,6.4
1631106876796,5.73
1631106876812,4.97
1631106876828,4.2
1631106876843,3.52
1631106876859,2.96
1631106876875,2.49
1631106876890,2.03
1631106876906,1.48
1631106876921,0.77
1631106876937,-0.07
1631106876953,-0.96
1631106876968,-1.79
1631106876984,-2.42
1631106877000,-2.83
1631106877015,-3.04
1631106877031,-3.17
1631106877046,-3.38
1631106877062,-3.77
1631106877078,-4.41
1631106877093,-5.29
1631106877109,-6.35
1631106877125,-7.51
1631106877140,-8.7
1631106877156,-9.86
1631106877171,-10.93
1631106877187,-11.86
1631106877203,-12.61
1631106877218,-13.28
1631106877234,-14.04
1631106877250,-15.12
1631106877265,-16.63
1631106877281,-18.5
1631106877296,-20.38
1631106877312,-21.75
1631106877328,-22.13
1631106877343,-21.18
1631106877359,-18.9
1631106877375,-15.57
1631106877390,-11.6
1631106877406,-7.45
1631106877421,-3.45
1631106877437,0.2
1631106877453,3.44
1631106877468,6.25
1631106877484,8.65
1631106877500,10.65
1631106877515,12.24
1631106877531,13.38
1631106877546,14.02
1631106877562,14.15
1631106877578,13.79
1631106877593,13.07
1631106877609,12.17
1631106877625,11.3
1631106877640,10.6
1631106877656,10.12
1631106877671,9.8
1631106877687,9.54
1631106877703,9.26
1631106877718,8.95
1631106877734,8.66
1631106877750,8.46
1631106877765,8.38
1631106877781,8.37
1631106877796,8.36
1631106877812,8.32
1631106877828,8.23
1631106877843,8.09
1631106877859,7.86
1631106877875,7.47
1631106877890,6.79
1631106877906,5.8
1631106877921,4.56
1631106877937,3.24
1631106877953,2.04
1631106877968,1.1
1631106877984,0.48
1631106878000,0.11
1631106878015,-0.15
1631106878031,-0.43
1631106878046,-0.84
1631106878062,-1.39
1631106878078,-2.02
1631106878093,-2.66
1631106878109,-3.2
1631106878125,-3.62
1631106878140,-3.97
1631106878156,-4.35
1631106878171,-4.88
1631106878187,-5.6
1631106878203,-6.48
1631106878218,-7.43
1631106878234,-8.4
1631106878250,-9.36
1631106878265,-10.36
1631106878281,-11.41
1631106878296,-12.56
1631106878312,-13.78
1631106878328,-15.07
1631106878343,-16.43
1631106878359,-17.86
1631106878375,-19.28
1631106878390,-20.52
1631106878406,-21.33
1631106878421,-21.41
1631106878437,-20.54
1631106878453,-18.62
1631106878468,-15.73
1631106878484,-12.09
1631106878500,-8.02
1631106878515,-3.87
1631106878531,0.05
1631106878546,3.46
1631106878562,6.24
1631106878578,8.38
1631106878593,9.97
1631106878609,11.13
1631106878625,11.95
1631106878640,12.48
1631106878656,12.69
1631106878671,12.54
1631106878687,12.01
1631106878703,11.22
1631106878718,10.36
1631106878734,9.67
1631106878750,9.31
1631106878765,9.29
1631106878781,9.48
1631106878796,9.69
1631106878812,9.76
1631106878828,9.72
1631106878843,9.7
1631106878859,9.9
1631106878875,10.38
1631106878890,11.0
1631106878906,11.49
1631106878921,11.56
1631106878937,11.12
1631106878953,10.26
1631106878968,9.23
1631106878984,8.27
1631106879000,7.46
1631106879015,6.75
1631106879031,5.97
1631106879046,5.03
1631106879062,3.95
1631106879078,2.88
1631106879093,1.99
1631106879109,1.34
1631106879125,0.9
1631106879140,0.53
1631106879156,0.04
1631106879171,-0.66
1631106879187,-1.6
1631106879203,-2.7
1631106879218,-3.87
1631106879234,-5.0
1631106879250,-6.04
1631106879265,-6.99
1631106879281,-7.88
1631106879296,-8.71
1631106879312,-9.48
1631106879328,-10.16
1631106879343,-10.76
1631106879359,-11.36
1631106879375,-12.11
1631106879390,-13.13
1631106879406,-14.52
1631106879421,-16.23
1631106879437,-18.1
1631106879453,-19.79
1631106879468,-20.97
1631106879484,-21.29
1631106879500,-20.56
1631106879515,-18.71
1631106879531,-15.86
1631106879546,-12.29
1631106879562,-8.32
1631106879578,-4.25
1631106879593,-0.34
1631106879609,3.22
1631106879625,6.34
1631106879640,8.94
1631106879656,10.99
1631106879671,12.48
1631106879687,13.4
1631106879703,13.79
1631106879718,13.68
1631106879734,13.14
1631106879750,12.27
1631106879765,11.2
1631106879781,10.1
1631106879796,9.17
1631106879812,8.57
1631106879828,8.35
1631106879843,8.51
1631106879859,8.93
1631106879875,9.43
1631106879890,9.86
1631106879906,10.14
1631106879921,10.19
1631106879937,10.01
1631106879953,9.66
1631106879968,9.18
1631106879984,8.64
1631106880000,8.05
1631106880015,7.44
1631106880031,6.79
1631106880046,6.1
1631106880062,5.4
1631106880078,4.71
1631106880093,4.07
1631106880109,3.48
1631106880125,2.89
1631106880140,2.2
1631106880156,1.36
1631106880171,0.34
1631106880187,-0.77
1631106880203,-1.82
1631106880218,-2.65
1631106880234,-3.21
1631106880250,-3.56
1631106880265,-3.89
1631106880281,-4.4
1631106880296,-5.18
1631106880312,-6.23
1631106880328,-7.43
1631106880343,-8.65
1631106880359,-9.77
1631106880375,-10.77
1631106880390,-11.69
1631106880406,-12.62
1631106880421,-13.64
1631106880437,-14.85
1631106880453,-16.33
1631106880468,-18.12
1631106880484,-20.14
1631106880500,-22.18
1631106880515,-23.87
1631106880531,-24.78
1631106880546,-24.53
1631106880562,-22.96
1631106880578,-20.16
1631106880593,-16.43
1631106880609,-12.19
1631106880625,-7.85
1631106880640,-3.72
1631106880656,0.01
1631106880671,3.31
1631106880687,6.17
1631106880703,8.63
1631106880718,10.69
1631106880734,12.32
1631106880750,13.5
1631106880765,14.19
1631106880781,14.43
1631106880796,14.31
1631106880812,13.93
1631106880828,13.41
1631106880843,12.85
1631106880859,12.31
1631106880875,11.85
1631106880890,11.52
1631106880906,11.35
1631106880921,11.34
1631106880937,11.44
1631106880953,11.57
1631106880968,11.62
1631106880984,11.49
1631106881000,11.17
1631106881015,10.67
1631106881031,10.07
1631106881046,9.39
1631106881062,8.69
1631106881078,7.99
1631106881093,7.3
1631106881109,6.62
1631106881125,5.98
1631106881140,5.37
1631106881156,4.79
1631106881171,4.23
1631106881187,3.66
1631106881203,3.06
1631106881218,2.42
1631106881234,1.72
1631106881250,0.98
1631106881265,0.19
1631106881281,-0.64
1631106881296,-1.52
1631106881312,-2.43
1631106881328,-3.29
1631106881343,-4.05
1631106881359,-4.6
1631106881375,-4.97
1631106881390,-5.28
1631106881406,-5.69
1631106881421,-6.39
1631106881437,-7.43
1631106881453,-8.71
1631106881468,-10.01
1631106881484,-11.16
1631106881500,-12.06
1631106881515,-12.81
1631106881531,-13.62
1631106881546,-14.73
1631106881562,-16.32
1631106881578,-18.35
1631106881593,-20.63
1631106881609,-22.78
1631106881625,-24.33
1631106881640,-24.85
1631106881656,-24.08
1631106881671,-22.0
1631106881687,-18.82
1631106881703,-14.93
1631106881718,-10.71
1631106881734,-6.49
1631106881750,-2.46
1631106881765,1.3
1631106881781,4.74
1631106881796,7.77
1631106881812,10.29
1631106881828,12.25
1631106881843,13.61
1631106881859,14.44
1631106881875,14.82
1631106881890,14.86
1631106881906,14.63
1631106881921,14.18
1631106881937,13.58
1631106881953,12.94
1631106881968,12.36
1631106881984,11.92
1631106882000,11.62
1631106882015,11.43
1631106882031,11.25
1631106882046,11.04
1631106882062,10.77
1631106882078,10.41
1631106882093,9.97
1631106882109,9.44
1631106882125,8.84
1631106882140,8.2
1631106882156,7.57
1631106882171,7.05
1631106882187,6.69
1631106882203,6.53
1631106882218,6.5
1631106882234,6.47
1631106882250,6.27
1631106882265,5.75
1631106882281,4.85
1631106882296,3.59
1631106882312,2.17
1631106882328,0.83
1631106882343,-0.19
1631106882359,-0.74
1631106882375,-0.86
1631106882390,-0.76
1631106882406,-0.71
1631106882421,-0.95
1631106882437,-1.59
1631106882453,-2.6
1631106882468,-3.86
1631106882484,-5.22
1631106882500,-6.56
1631106882515,-7.84
1631106882531,-9.03
1631106882546,-10.11
1631106882562,-11.04
1631106882578,-11.82
1631106882593,-12.47
1631106882609,-13.08
1631106882625,-13.8
1631106882640,-14.79
1631106882656,-16.16
1631106882671,-17.95
1631106882687,-20.02
1631106882703,-22.1
1631106882718,-23.78
1631106882734,-24.57
1631106882750,-24.04
1631106882765,-21.97
1631106882781,-18.45
1631106882796,-13.89
1631106882812,-8.88
1631106882828,-4.03
1631106882843,0.26
1631106882859,3.79
1631106882875,6.61
1631106882890,8.84
1631106882906,10.55
1631106882921,11.75
1631106882937,12.42
1631106882953,12.62
1631106882968,12.51
1631106882984,12.33
1631106883000,12.27
1631106883015,12.4
1631106883031,12.62
1631106883046,12.73
1631106883062,12.61
1631106883078,12.22
1631106883093,11.68
1631106883109,11.13
1631106883125,10.68
1631106883140,10.34
1631106883156,10.06
1631106883171,9.81
1631106883187,9.59
1631106883203,9.49
1631106883218,9.55
1631106883234,9.76
1631106883250,9.99
1631106883265,10.07
1631106883281,9.81
1631106883296,9.15
1631106883312,8.12
1631106883328,6.85
1631106883343,5.49
1631106883359,4.21
1631106883375,3.1
1631106883390,2.2
1631106883406,1.5
1631106883421,0.91
1631106883437,0.35
1631106883453,-0.27
1631106883468,-0.99
1631106883484,-1.78
1631106883500,-2.59
1631106883515,-3.39
1631106883531,-4.16
1631106883546,-4.91
1631106883562,-5.62
1631106883578,-6.29
1631106883593,-6.87
1631106883609,-7.35
1631106883625,-7.78
1631106883640,-8.24
1631106883656,-8.85
1631106883671,-9.68
1631106883687,-10.72
1631106883703,-11.93
1631106883718,-13.26
1631106883734,-14.63
1631106883750,-15.96
1631106883765,-17.09
1631106883781,-17.81
1631106883796,-17.83
1631106883812,-16.95
1631106883828,-15.09
1631106883843,-12.38
1631106883859,-9.08
1631106883875,-5.5
1631106883890,-1.9
1631106883906,1.58
1631106883921,4.84
1631106883937,7.84
1631106883953,10.46
1631106883968,12.54
1631106883984,13.93
1631106884000,14.54
1631106884015,14.39
1631106884031,13.61
1631106884046,12.42
1631106884062,11.09
1631106884078,9.86
1631106884093,8.97
1631106884109,8.53
1631106884125,8.52
1631106884140,8.81
1631106884156,9.2
1631106884171,9.49
1631106884187,9.54
1631106884203,9.32
1631106884218,8.88
1631106884234,8.3
1631106884250,7.68
1631106884265,7.07
1631106884281,6.53
1631106884296,6.1
1631106884312,5.78
1631106884328,5.52
1631106884343,5.25
1631106884359,4.85
1631106884375,4.21
1631106884390,3.31
1631106884406,2.2
1631106884421,0.96
1631106884437,-0.3
1631106884453,-1.49
1631106884468,-2.56
1631106884484,-3.48
1631106884500,-4.26
1631106884515,-4.95
1631106884531,-5.62
1631106884546,-6.33
1631106884562,-7.15
1631106884578,-8.09
1631106884593,-9.11
1631106884609,-10.16
1631106884625,-11.21
1631106884640,-12.32
1631106884656,-13.56
1631106884671,-15.07
1631106884687,-16.86
1631106884703,-18.85
1631106884718,-20.75
1631106884734,-22.21
1631106884750,-22.86
1631106884765,-22.42
1631106884781,-20.81
1631106884796,-18.16
1631106884812,-14.7
1631106884828,-10.76
1631106884843,-6.62
1631106884859,-2.49
1631106884875,1.46
1631106884890,5.08
1631106884906,8.21
1631106884921,10.68
1631106884937,12.38
1631106884953,13.31
1631106884968,13.6
1631106884984,13.51
1631106885000,13.34
1631106885015,13.23
1631106885031,13.17
1631106885046,13.05
1631106885062,12.7
1631106885078,12.08
1631106885093,11.32
1631106885109,10.63
1631106885125,10.2
1631106885140,10.09
1631106885156,10.23
1631106885171,10.41
1631106885187,10.46
1631106885203,10.28
1631106885218,9.9
1631106885234,9.4
1631106885250,8.83
1631106885265,8.2
1631106885281,7.51
1631106885296,6.75
1631106885312,5.96
1631106885328,5.22
1631106885343,4.58
1631106885359,4.02
1631106885375,3.45
1631106885390,2.79
1631106885406,1.97
1631106885421,1.05
1631106885437,0.13
1631106885453,-0.67
1631106885468,-1.31
1631106885484,-1.84
1631106885500,-2.4
1631106885515,-3.12
1631106885531,-4.09
1631106885546,-5.28
1631106885562,-6.6
1631106885578,-7.92
1631106885593,-9.11
1631106885609,-10.1
1631106885625,-10.91
1631106885640,-11.59
1631106885656,-12.3
1631106885671,-13.21
1631106885687,-14.45
1631106885703,-16.05
1631106885718,-17.92
1631106885734,-19.82
1631106885750,-21.45
1631106885765,-22.49
1631106885781,-22.69
1631106885796,-21.88
1631106885812,-19.97
1631106885828,-17.02
1631106885843,-13.19
1631106885859,-8.79
1631106885875,-4.23
1631106885890,0.11
1631106885906,3.91
1631106885921,7.0
1631106885937,9.34
1631106885953,10.97
1631106885968,11.99
1631106885984,12.55
1631106886000,12.79
1631106886015,12.84
1631106886031,12.81
1631106886046,12.73
1631106886062,12.57
1631106886078,12.26
1631106886093,11.77
1631106886109,11.18
1631106886125,10.61
1631106886140,10.21
1631106886156,10.04
1631106886171,10.07
1631106886187,10.18
1631106886203,10.25
1631106886218,10.21
1631106886234,10.08
1631106886250,9.83
1631106886265,9.47
1631106886281,8.98
1631106886296,8.35
1631106886312,7.64
1631106886328,6.94
1631106886343,6.34
1631106886359,5.87
1631106886375,5.44
1631106886390,4.93
1631106886406,4.28
1631106886421,3.51
1631106886437,2.75
1631106886453,2.11
1631106886468,1.65
1631106886484,1.31
1631106886500,0.96
1631106886515,0.47
1631106886531,-0.21
1631106886546,-1.06
1631106886562,-1.98
1631106886578,-2.92
1631106886593,-3.83
1631106886609,-4.72
1631106886625,-5.6
1631106886640,-6.47
1631106886656,-7.31
1631106886671,-8.09
1631106886687,-8.83
1631106886703,-9.57
1631106886718,-10.42
1631106886734,-11.44
1631106886750,-12.64
1631106886765,-13.97
1631106886781,-15.38
1631106886796,-16.81
1631106886812,-18.26
1631106886828,-19.72
1631106886843,-21.08
1631106886859,-22.09
1631106886875,-22.43
1631106886890,-21.74
1631106886906,-19.86
1631106886921,-16.86
1631106886937,-13.06
1631106886953,-8.83
1631106886968,-4.54
1631106886984,-0.45
1631106887000,3.3
1631106887015,6.6
1631106887031,9.35
1631106887046,11.42
1631106887062,12.72
1631106887078,13.26
1631106887093,13.2
1631106887109,12.75
1631106887125,12.15
1631106887140,11.56
1631106887156,11.04
1631106887171,10.58
1631106887187,10.17
1631106887203,9.82
1631106887218,9.53
1631106887234,9.32
1631106887250,9.15
1631106887265,8.99
1631106887281,8.78
1631106887296,8.5
1631106887312,8.17
1631106887328,7.86
1631106887343,7.6
1631106887359,7.38
1631106887375,7.13
1631106887390,6.79
1631106887406,6.3
1631106887421,5.64
1631106887437,4.82
1631106887453,3.88
1631106887468,2.84
1631106887484,1.77
1631106887500,0.72
1631106887515,-0.23
1631106887531,-1.01
1631106887546,-1.6
1631106887562,-2.02
1631106887578,-2.36
1631106887593,-2.72
1631106887609,-3.19
1631106887625,-3.82
1631106887640,-4.59
1631106887656,-5.4
1631106887671,-6.19
1631106887687,-6.9
1631106887703,-7.56
1631106887718,-8.19
1631106887734,-8.84
1631106887750,-9.48
1631106887765,-10.1
1631106887781,-10.67
1631106887796,-11.27
1631106887812,-12.04
1631106887828,-13.1
1631106887843,-14.51
1631106887859,-16.21
1631106887875,-18.08
1631106887890,-19.98
1631106887906,-21.77
1631106887921,-23.36
1631106887937,-24.6
1631106887953,-25.23
1631106887968,-24.92
1631106887984,-23.33
1631106888000,-20.26
1631106888015,-15.79
1631106888031,-10.3
1631106888046,-4.32
1631106888062,1.59
1631106888078,6.94
1631106888093,11.45
1631106888109,15.02
1631106888125,17.68
1631106888140,19.49
1631106888156,20.52
1631106888171,20.81
1631106888187,20.43
1631106888203,19.49
1631106888218,18.22
1631106888234,16.89
1631106888250,15.73
1631106888265,14.89
1631106888281,14.36
1631106888296,14.01
1631106888312,13.65
1631106888328,13.2
1631106888343,12.68
1631106888359,12.19
1631106888375,11.88
1631106888390,11.81
1631106888406,11.92
1631106888421,12.07
1631106888437,12.06
1631106888453,11.75
1631106888468,11.1
1631106888484,10.18
1631106888500,9.09
1631106888515,7.96
1631106888531,6.87
1631106888546,5.83
1631106888562,4.8
1631106888578,3.77
1631106888593,2.77
1631106888609,1.87
1631106888625,1.17
1631106888640,0.67
1631106888656,0.3
1631106888671,-0.06
1631106888687,-0.54
1631106888703,-1.22
1631106888718,-2.07
1631106888734,-2.99
1631106888750,-3.89
1631106888765,-4.74
1631106888781,-5.56
1631106888796,-6.39
1631106888812,-7.23
1631106888828,-8.01
1631106888843,-8.65
1631106888859,-9.13
1631106888875,-9.52
1631106888890,-9.99
1631106888906,-10.75
1631106888921,-11.96
1631106888937,-13.66
1631106888953,-15.71
1631106888968,-17.83
1631106888984,-19.63
1631106889000,-20.71
1631106889015,-20.7
1631106889031,-19.44
1631106889046,-16.95
1631106889062,-13.5
1631106889078,-9.52
1631106889093,-5.48
1631106889109,-1.75
1631106889125,1.52
1631106889140,4.3
1631106889156,6.68
1631106889171,8.69
1631106889187,10.31
1631106889203,11.45
1631106889218,12.09
1631106889234,12.27
1631106889250,12.13
1631106889265,11.8
1631106889281,11.41
1631106889296,11.0
1631106889312,10.59
1631106889328,10.21
1631106889343,9.91
1631106889359,9.77
1631106889375,9.78
1631106889390,9.88
1631106889406,9.95
1631106889421,9.86
1631106889437,9.57
1631106889453,9.07
1631106889468,8.45
1631106889484,7.81
1631106889500,7.2
1631106889515,6.67
1631106889531,6.21
1631106889546,5.84
1631106889562,5.52
1631106889578,5.21
1631106889593,4.83
1631106889609,4.28
1631106889625,3.53
1631106889640,2.57
1631106889656,1.5
1631106889671,0.44
1631106889687,-0.48
1631106889703,-1.21
1631106889718,-1.76
1631106889734,-2.2
1631106889750,-2.59
1631106889765,-2.99
1631106889781,-3.45
1631106889796,-4.0
1631106889812,-4.68
1631106889828,-5.53
1631106889843,-6.55
1631106889859,-7.7
1631106889875,-8.87
1631106889890,-9.95
1631106889906,-10.89
1631106889921,-11.71
