timestamp,bvp
1631021159156,3.51
1631021159171,3.42
1631021159187,3.44
1631021159203,3.45
1631021159218,3.32
1631021159234,2.97
1631021159250,2.4
1631021159265,1.65
1631021159281,0.78
1631021159296,-0.12
1631021159312,-0.99
1631021159328,-1.74
1631021159343,-2.28
1631021159359,-2.59
1631021159375,-2.72
1631021159390,-2.86
1631021159406,-3.23
1631021159421,-3.99
1631021159437,-5.18
1631021159453,-6.65
1631021159468,-8.09
1631021159484,-9.15
1631021159500,-9.57
1631021159515,-9.22
1631021159531,-8.18
1631021159546,-6.64
1631021159562,-4.86
1631021159578,-3.07
1631021159593,-1.39
1631021159609,0.17
1631021159625,1.68
1631021159640,3.17
1631021159656,4.66
1631021159671,6.03
1631021159687,7.18
1631021159703,7.99
1631021159718,8.44
1631021159734,8.58
1631021159750,8.52
1631021159765,8.35
1631021159781,8.16
1631021159796,7.98
1631021159812,7.79
1631021159828,7.6
1631021159843,7.39
1631021159859,7.15
1631021159875,6.89
1631021159890,6.58
1631021159906,6.2
1631021159921,5.69
1631021159937,5.06
1631021159953,4.32
1631021159968,3.57
1631021159984,2.92
1631021160000,2.43
1631021160015,2.08
1631021160031,1.73
1631021160046,1.21
1631021160062,0.39
1631021160078,-0.74
1631021160093,-2.08
1631021160109,-3.44
1631021160125,-4.69
1631021160140,-5.76
1631021160156,-6.67
1631021160171,-7.5
1631021160187,-8.32
1631021160203,-9.16
1631021160218,-10.03
1631021160234,-10.92
1631021160250,-11.8
1631021160265,-12.55
1631021160281,-13.03
1631021160296,-13.05
1631021160312,-12.46
1631021160328,-11.2
1631021160343,-9.34
1631021160359,-7.03
1631021160375,-4.49
1631021160390,-1.96
1631021160406,0.37
1631021160421,2.34
1631021160437,3.88
1631021160453,5.03
1631021160468,5.87
1631021160484,6.51
1631021160500,7.03
1631021160515,7.49
1631021160531,7.89
1631021160546,8.23
1631021160562,8.46
1631021160578,8.57
1631021160593,8.53
1631021160609,8.35
1631021160625,8.05
1631021160640,7.68
1631021160656,7.29
1631021160671,6.93
1631021160687,6.58
1631021160703,6.22
1631021160718,5.8
1631021160734,5.3
1631021160750,4.76
1631021160765,4.24
1631021160781,3.79
1631021160796,3.37
1631021160812,2.89
1631021160828,2.21
1631021160843,1.25
1631021160859,0.01
1631021160875,-1.4
1631021160890,-2.82
1631021160906,-4.1
1631021160921,-5.15
1631021160937,-5.93
1631021160953,-6.46
1631021160968,-6.82
1631021160984,-7.14
1631021161000,-7.57
1631021161015,-8.25
1631021161031,-9.27
1631021161046,-10.57
1631021161062,-11.96
1631021161078,-13.1
1631021161093,-13.64
1631021161109,-13.32
1631021161125,-12.05
1631021161140,-9.96
1631021161156,-7.32
1631021161171,-4.47
1631021161187,-1.74
1631021161203,0.62
1631021161218,2.5
1631021161234,3.91
1631021161250,4.97
1631021161265,5.8
1631021161281,6.51
1631021161296,7.14
1631021161312,7.69
1631021161328,8.14
1631021161343,8.47
1631021161359,8.69
1631021161375,8.81
1631021161390,8.82
1631021161406,8.7
1631021161421,8.43
1631021161437,7.99
1631021161453,7.44
1631021161468,6.83
1631021161484,6.24
1631021161500,5.69
1631021161515,5.19
1631021161531,4.71
1631021161546,4.24
1631021161562,3.78
1631021161578,3.3
1631021161593,2.79
1631021161609,2.2
1631021161625,1.5
1631021161640,0.68
1631021161656,-0.24
1631021161671,-1.23
1631021161687,-2.25
1631021161703,-3.28
1631021161718,-4.31
1631021161734,-5.32
1631021161750,-6.26
1631021161765,-7.13
1631021161781,-7.93
1631021161796,-8.7
1631021161812,-9.51
1631021161828,-10.35
1631021161843,-11.16
1631021161859,-11.81
1631021161875,-12.14
1631021161890,-12.01
1631021161906,-11.34
1631021161921,-10.11
1631021161937,-8.36
1631021161953,-6.19
1631021161968,-3.78
1631021161984,-1.32
1631021162000,0.96
1631021162015,2.91
1631021162031,4.49
1631021162046,5.72
1631021162062,6.64
1631021162078,7.29
1631021162093,7.62
1631021162109,7.61
1631021162125,7.32
1631021162140,6.89
1631021162156,6.55
1631021162171,6.45
1631021162187,6.64
1631021162203,7.02
1631021162218,7.39
1631021162234,7.57
1631021162250,7.5
1631021162265,7.2
1631021162281,6.74
1631021162296,6.17
1631021162312,5.48
1631021162328,4.69
1631021162343,3.81
1631021162359,2.9
1631021162375,2.06
1631021162390,1.33
1631021162406,0.72
1631021162421,0.17
1631021162437,-0.37
1631021162453,-0.98
1631021162468,-1.71
1631021162484,-2.6
1631021162500,-3.66
1631021162515,-4.84
1631021162531,-6.03
1631021162546,-7.14
1631021162562,-8.16
1631021162578,-9.09
1631021162593,-10.04
1631021162609,-10.99
1631021162625,-11.83
1631021162640,-12.26
1631021162656,-12.0
1631021162671,-10.87
1631021162687,-8.95
1631021162703,-6.56
1631021162718,-4.07
1631021162734,-1.78
1631021162750,0.15
1631021162765,1.75
1631021162781,3.12
1631021162796,4.3
1631021162812,5.33
1631021162828,6.19
1631021162843,6.85
1631021162859,7.32
1631021162875,7.61
1631021162890,7.78
1631021162906,7.86
1631021162921,7.89
1631021162937,7.86
1631021162953,7.74
1631021162968,7.5
1631021162984,7.14
1631021163000,6.74
1631021163015,6.36
1631021163031,6.07
1631021163046,5.88
1631021163062,5.68
1631021163078,5.35
1631021163093,4.78
1631021163109,3.96
1631021163125,2.95
1631021163140,1.87
1631021163156,0.76
1631021163171,-0.35
1631021163187,-1.49
1631021163203,-2.62
1631021163218,-3.67
1631021163234,-4.51
1631021163250,-5.09
1631021163265,-5.45
1631021163281,-5.78
1631021163296,-6.35
1631021163312,-7.37
1631021163328,-8.86
1631021163343,-10.64
1631021163359,-12.33
1631021163375,-13.48
1631021163390,-13.77
1631021163406,-13.12
1631021163421,-11.69
1631021163437,-9.81
1631021163453,-7.83
1631021163468,-5.96
1631021163484,-4.25
1631021163500,-2.6
1631021163515,-0.93
1631021163531,0.81
1631021163546,2.55
1631021163562,4.13
1631021163578,5.4
1631021163593,6.31
1631021163609,6.89
1631021163625,7.24
1631021163640,7.46
1631021163656,7.58
1631021163671,7.6
1631021163687,7.45
1631021163703,7.1
1631021163718,6.57
1631021163734,5.97
1631021163750,5.46
1631021163765,5.16
1631021163781,5.11
1631021163796,5.24
1631021163812,5.38
1631021163828,5.31
1631021163843,4.85
1631021163859,3.93
1631021163875,2.61
1631021163890,1.09
1631021163906,-0.42
1631021163921,-1.68
1631021163937,-2.6
1631021163953,-3.2
1631021163968,-3.56
1631021163984,-3.86
1631021164000,-4.23
1631021164015,-4.81
1631021164031,-5.72
1631021164046,-7.0
1631021164062,-8.6
1631021164078,-10.33
1631021164093,-11.86
1631021164109,-12.84
1631021164125,-12.97
1631021164140,-12.16
1631021164156,-10.56
1631021164171,-8.49
1631021164187,-6.35
1631021164203,-4.4
1631021164218,-2.76
1631021164234,-1.36
1631021164250,-0.05
1631021164265,1.28
1631021164281,2.65
1631021164296,3.92
1631021164312,4.93
1631021164328,5.56
1631021164343,5.83
1631021164359,5.87
1631021164375,5.91
1631021164390,6.1
1631021164406,6.5
1631021164421,7.0
1631021164437,7.41
1631021164453,7.56
1631021164468,7.37
1631021164484,6.92
1631021164500,6.38
1631021164515,5.89
1631021164531,5.53
1631021164546,5.23
1631021164562,4.85
1631021164578,4.26
1631021164593,3.43
1631021164609,2.41
1631021164625,1.36
1631021164640,0.39
1631021164656,-0.46
1631021164671,-1.23
1631021164687,-2.02
1631021164703,-2.89
1631021164718,-3.86
1631021164734,-4.9
1631021164750,-5.99
1631021164765,-7.13
1631021164781,-8.31
1631021164796,-9.51
1631021164812,-10.57
1631021164828,-11.28
1631021164843,-11.4
1631021164859,-10.75
1631021164875,-9.32
1631021164890,-7.25
1631021164906,-4.79
1631021164921,-2.22
1631021164937,0.18
1631021164953,2.27
1631021164968,3.99
1631021164984,5.37
1631021165000,6.49
1631021165015,7.41
1631021165031,8.11
1631021165046,8.51
1631021165062,8.57
1631021165078,8.24
1631021165093,7.64
1631021165109,6.93
1631021165125,6.3
1631021165140,5.87
1631021165156,5.65
1631021165171,5.58
1631021165187,5.53
1631021165203,5.4
1631021165218,5.14
1631021165234,4.75
1631021165250,4.21
1631021165265,3.53
1631021165281,2.68
1631021165296,1.7
1631021165312,0.7
1631021165328,-0.19
1631021165343,-0.87
1631021165359,-1.33
1631021165375,-1.69
1631021165390,-2.16
1631021165406,-2.93
1631021165421,-4.1
1631021165437,-5.61
1631021165453,-7.3
1631021165468,-8.94
1631021165484,-10.28
1631021165500,-11.11
1631021165515,-11.29
1631021165531,-10.69
1631021165546,-9.36
1631021165562,-7.43
1631021165578,-5.17
1631021165593,-2.93
1631021165609,-0.96
1631021165625,0.61
1631021165640,1.84
1631021165656,2.87
1631021165671,3.88
1631021165687,4.91
1631021165703,5.92
1631021165718,6.78
1631021165734,7.37
1631021165750,7.65
1631021165765,7.65
1631021165781,7.46
1631021165796,7.14
1631021165812,6.75
1631021165828,6.31
1631021165843,5.84
1631021165859,5.42
1631021165875,5.11
1631021165890,4.94
1631021165906,4.85
1631021165921,4.7
1631021165937,4.26
1631021165953,3.42
1631021165968,2.16
1631021165984,0.66
1631021166000,-0.8
1631021166015,-1.98
1631021166031,-2.75
1631021166046,-3.21
1631021166062,-3.55
1631021166078,-4.04
1631021166093,-4.85
1631021166109,-6.02
1631021166125,-7.46
1631021166140,-9.0
1631021166156,-10.41
1631021166171,-11.42
1631021166187,-11.78
1631021166203,-11.31
1631021166218,-9.94
1631021166234,-7.81
1631021166250,-5.17
1631021166265,-2.4
1631021166281,0.17
1631021166296,2.3
1631021166312,3.91
1631021166328,5.03
1631021166343,5.78
1631021166359,6.3
1631021166375,6.68
1631021166390,6.97
1631021166406,7.17
1631021166421,7.27
1631021166437,7.23
1631021166453,7.06
1631021166468,6.8
1631021166484,6.49
1631021166500,6.18
1631021166515,5.87
1631021166531,5.56
1631021166546,5.2
1631021166562,4.76
1631021166578,4.21
1631021166593,3.56
1631021166609,2.81
1631021166625,2.0
1631021166640,1.16
1631021166656,0.33
1631021166671,-0.47
1631021166687,-1.26
1631021166703,-2.05
1631021166718,-2.88
1631021166734,-3.79
1631021166750,-4.79
1631021166765,-5.89
1631021166781,-7.08
1631021166796,-8.28
1631021166812,-9.37
1631021166828,-10.17
1631021166843,-10.49
1631021166859,-10.2
1631021166875,-9.24
1631021166890,-7.69
1631021166906,-5.75
1631021166921,-3.66
1631021166937,-1.7
1631021166953,-0.03
1631021166968,1.26
1631021166984,2.21
1631021167000,2.96
1631021167015,3.6
1631021167031,4.2
1631021167046,4.76
1631021167062,5.18
1631021167078,5.43
1631021167093,5.46
1631021167109,5.32
1631021167125,5.04
1631021167140,4.66
1631021167156,4.19
1631021167171,3.67
1631021167187,3.16
1631021167203,2.76
1631021167218,2.52
1631021167234,2.42
1631021167250,2.38
1631021167265,2.32
1631021167281,2.14
1631021167296,1.81
1631021167312,1.34
1631021167328,0.71
1631021167343,-0.06
1631021167359,-0.97
1631021167375,-1.95
1631021167390,-2.85
1631021167406,-3.55
1631021167421,-4.01
1631021167437,-4.39
1631021167453,-4.92
1631021167468,-5.83
1631021167484,-7.15
1631021167500,-8.67
1631021167515,-10.01
1631021167531,-10.75
1631021167546,-10.64
1631021167562,-9.63
1631021167578,-7.9
1631021167593,-5.68
1631021167609,-3.2
1631021167625,-0.64
1631021167640,1.87
1631021167656,4.17
1631021167671,6.09
1631021167687,7.46
1631021167703,8.2
1631021167718,8.37
1631021167734,8.13
1631021167750,7.74
1631021167765,7.41
1631021167781,7.28
1631021167796,7.34
1631021167812,7.45
1631021167828,7.46
1631021167843,7.2
1631021167859,6.65
1631021167875,5.87
1631021167890,5.05
1631021167906,4.37
1631021167921,3.99
1631021167937,3.92
1631021167953,4.1
1631021167968,4.31
1631021167984,4.33
1631021168000,3.96
1631021168015,3.13
1631021168031,1.95
1631021168046,0.61
1631021168062,-0.66
1631021168078,-1.73
1631021168093,-2.56
1631021168109,-3.26
1631021168125,-3.97
1631021168140,-4.76
1631021168156,-5.65
1631021168171,-6.6
1631021168187,-7.55
1631021168203,-8.47
1631021168218,-9.32
1631021168234,-10.0
1631021168250,-10.32
1631021168265,-10.07
1631021168281,-9.15
1631021168296,-7.61
1631021168312,-5.67
1631021168328,-3.61
1631021168343,-1.65
1631021168359,0.11
1631021168375,1.7
1631021168390,3.16
1631021168406,4.47
1631021168421,5.56
1631021168437,6.33
1631021168453,6.73
1631021168468,6.84
1631021168484,6.78
1631021168500,6.69
1631021168515,6.63
1631021168531,6.57
1631021168546,6.48
1631021168562,6.3
1631021168578,6.07
1631021168593,5.85
1631021168609,5.7
1631021168625,5.64
1631021168640,5.61
1631021168656,5.48
1631021168671,5.16
1631021168687,4.58
1631021168703,3.76
1631021168718,2.78
1631021168734,1.75
1631021168750,0.77
1631021168765,-0.11
1631021168781,-0.86
1631021168796,-1.49
1631021168812,-2.01
1631021168828,-2.5
1631021168843,-3.04
1631021168859,-3.73
1631021168875,-4.65
1631021168890,-5.82
1631021168906,-7.17
1631021168921,-8.57
1631021168937,-9.89
1631021168953,-11.0
1631021168968,-11.77
1631021168984,-12.09
1631021169000,-11.83
1631021169015,-10.93
1631021169031,-9.41
1631021169046,-7.46
1631021169062,-5.36
1631021169078,-3.4
1631021169093,-1.81
1631021169109,-0.59
1631021169125,0.36
1631021169140,1.2
1631021169156,1.97
1631021169171,2.62
1631021169187,3.02
1631021169203,3.08
1631021169218,2.86
1631021169234,2.51
1631021169250,2.24
1631021169265,2.18
1631021169281,2.37
1631021169296,2.75
1631021169312,3.21
1631021169328,3.65
1631021169343,4.01
1631021169359,4.3
1631021169375,4.51
1631021169390,4.62
1631021169406,4.62
1631021169421,4.47
1631021169437,4.15
1631021169453,3.71
1631021169468,3.21
1631021169484,2.72
1631021169500,2.29
1631021169515,1.94
1631021169531,1.59
1631021169546,1.13
1631021169562,0.44
1631021169578,-0.51
1631021169593,-1.7
1631021169609,-3.01
1631021169625,-4.28
1631021169640,-5.38
1631021169656,-6.2
1631021169671,-6.77
1631021169687,-7.17
1631021169703,-7.58
1631021169718,-8.15
1631021169734,-8.94
1631021169750,-9.85
1631021169765,-10.63
1631021169781,-10.95
1631021169796,-10.59
1631021169812,-9.45
1631021169828,-7.65
1631021169843,-5.45
1631021169859,-3.15
1631021169875,-0.99
1631021169890,0.88
1631021169906,2.39
1631021169921,3.55
1631021169937,4.38
1631021169953,4.97
1631021169968,5.46
1631021169984,5.94
1631021170000,6.47
1631021170015,7.03
1631021170031,7.52
1631021170046,7.83
1631021170062,7.89
1631021170078,7.73
1631021170093,7.43
1631021170109,7.07
1631021170125,6.71
1631021170140,6.35
1631021170156,6.0
1631021170171,5.68
1631021170187,5.42
1631021170203,5.28
1631021170218,5.27
1631021170234,5.33
1631021170250,5.32
1631021170265,5.07
1631021170281,4.42
1631021170296,3.31
1631021170312,1.81
1631021170328,0.12
1631021170343,-1.5
1631021170359,-2.82
1631021170375,-3.68
1631021170390,-4.12
1631021170406,-4.28
1631021170421,-4.37
1631021170437,-4.6
1631021170453,-5.11
1631021170468,-5.94
1631021170484,-7.03
1631021170500,-8.32
1631021170515,-9.66
1631021170531,-10.88
1631021170546,-11.79
1631021170562,-12.21
1631021170578,-11.98
1631021170593,-11.09
1631021170609,-9.59
1631021170625,-7.64
1631021170640,-5.43
1631021170656,-3.17
1631021170671,-0.98
1631021170687,1.02
1631021170703,2.77
1631021170718,4.26
1631021170734,5.47
1631021170750,6.39
1631021170765,7.04
1631021170781,7.44
1631021170796,7.6
1631021170812,7.57
1631021170828,7.37
1631021170843,7.04
1631021170859,6.64
1631021170875,6.27
1631021170890,6.0
1631021170906,5.84
1631021170921,5.78
1631021170937,5.7
1631021170953,5.53
1631021170968,5.17
1631021170984,4.62
1631021171000,3.94
1631021171015,3.21
1631021171031,2.5
1631021171046,1.81
1631021171062,1.15
1631021171078,0.5
1631021171093,-0.16
1631021171109,-0.81
1631021171125,-1.44
1631021171140,-2.08
1631021171156,-2.77
1631021171171,-3.56
1631021171187,-4.44
1631021171203,-5.34
1631021171218,-6.21
1631021171234,-6.98
1631021171250,-7.7
1631021171265,-8.41
1631021171281,-9.18
1631021171296,-9.98
1631021171312,-10.64
1631021171328,-10.99
1631021171343,-10.83
1631021171359,-10.1
1631021171375,-8.83
1631021171390,-7.13
1631021171406,-5.1
1631021171421,-2.86
1631021171437,-0.52
1631021171453,1.77
1631021171468,3.84
1631021171484,5.54
1631021171500,6.77
1631021171515,7.51
1631021171531,7.83
1631021171546,7.82
1631021171562,7.61
1631021171578,7.27
1631021171593,6.89
1631021171609,6.56
1631021171625,6.33
1631021171640,6.19
1631021171656,6.12
1631021171671,6.03
1631021171687,5.87
1631021171703,5.64
1631021171718,5.34
1631021171734,4.99
1631021171750,4.57
1631021171765,4.05
1631021171781,3.43
1631021171796,2.74
1631021171812,2.04
1631021171828,1.41
1631021171843,0.85
1631021171859,0.32
1631021171875,-0.26
1631021171890,-0.97
1631021171906,-1.82
1631021171921,-2.75
1631021171937,-3.67
1631021171953,-4.54
1631021171968,-5.34
1631021171984,-6.12
1631021172000,-6.93
1631021172015,-7.77
1631021172031,-8.63
1631021172046,-9.49
1631021172062,-10.29
1631021172078,-10.98
1631021172093,-11.52
1631021172109,-11.81
1631021172125,-11.74
1631021172140,-11.21
1631021172156,-10.16
1631021172171,-8.62
1631021172187,-6.65
1631021172203,-4.43
1631021172218,-2.14
1631021172234,0.03
1631021172250,1.91
1631021172265,3.38
1631021172281,4.4
1631021172296,4.95
1631021172312,5.11
1631021172328,4.99
1631021172343,4.69
1631021172359,4.34
1631021172375,4.01
1631021172390,3.8
1631021172406,3.73
1631021172421,3.83
1631021172437,4.08
1631021172453,4.39
1631021172468,4.67
1631021172484,4.83
1631021172500,4.83
1631021172515,4.7
1631021172531,4.54
1631021172546,4.41
1631021172562,4.32
1631021172578,4.18
1631021172593,3.88
1631021172609,3.33
1631021172625,2.53
1631021172640,1.61
1631021172656,0.72
1631021172671,-0.0
1631021172687,-0.57
1631021172703,-1.09
1631021172718,-1.72
1631021172734,-2.56
1631021172750,-3.58
1631021172765,-4.67
1631021172781,-5.68
1631021172796,-6.56
1631021172812,-7.33
1631021172828,-8.1
1631021172843,-8.87
1631021172859,-9.53
1631021172875,-9.84
1631021172890,-9.57
1631021172906,-8.61
1631021172921,-7.04
1631021172937,-5.11
1631021172953,-3.1
1631021172968,-1.2
1631021172984,0.57
1631021173000,2.29
1631021173015,4.01
1631021173031,5.7
1631021173046,7.17
1631021173062,8.22
1631021173078,8.69
1631021173093,8.64
1631021173109,8.24
1631021173125,7.78
1631021173140,7.42
1631021173156,7.22
1631021173171,7.09
1631021173187,6.93
1631021173203,6.72
1631021173218,6.55
1631021173234,6.51
1631021173250,6.62
1631021173265,6.73
1631021173281,6.6
1631021173296,6.04
1631021173312,5.05
1631021173328,3.87
1631021173343,2.78
1631021173359,2.0
1631021173375,1.51
1631021173390,1.1
1631021173406,0.53
1631021173421,-0.33
1631021173437,-1.41
1631021173453,-2.51
1631021173468,-3.46
1631021173484,-4.19
1631021173500,-4.8
1631021173515,-5.44
1631021173531,-6.24
1631021173546,-7.26
1631021173562,-8.43
1631021173578,-9.67
1631021173593,-10.86
1631021173609,-11.89
1631021173625,-12.63
1631021173640,-12.96
1631021173656,-12.75
1631021173671,-11.92
1631021173687,-10.54
1631021173703,-8.77
1631021173718,-6.8
1631021173734,-4.8
1631021173750,-2.84
1631021173765,-0.94
1631021173781,0.9
1631021173796,2.61
1631021173812,4.07
1631021173828,5.15
1631021173843,5.81
1631021173859,6.14
1631021173875,6.29
1631021173890,6.44
1631021173906,6.68
1631021173921,6.96
1631021173937,7.17
1631021173953,7.2
1631021173968,7.0
1631021173984,6.61
1631021174000,6.13
1631021174015,5.66
1631021174031,5.26
1631021174046,4.98
1631021174062,4.8
1631021174078,4.65
1631021174093,4.43
1631021174109,4.02
1631021174125,3.32
1631021174140,2.3
1631021174156,1.05
1631021174171,-0.26
1631021174187,-1.46
1631021174203,-2.42
1631021174218,-3.17
1631021174234,-3.79
1631021174250,-4.4
1631021174265,-5.08
1631021174281,-5.82
1631021174296,-6.59
1631021174312,-7.3
1631021174328,-7.93
1631021174343,-8.45
1631021174359,-8.85
1631021174375,-9.07
1631021174390,-9.04
1631021174406,-8.65
1631021174421,-7.84
1631021174437,-6.61
1631021174453,-4.99
1631021174468,-3.12
1631021174484,-1.15
1631021174500,0.79
1631021174515,2.55
1631021174531,4.08
1631021174546,5.33
1631021174562,6.31
1631021174578,7.02
1631021174593,7.5
1631021174609,7.77
1631021174625,7.87
1631021174640,7.87
1631021174656,7.84
1631021174671,7.83
1631021174687,7.83
1631021174703,7.83
1631021174718,7.8
1631021174734,7.71
1631021174750,7.57
1631021174765,7.38
1631021174781,7.15
1631021174796,6.87
1631021174812,6.52
1631021174828,6.07
1631021174843,5.5
1631021174859,4.85
1631021174875,4.11
1631021174890,3.32
1631021174906,2.49
1631021174921,1.61
1631021174937,0.68
1631021174953,-0.26
1631021174968,-1.19
1631021174984,-2.06
1631021175000,-2.81
1631021175015,-3.46
1631021175031,-4.06
1631021175046,-4.73
1631021175062,-5.58
1631021175078,-6.67
1631021175093,-7.96
1631021175109,-9.31
1631021175125,-10.48
1631021175140,-11.23
1631021175156,-11.36
1631021175171,-10.81
1631021175187,-9.64
1631021175203,-8.01
1631021175218,-6.09
1631021175234,-4.06
1631021175250,-2.02
1631021175265,-0.03
1631021175281,1.89
1631021175296,3.67
1631021175312,5.23
1631021175328,6.46
1631021175343,7.27
1631021175359,7.67
1631021175375,7.73
1631021175390,7.6
1631021175406,7.47
1631021175421,7.45
1631021175437,7.56
1631021175453,7.77
1631021175468,7.97
1631021175484,8.08
1631021175500,8.02
1631021175515,7.76
1631021175531,7.31
1631021175546,6.7
1631021175562,5.96
1631021175578,5.14
1631021175593,4.32
1631021175609,3.58
1631021175625,2.97
1631021175640,2.52
1631021175656,2.17
1631021175671,1.84
1631021175687,1.42
1631021175703,0.85
1631021175718,0.11
1631021175734,-0.81
1631021175750,-1.88
1631021175765,-3.07
1631021175781,-4.25
1631021175796,-5.31
1631021175812,-6.13
1631021175828,-6.73
1631021175843,-7.22
1631021175859,-7.86
1631021175875,-8.87
1631021175890,-10.34
1631021175906,-12.15
1631021175921,-13.91
1631021175937,-15.15
1631021175953,-15.45
1631021175968,-14.58
1631021175984,-12.55
1631021176000,-9.62
1631021176015,-6.25
1631021176031,-2.96
1631021176046,-0.2
1631021176062,1.8
1631021176078,3.07
1631021176093,3.89
1631021176109,4.57
1631021176125,5.36
1631021176140,6.25
1631021176156,7.07
1631021176171,7.61
1631021176187,7.79
1631021176203,7.73
1631021176218,7.68
1631021176234,7.81
1631021176250,8.16
1631021176265,8.55
1631021176281,8.72
1631021176296,8.51
1631021176312,7.9
1631021176328,7.02
1631021176343,6.07
1631021176359,5.16
1631021176375,4.32
1631021176390,3.5
1631021176406,2.65
1631021176421,1.77
1631021176437,0.92
1631021176453,0.16
1631021176468,-0.49
1631021176484,-1.07
1631021176500,-1.64
1631021176515,-2.21
1631021176531,-2.74
1631021176546,-3.15
1631021176562,-3.42
1631021176578,-3.62
1631021176593,-3.9
1631021176609,-4.42
1631021176625,-5.31
1631021176640,-6.55
1631021176656,-8.05
1631021176671,-9.58
1631021176687,-10.91
1631021176703,-11.8
1631021176718,-12.08
1631021176734,-11.64
1631021176750,-10.5
1631021176765,-8.77
1631021176781,-6.69
1631021176796,-4.53
1631021176812,-2.52
1631021176828,-0.77
1631021176843,0.7
1631021176859,1.97
1631021176875,3.09
1631021176890,4.06
1631021176906,4.83
1631021176921,5.37
1631021176937,5.7
1631021176953,5.92
1631021176968,6.14
1631021176984,6.46
1631021177000,6.86
1631021177015,7.23
1631021177031,7.44
1631021177046,7.39
1631021177062,7.1
1631021177078,6.66
1631021177093,6.21
1631021177109,5.83
1631021177125,5.5
1631021177140,5.12
1631021177156,4.58
1631021177171,3.83
1631021177187,2.92
1631021177203,1.98
1631021177218,1.11
1631021177234,0.35
1631021177250,-0.35
1631021177265,-1.13
1631021177281,-2.08
1631021177296,-3.23
1631021177312,-4.51
1631021177328,-5.76
1631021177343,-6.82
1631021177359,-7.6
1631021177375,-8.08
1631021177390,-8.34
1631021177406,-8.53
1631021177421,-8.73
1631021177437,-8.93
1631021177453,-9.01
1631021177468,-8.78
1631021177484,-8.11
1631021177500,-6.94
1631021177515,-5.34
1631021177531,-3.46
1631021177546,-1.48
1631021177562,0.47
1631021177578,2.26
1631021177593,3.81
1631021177609,5.04
1631021177625,5.88
1631021177640,6.33
1631021177656,6.4
1631021177671,6.19
1631021177687,5.85
1631021177703,5.52
1631021177718,5.3
1631021177734,5.24
1631021177750,5.32
1631021177765,5.48
1631021177781,5.67
1631021177796,5.83
1631021177812,5.95
1631021177828,6.02
1631021177843,6.04
1631021177859,5.97
1631021177875,5.77
1631021177890,5.42
1631021177906,4.93
1631021177921,4.34
1631021177937,3.65
1631021177953,2.89
1631021177968,2.03
1631021177984,1.09
1631021178000,0.09
1631021178015,-0.9
1631021178031,-1.82
1631021178046,-2.6
1631021178062,-3.22
1631021178078,-3.72
1631021178093,-4.18
1631021178109,-4.72
1631021178125,-5.46
1631021178140,-6.48
1631021178156,-7.8
1631021178171,-9.35
1631021178187,-10.91
1631021178203,-12.16
1631021178218,-12.79
1631021178234,-12.52
1631021178250,-11.32
1631021178265,-9.33
1631021178281,-6.88
1631021178296,-4.33
1631021178312,-1.96
1631021178328,0.08
1631021178343,1.77
1631021178359,3.08
1631021178375,4.02
1631021178390,4.65
1631021178406,5.22
1631021178421,6.12
1631021178437,7.8
1631021178453,10.44
1631021178468,13.78
1631021178484,17.16
1631021178500,19.75
1631021178515,20.98
1631021178531,20.75
1631021178546,19.47
1631021178562,17.72
1631021178578,15.96
1631021178593,14.32
1631021178609,12.63
1631021178625,10.68
1631021178640,8.39
1631021178656,5.87
1631021178671,3.38
1631021178687,1.08
1631021178703,-1.02
1631021178718,-3.09
1631021178734,-5.33
1631021178750,-7.85
1631021178765,-10.53
1631021178781,-13.09
1631021178796,-15.2
1631021178812,-16.61
1631021178828,-17.27
1631021178843,-17.33
1631021178859,-17.04
1631021178875,-16.66
1631021178890,-16.37
1631021178906,-16.27
1631021178921,-16.37
1631021178937,-16.61
1631021178953,-16.84
1631021178968,-16.86
1631021178984,-16.46
1631021179000,-15.49
1631021179015,-13.92
1631021179031,-11.87
1631021179046,-9.47
1631021179062,-6.91
1631021179078,-4.3
1631021179093,-1.77
1631021179109,0.54
1631021179125,2.47
1631021179140,3.88
1631021179156,4.74
1631021179171,5.18
1631021179187,5.44
1631021179203,5.78
1631021179218,6.35
1631021179234,7.17
1631021179250,8.07
1631021179265,8.84
1631021179281,9.3
1631021179296,9.39
1631021179312,9.13
1631021179328,8.62
1631021179343,8.0
1631021179359,7.35
1631021179375,6.73
1631021179390,6.16
1631021179406,5.62
1631021179421,5.1
1631021179437,4.59
1631021179453,4.12
1631021179468,3.68
1631021179484,3.27
1631021179500,2.9
1631021179515,2.6
1631021179531,2.39
1631021179546,2.3
1631021179562,2.27
1631021179578,2.19
1631021179593,1.88
1631021179609,1.19
1631021179625,0.05
1631021179640,-1.48
1631021179656,-3.25
1631021179671,-5.04
1631021179687,-6.68
1631021179703,-8.08
1631021179718,-9.2
1631021179734,-10.04
1631021179750,-10.53
1631021179765,-10.6
1631021179781,-10.12
1631021179796,-9.03
1631021179812,-7.38
1631021179828,-5.34
1631021179843,-3.15
1631021179859,-1.09
1631021179875,0.69
1631021179890,2.1
1631021179906,3.22
1631021179921,4.16
1631021179937,4.99
1631021179953,5.76
1631021179968,6.42
1631021179984,6.91
1631021180000,7.2
1631021180015,7.33
1631021180031,7.36
1631021180046,7.37
1631021180062,7.35
1631021180078,7.3
1631021180093,7.18
1631021180109,6.99
1631021180125,6.75
1631021180140,6.49
1631021180156,6.18
1631021180171,5.79
1631021180187,5.29
1631021180203,4.67
1631021180218,3.98
1631021180234,3.28
1631021180250,2.61
1631021180265,1.98
1631021180281,1.38
1631021180296,0.83
1631021180312,0.33
1631021180328,-0.1
1631021180343,-0.49
1631021180359,-0.92
1631021180375,-1.5
1631021180390,-2.28
1631021180406,-3.25
1631021180421,-4.3
1631021180437,-5.32
1631021180453,-6.24
1631021180468,-7.1
1631021180484,-8.0
1631021180500,-9.05
1631021180515,-10.27
1631021180531,-11.53
1631021180546,-12.61
1631021180562,-13.2
1631021180578,-13.07
1631021180593,-12.14
1631021180609,-10.44
1631021180625,-8.17
1631021180640,-5.59
1631021180656,-2.97
1631021180671,-0.52
1631021180687,1.62
1631021180703,3.39
1631021180718,4.77
1631021180734,5.76
1631021180750,6.39
1631021180765,6.71
1631021180781,6.83
1631021180796,6.89
1631021180812,7.0
1631021180828,7.25
1631021180843,7.61
1631021180859,7.98
1631021180875,8.2
1631021180890,8.18
1631021180906,7.9
1631021180921,7.49
1631021180937,7.1
1631021180953,6.89
1631021180968,6.89
1631021180984,6.98
1631021181000,6.99
1631021181015,6.72
1631021181031,6.09
1631021181046,5.16
1631021181062,4.11
1631021181078,3.18
1631021181093,2.52
1631021181109,2.16
1631021181125,1.96
1631021181140,1.71
1631021181156,1.2
1631021181171,0.33
1631021181187,-0.87
1631021181203,-2.24
1631021181218,-3.58
1631021181234,-4.68
1631021181250,-5.46
1631021181265,-5.94
1631021181281,-6.24
1631021181296,-6.53
1631021181312,-6.97
1631021181328,-7.67
1631021181343,-8.66
1631021181359,-9.9
1631021181375,-11.27
1631021181390,-12.61
1631021181406,-13.74
1631021181421,-14.44
1631021181437,-14.52
1631021181453,-13.86
1631021181468,-12.45
1631021181484,-10.43
1631021181500,-8.04
1631021181515,-5.54
1631021181531,-3.15
1631021181546,-1.02
1631021181562,0.8
1631021181578,2.34
1631021181593,3.63
1631021181609,4.75
1631021181625,5.72
1631021181640,6.55
1631021181656,7.23
1631021181671,7.73
1631021181687,8.02
1631021181703,8.12
1631021181718,8.04
1631021181734,7.79
1631021181750,7.43
1631021181765,7.01
1631021181781,6.62
1631021181796,6.39
1631021181812,6.35
1631021181828,6.48
1631021181843,6.67
1631021181859,6.72
1631021181875,6.49
1631021181890,5.96
1631021181906,5.25
1631021181921,4.56
1631021181937,4.07
1631021181953,3.78
1631021181968,3.55
1631021181984,3.15
1631021182000,2.39
1631021182015,1.25
1631021182031,-0.12
1631021182046,-1.49
1631021182062,-2.64
1631021182078,-3.52
1631021182093,-4.21
1631021182109,-4.88
1631021182125,-5.66
1631021182140,-6.56
1631021182156,-7.5
1631021182171,-8.37
1631021182187,-9.12
1631021182203,-9.79
1631021182218,-10.44
1631021182234,-11.07
1631021182250,-11.56
1631021182265,-11.67
1631021182281,-11.14
1631021182296,-9.86
1631021182312,-7.9
1631021182328,-5.56
1631021182343,-3.22
1631021182359,-1.16
1631021182375,0.46
1631021182390,1.71
1631021182406,2.71
1631021182421,3.59
1631021182437,4.42
1631021182453,5.16
1631021182468,5.75
1631021182484,6.15
1631021182500,6.4
1631021182515,6.53
1631021182531,6.64
1631021182546,6.77
1631021182562,6.92
1631021182578,7.09
1631021182593,7.23
1631021182609,7.31
1631021182625,7.29
1631021182640,7.15
1631021182656,6.89
1631021182671,6.56
1631021182687,6.19
1631021182703,5.79
1631021182718,5.37
1631021182734,4.87
1631021182750,4.27
1631021182765,3.54
1631021182781,2.72
1631021182796,1.85
1631021182812,0.98
1631021182828,0.15
1631021182843,-0.63
1631021182859,-1.34
1631021182875,-1.98
1631021182890,-2.51
1631021182906,-2.93
1631021182921,-3.25
1631021182937,-3.57
1631021182953,-3.98
1631021182968,-4.58
1631021182984,-5.44
1631021183000,-6.53
1631021183015,-7.78
1631021183031,-9.09
1631021183046,-10.35
1631021183062,-11.51
1631021183078,-12.53
1631021183093,-13.36
1631021183109,-13.94
1631021183125,-14.15
1631021183140,-13.86
1631021183156,-12.96
1631021183171,-11.45
1631021183187,-9.41
1631021183203,-7.0
1631021183218,-4.45
1631021183234,-2.0
1631021183250,0.17
1631021183265,1.96
1631021183281,3.39
1631021183296,4.51
1631021183312,5.43
1631021183328,6.22
1631021183343,6.89
1631021183359,7.41
1631021183375,7.76
1631021183390,7.97
1631021183406,8.1
1631021183421,8.23
1631021183437,8.38
1631021183453,8.48
1631021183468,8.39
1631021183484,8.01
1631021183500,7.36
1631021183515,6.61
1631021183531,6.02
1631021183546,5.75
1631021183562,5.84
1631021183578,6.11
1631021183593,6.27
1631021183609,6.05
1631021183625,5.29
1631021183640,4.06
1631021183656,2.55
1631021183671,1.06
1631021183687,-0.15
1631021183703,-0.91
1631021183718,-1.24
1631021183734,-1.28
1631021183750,-1.24
1631021183765,-1.33
1631021183781,-1.7
1631021183796,-2.37
1631021183812,-3.29
1631021183828,-4.31
1631021183843,-5.31
1631021183859,-6.23
1631021183875,-7.06
1631021183890,-7.82
1631021183906,-8.55
1631021183921,-9.29
1631021183937,-10.07
1631021183953,-10.89
1631021183968,-11.72
1631021183984,-12.49
1631021184000,-13.03
1631021184015,-13.15
1631021184031,-12.61
1631021184046,-11.29
1631021184062,-9.22
1631021184078,-6.61
1631021184093,-3.86
1631021184109,-1.35
1631021184125,0.65
1631021184140,2.08
1631021184156,3.06
1631021184171,3.77
1631021184187,4.37
1631021184203,4.89
1631021184218,5.32
1631021184234,5.62
1631021184250,5.82
1631021184265,5.99
1631021184281,6.2
1631021184296,6.45
1631021184312,6.66
1631021184328,6.7
1631021184343,6.53
1631021184359,6.19
1631021184375,5.84
1631021184390,5.61
1631021184406,5.54
1631021184421,5.54
1631021184437,5.47
1631021184453,5.2
1631021184468,4.76
1631021184484,4.26
1631021184500,3.84
1631021184515,3.57
1631021184531,3.36
1631021184546,3.06
1631021184562,2.5
1631021184578,1.66
1631021184593,0.66
1631021184609,-0.36
1631021184625,-1.24
1631021184640,-1.94
1631021184656,-2.48
1631021184671,-2.94
1631021184687,-3.37
1631021184703,-3.79
1631021184718,-4.27
1631021184734,-4.89
1631021184750,-5.79
1631021184765,-7.02
1631021184781,-8.52
1631021184796,-10.06
1631021184812,-11.26
1631021184828,-11.75
1631021184843,-11.34
1631021184859,-10.08
1631021184875,-8.23
1631021184890,-6.18
1631021184906,-4.25
1631021184921,-2.61
1631021184937,-1.24
1631021184953,-0.01
1631021184968,1.21
1631021184984,2.48
1631021185000,3.79
1631021185015,5.09
1631021185031,6.29
1631021185046,7.32
1631021185062,8.09
1631021185078,8.54
1631021185093,8.63
1631021185109,8.39
1631021185125,7.92
1631021185140,7.41
1631021185156,7.04
1631021185171,6.88
1631021185187,6.94
1631021185203,7.11
1631021185218,7.26
1631021185234,7.29
1631021185250,7.13
1631021185265,6.78
1631021185281,6.22
1631021185296,5.44
1631021185312,4.47
1631021185328,3.38
1631021185343,2.32
1631021185359,1.45
1631021185375,0.85
1631021185390,0.52
1631021185406,0.29
1631021185421,-0.02
1631021185437,-0.58
1631021185453,-1.43
1631021185468,-2.52
1631021185484,-3.75
1631021185500,-4.96
1631021185515,-6.05
1631021185531,-6.92
1631021185546,-7.55
1631021185562,-7.98
1631021185578,-8.35
1631021185593,-8.86
1631021185609,-9.61
1631021185625,-10.6
1631021185640,-11.59
1631021185656,-12.28
1631021185671,-12.37
1631021185687,-11.76
1631021185703,-10.49
1631021185718,-8.77
1631021185734,-6.81
1631021185750,-4.71
1631021185765,-2.56
1631021185781,-0.39
1631021185796,1.65
1631021185812,3.42
1631021185828,4.75
1631021185843,5.61
1631021185859,6.1
1631021185875,6.42
1631021185890,6.76
1631021185906,7.22
1631021185921,7.74
1631021185937,8.19
1631021185953,8.46
1631021185968,8.5
1631021185984,8.39
1631021186000,8.25
1631021186015,8.16
1631021186031,8.11
1631021186046,7.99
1631021186062,7.65
1631021186078,7.03
1631021186093,6.15
1631021186109,5.13
1631021186125,4.12
1631021186140,3.23
1631021186156,2.48
1631021186171,1.82
1631021186187,1.2
1631021186203,0.58
1631021186218,-0.06
1631021186234,-0.75
1631021186250,-1.53
1631021186265,-2.44
1631021186281,-3.48
1631021186296,-4.58
1631021186312,-5.62
1631021186328,-6.51
1631021186343,-7.23
1631021186359,-7.85
1631021186375,-8.53
1631021186390,-9.38
1631021186406,-10.42
1631021186421,-11.53
1631021186437,-12.46
1631021186453,-12.96
1631021186468,-12.84
1631021186484,-12.05
1631021186500,-10.67
1631021186515,-8.88
1631021186531,-6.87
1631021186546,-4.81
1631021186562,-2.79
1631021186578,-0.84
1631021186593,1.05
1631021186609,2.86
1631021186625,4.5
1631021186640,5.85
1631021186656,6.79
1631021186671,7.26
1631021186687,7.32
1631021186703,7.12
1631021186718,6.9
1631021186734,6.84
1631021186750,7.04
1631021186765,7.44
1631021186781,7.86
1631021186796,8.12
1631021186812,8.07
1631021186828,7.71
1631021186843,7.15
1631021186859,6.52
1631021186875,5.95
1631021186890,5.52
1631021186906,5.17
1631021186921,4.83
1631021186937,4.42
1631021186953,3.84
1631021186968,3.04
1631021186984,1.99
1631021187000,0.72
1631021187015,-0.67
1631021187031,-2.02
1631021187046,-3.16
1631021187062,-3.98
1631021187078,-4.49
1631021187093,-4.82
1631021187109,-5.12
1631021187125,-5.55
1631021187140,-6.21
1631021187156,-7.09
1631021187171,-8.14
1631021187187,-9.23
1631021187203,-10.21
1631021187218,-10.89
1631021187234,-11.09
1631021187250,-10.7
1631021187265,-9.66
1631021187281,-8.06
1631021187296,-6.06
1631021187312,-3.87
1631021187328,-1.68
1631021187343,0.37
1631021187359,2.15
1631021187375,3.59
1631021187390,4.7
1631021187406,5.55
1631021187421,6.23
1631021187437,6.87
1631021187453,7.53
1631021187468,8.18
1631021187484,8.74
1631021187500,9.1
1631021187515,9.2
1631021187531,9.04
1631021187546,8.66
1631021187562,8.12
1631021187578,7.46
1631021187593,6.71
1631021187609,5.95
1631021187625,5.27
1631021187640,4.75
1631021187656,4.42
1631021187671,4.2
1631021187687,3.97
1631021187703,3.62
1631021187718,3.1
1631021187734,2.44
1631021187750,1.66
1631021187765,0.83
1631021187781,-0.05
1631021187796,-0.97
1631021187812,-1.9
1631021187828,-2.78
1631021187843,-3.53
1631021187859,-4.15
1631021187875,-4.73
1631021187890,-5.4
1631021187906,-6.31
1631021187921,-7.53
1631021187937,-9.02
1631021187953,-10.61
1631021187968,-12.12
1631021187984,-13.34
1631021188000,-14.05
1631021188015,-14.05
1631021188031,-13.22
1631021188046,-11.53
1631021188062,-9.13
1631021188078,-6.39
1631021188093,-3.69
1631021188109,-1.4
1631021188125,0.37
1631021188140,1.71
1631021188156,2.83
1631021188171,3.96
1631021188187,5.2
1631021188203,6.48
1631021188218,7.65
1631021188234,8.55
1631021188250,9.06
1631021188265,9.15
1631021188281,8.86
1631021188296,8.3
1631021188312,7.61
1631021188328,6.93
1631021188343,6.43
1631021188359,6.21
1631021188375,6.28
1631021188390,6.56
1631021188406,6.87
1631021188421,7.03
1631021188437,6.89
1631021188453,6.36
1631021188468,5.46
1631021188484,4.31
1631021188500,3.06
1631021188515,1.86
1631021188531,0.81
1631021188546,-0.06
1631021188562,-0.76
1631021188578,-1.33
1631021188593,-1.81
1631021188609,-2.26
1631021188625,-2.71
1631021188640,-3.21
1631021188656,-3.82
1631021188671,-4.57
1631021188687,-5.47
1631021188703,-6.5
1631021188718,-7.6
1631021188734,-8.69
1631021188750,-9.64
1631021188765,-10.32
1631021188781,-10.57
1631021188796,-10.3
1631021188812,-9.48
1631021188828,-8.19
1631021188843,-6.57
1631021188859,-4.79
1631021188875,-3.01
1631021188890,-1.31
1631021188906,0.27
1631021188921,1.77
1631021188937,3.24
1631021188953,4.64
1631021188968,5.89
1631021188984,6.85
1631021189000,7.39
1631021189015,7.52
1631021189031,7.35
1631021189046,7.12
1631021189062,7.04
1631021189078,7.18
1631021189093,7.45
1631021189109,7.64
1631021189125,7.58
1631021189140,7.22
1631021189156,6.66
1631021189171,6.05
1631021189187,5.54
1631021189203,5.13
1631021189218,4.76
1631021189234,4.3
1631021189250,3.63
1631021189265,2.74
1631021189281,1.68
1631021189296,0.54
1631021189312,-0.55
1631021189328,-1.52
1631021189343,-2.33
1631021189359,-3.02
1631021189375,-3.66
1631021189390,-4.34
1631021189406,-5.1
1631021189421,-5.95
1631021189437,-6.86
1631021189453,-7.79
1631021189468,-8.72
1631021189484,-9.62
1631021189500,-10.42
1631021189515,-10.99
1631021189531,-11.17
1631021189546,-10.87
1631021189562,-10.06
1631021189578,-8.83
1631021189593,-7.3
1631021189609,-5.59
1631021189625,-3.75
1631021189640,-1.84
1631021189656,0.1
1631021189671,2.01
1631021189687,3.78
1631021189703,5.34
1631021189718,6.66
1631021189734,7.72
1631021189750,8.52
1631021189765,9.04
1631021189781,9.26
1631021189796,9.23
1631021189812,9.03
1631021189828,8.75
1631021189843,8.5
1631021189859,8.28
1631021189875,8.02
1631021189890,7.65
1631021189906,7.15
1631021189921,6.55
1631021189937,5.93
1631021189953,5.38
1631021189968,4.89
1631021189984,4.44
1631021190000,3.94
1631021190015,3.33
1631021190031,2.57
1631021190046,1.68
1631021190062,0.69
1631021190078,-0.34
1631021190093,-1.36
1631021190109,-2.33
1631021190125,-3.26
1631021190140,-4.18
1631021190156,-5.09
1631021190171,-5.94
1631021190187,-6.68
1631021190203,-7.25
1631021190218,-7.74
1631021190234,-8.27
1631021190250,-9.03
1631021190265,-10.11
1631021190281,-11.38
1631021190296,-12.56
1631021190312,-13.27
1631021190328,-13.22
1631021190343,-12.35
1631021190359,-10.77
1631021190375,-8.75
1631021190390,-6.55
1631021190406,-4.35
1631021190421,-2.2
1631021190437,-0.1
1631021190453,1.94
1631021190468,3.91
1631021190484,5.74
1631021190500,7.36
1631021190515,8.69
1631021190531,9.66
1631021190546,10.22
1631021190562,10.35
1631021190578,10.08
1631021190593,9.48
1631021190609,8.7
1631021190625,7.91
1631021190640,7.29
1631021190656,6.92
1631021190671,6.8
1631021190687,6.87
1631021190703,7.01
1631021190718,7.1
1631021190734,7.06
1631021190750,6.82
1631021190765,6.31
1631021190781,5.51
1631021190796,4.44
1631021190812,3.19
1631021190828,1.93
1631021190843,0.83
1631021190859,-0.01
1631021190875,-0.6
1631021190890,-1.06
1631021190906,-1.53
1631021190921,-2.12
1631021190937,-2.83
1631021190953,-3.61
1631021190968,-4.38
1631021190984,-5.12
1631021191000,-5.87
1631021191015,-6.72
1631021191031,-7.71
1631021191046,-8.84
1631021191062,-10.06
1631021191078,-11.26
1631021191093,-12.29
1631021191109,-13.01
1631021191125,-13.31
1631021191140,-13.07
1631021191156,-12.27
1631021191171,-10.94
1631021191187,-9.15
1631021191203,-7.02
1631021191218,-4.68
1631021191234,-2.29
1631021191250,-0.02
1631021191265,1.98
1631021191281,3.63
1631021191296,4.92
1631021191312,5.92
1631021191328,6.74
1631021191343,7.47
1631021191359,8.13
1631021191375,8.68
1631021191390,9.04
1631021191406,9.17
1631021191421,9.02
1631021191437,8.64
1631021191453,8.1
1631021191468,7.51
1631021191484,6.93
1631021191500,6.38
1631021191515,5.87
1631021191531,5.36
1631021191546,4.87
1631021191562,4.44
1631021191578,4.15
1631021191593,4.07
1631021191609,4.13
1631021191625,4.17
1631021191640,3.96
1631021191656,3.35
1631021191671,2.33
1631021191687,1.07
1631021191703,-0.23
1631021191718,-1.38
1631021191734,-2.3
1631021191750,-3.02
1631021191765,-3.64
1631021191781,-4.2
1631021191796,-4.75
1631021191812,-5.33
1631021191828,-6.01
1631021191843,-6.87
1631021191859,-7.96
1631021191875,-9.25
1631021191890,-10.57
1631021191906,-11.65
1631021191921,-12.17
1631021191937,-11.89
1631021191953,-10.7
1631021191968,-8.68
1631021191984,-6.09
1631021192000,-3.3
1631021192015,-0.65
1631021192031,1.59
1631021192046,3.32
1631021192062,4.59
1631021192078,5.54
1631021192093,6.34
1631021192109,7.11
1631021192125,7.85
1631021192140,8.53
1631021192156,9.04
1631021192171,9.33
1631021192187,9.36
1631021192203,9.2
1631021192218,8.92
1631021192234,8.61
1631021192250,8.29
1631021192265,7.93
1631021192281,7.5
1631021192296,6.97
1631021192312,6.4
1631021192328,5.88
1631021192343,5.48
1631021192359,5.19
1631021192375,4.93
1631021192390,4.54
1631021192406,3.91
1631021192421,3.03
1631021192437,1.99
1631021192453,0.93
1631021192468,-0.03
1631021192484,-0.88
1631021192500,-1.7
1631021192515,-2.56
1631021192531,-3.51
1631021192546,-4.5
1631021192562,-5.42
1631021192578,-6.18
1631021192593,-6.75
1631021192609,-7.24
1631021192625,-7.81
1631021192640,-8.65
1631021192656,-9.82
1631021192671,-11.23
1631021192687,-12.61
1631021192703,-13.58
1631021192718,-13.85
1631021192734,-13.29
1631021192750,-11.99
1631021192765,-10.18
1631021192781,-8.16
1631021192796,-6.12
1631021192812,-4.13
1631021192828,-2.15
1631021192843,-0.15
1631021192859,1.81
1631021192875,3.62
1631021192890,5.12
1631021192906,6.21
1631021192921,6.89
1631021192937,7.23
1631021192953,7.31
1631021192968,7.24
1631021192984,7.08
1631021193000,6.89
1631021193015,6.78
1631021193031,6.85
1631021193046,7.11
1631021193062,7.52
1631021193078,7.89
1631021193093,8.03
1631021193109,7.84
1631021193125,7.34
1631021193140,6.66
1631021193156,5.98
1631021193171,5.4
1631021193187,4.93
1631021193203,4.51
1631021193218,4.05
1631021193234,3.49
1631021193250,2.8
1631021193265,1.98
1631021193281,0.98
1631021193296,-0.21
1631021193312,-1.55
1631021193328,-2.9
1631021193343,-4.1
1631021193359,-5.0
1631021193375,-5.55
1631021193390,-5.87
1631021193406,-6.16
1631021193421,-6.66
1631021193437,-7.46
1631021193453,-8.56
1631021193468,-9.85
1631021193484,-11.16
1631021193500,-12.35
1631021193515,-13.29
1631021193531,-13.86
1631021193546,-13.92
1631021193562,-13.31
1631021193578,-11.99
1631021193593,-10.03
1631021193609,-7.66
1631021193625,-5.18
1631021193640,-2.86
1631021193656,-0.84
1631021193671,0.87
1631021193687,2.37
1631021193703,3.71
1631021193718,4.94
1631021193734,6.03
1631021193750,6.93
1631021193765,7.61
1631021193781,8.09
1631021193796,8.42
1631021193812,8.66
1631021193828,8.85
1631021193843,9.01
1631021193859,9.16
1631021193875,9.3
1631021193890,9.39
1631021193906,9.37
1631021193921,9.15
1631021193937,8.69
1631021193953,8.0
1631021193968,7.18
1631021193984,6.32
1631021194000,5.52
1631021194015,4.81
1631021194031,4.14
1631021194046,3.5
1631021194062,2.88
1631021194078,2.3
1631021194093,1.79
1631021194109,1.28
1631021194125,0.62
1631021194140,-0.34
1631021194156,-1.65
1631021194171,-3.2
1631021194187,-4.71
1631021194203,-5.86
1631021194218,-6.46
1631021194234,-6.59
1631021194250,-6.55
1631021194265,-6.73
1631021194281,-7.4
1631021194296,-8.63
1631021194312,-10.22
1631021194328,-11.85
1631021194343,-13.18
1631021194359,-13.97
1631021194375,-14.11
1631021194390,-13.59
1631021194406,-12.44
1631021194421,-10.73
1631021194437,-8.55
1631021194453,-6.09
1631021194468,-3.55
1631021194484,-1.15
1631021194500,0.96
1631021194515,2.73
1631021194531,4.19
1631021194546,5.41
1631021194562,6.45
1631021194578,7.34
1631021194593,8.05
1631021194609,8.56
1631021194625,8.87
1631021194640,9.01
1631021194656,9.03
1631021194671,8.98
1631021194687,8.86
1631021194703,8.67
1631021194718,8.37
1631021194734,7.98
1631021194750,7.5
1631021194765,7.02
1631021194781,6.57
1631021194796,6.21
1631021194812,5.91
1631021194828,5.61
1631021194843,5.21
1631021194859,4.65
1631021194875,3.89
1631021194890,2.97
1631021194906,1.96
1631021194921,0.98
1631021194937,0.1
1631021194953,-0.61
1631021194968,-1.16
1631021194984,-1.6
1631021195000,-2.05
1631021195015,-2.6
1631021195031,-3.38
1631021195046,-4.4
1631021195062,-5.62
1631021195078,-6.93
1631021195093,-8.18
1631021195109,-9.28
1631021195125,-10.21
1631021195140,-11.02
1631021195156,-11.8
1631021195171,-12.6
1631021195187,-13.4
1631021195203,-14.03
1631021195218,-14.26
1631021195234,-13.86
1631021195250,-12.74
1631021195265,-11.0
1631021195281,-8.89
1631021195296,-6.68
1631021195312,-4.54
1631021195328,-2.5
1631021195343,-0.48
1631021195359,1.6
1631021195375,3.68
1631021195390,5.59
1631021195406,7.12
1631021195421,8.12
1631021195437,8.58
1631021195453,8.64
1631021195468,8.5
1631021195484,8.32
1631021195500,8.19
1631021195515,8.11
1631021195531,8.03
1631021195546,7.88
1631021195562,7.63
1631021195578,7.29
1631021195593,6.9
1631021195609,6.55
1631021195625,6.29
1631021195640,6.09
1631021195656,5.83
1631021195671,5.34
1631021195687,4.52
1631021195703,3.44
1631021195718,2.31
1631021195734,1.38
1631021195750,0.81
1631021195765,0.58
1631021195781,0.46
1631021195796,0.21
1631021195812,-0.36
1631021195828,-1.25
1631021195843,-2.33
1631021195859,-3.4
1631021195875,-4.3
1631021195890,-4.97
1631021195906,-5.47
1631021195921,-5.89
1631021195937,-6.35
1631021195953,-6.93
1631021195968,-7.68
1631021195984,-8.62
1631021196000,-9.7
1631021196015,-10.85
1631021196031,-11.9
1631021196046,-12.61
1631021196062,-12.71
1631021196078,-11.97
1631021196093,-10.33
1631021196109,-7.9
1631021196125,-5.03
1631021196140,-2.15
1631021196156,0.35
1631021196171,2.27
1631021196187,3.61
1631021196203,4.53
1631021196218,5.26
1631021196234,5.92
1631021196250,6.57
1631021196265,7.14
1631021196281,7.58
1631021196296,7.82
1631021196312,7.88
1631021196328,7.79
1631021196343,7.6
1631021196359,7.37
1631021196375,7.11
1631021196390,6.87
1631021196406,6.65
1631021196421,6.48
1631021196437,6.34
1631021196453,6.23
1631021196468,6.1
1631021196484,5.88
1631021196500,5.54
1631021196515,5.04
1631021196531,4.42
1631021196546,3.7
1631021196562,2.99
1631021196578,2.36
1631021196593,1.82
1631021196609,1.34
1631021196625,0.81
1631021196640,0.13
1631021196656,-0.75
1631021196671,-1.78
1631021196687,-2.84
1631021196703,-3.83
1631021196718,-4.65
1631021196734,-5.3
1631021196750,-5.89
1631021196765,-6.59
1631021196781,-7.52
1631021196796,-8.77
1631021196812,-10.24
1631021196828,-11.72
1631021196843,-12.91
1631021196859,-13.54
1631021196875,-13.46
1631021196890,-12.69
1631021196906,-11.38
1631021196921,-9.73
1631021196937,-7.91
1631021196953,-6.01
1631021196968,-4.04
1631021196984,-2.05
1631021197000,-0.12
1631021197015,1.6
1631021197031,2.96
1631021197046,3.95
1631021197062,4.65
1631021197078,5.26
1631021197093,5.95
1631021197109,6.79
1631021197125,7.68
1631021197140,8.46
1631021197156,8.92
1631021197171,9.02
1631021197187,8.79
1631021197203,8.42
1631021197218,8.05
1631021197234,7.75
1631021197250,7.49
1631021197265,7.15
1631021197281,6.67
1631021197296,6.04
1631021197312,5.36
1631021197328,4.77
1631021197343,4.32
1631021197359,3.94
1631021197375,3.49
1631021197390,2.84
1631021197406,2.0
1631021197421,1.09
1631021197437,0.27
1631021197453,-0.35
1631021197468,-0.81
1631021197484,-1.29
1631021197500,-2.0
1631021197515,-3.06
1631021197531,-4.39
1631021197546,-5.81
1631021197562,-7.09
1631021197578,-8.1
1631021197593,-8.85
1631021197609,-9.45
1631021197625,-10.03
1631021197640,-10.7
1631021197656,-11.49
1631021197671,-12.36
1631021197687,-13.21
1631021197703,-13.87
1631021197718,-14.16
1631021197734,-13.87
1631021197750,-12.86
1631021197765,-11.08
1631021197781,-8.66
1631021197796,-5.87
1631021197812,-3.05
1631021197828,-0.54
1631021197843,1.49
1631021197859,2.99
1631021197875,4.05
1631021197890,4.78
1631021197906,5.32
1631021197921,5.77
1631021197937,6.2
1631021197953,6.68
1631021197968,7.22
1631021197984,7.82
1631021198000,8.4
1631021198015,8.84
1631021198031,9.02
1631021198046,8.89
1631021198062,8.51
1631021198078,8.0
1631021198093,7.48
1631021198109,7.03
1631021198125,6.65
1631021198140,6.32
1631021198156,6.03
1631021198171,5.75
1631021198187,5.43
1631021198203,5.05
1631021198218,4.53
1631021198234,3.82
1631021198250,2.92
1631021198265,1.84
1631021198281,0.65
1631021198296,-0.51
1631021198312,-1.49
1631021198328,-2.15
1631021198343,-2.43
1631021198359,-2.38
1631021198375,-2.23
1631021198390,-2.3
1631021198406,-2.85
1631021198421,-3.99
1631021198437,-5.6
1631021198453,-7.41
1631021198468,-9.09
1631021198484,-10.37
1631021198500,-11.11
1631021198515,-11.31
1631021198531,-11.0
1631021198546,-10.25
1631021198562,-9.13
1631021198578,-7.75
1631021198593,-6.21
1631021198609,-4.63
1631021198625,-3.08
1631021198640,-1.56
1631021198656,-0.04
1631021198671,1.56
1631021198687,3.28
1631021198703,5.07
1631021198718,6.8
1631021198734,8.3
1631021198750,9.37
1631021198765,9.9
1631021198781,9.9
1631021198796,9.5
1631021198812,8.92
1631021198828,8.37
1631021198843,7.99
1631021198859,7.79
1631021198875,7.71
1631021198890,7.63
1631021198906,7.48
1631021198921,7.24
1631021198937,6.91
1631021198953,6.51
1631021198968,6.05
1631021198984,5.51
1631021199000,4.87
1631021199015,4.16
1631021199031,3.38
1631021199046,2.58
1631021199062,1.78
1631021199078,0.97
1631021199093,0.15
1631021199109,-0.74
1631021199125,-1.72
1631021199140,-2.82
1631021199156,-3.98
1631021199171,-5.12
1631021199187,-6.14
1631021199203,-6.96
1631021199218,-7.57
1631021199234,-8.03
1631021199250,-8.48
1631021199265,-9.04
1631021199281,-9.85
1631021199296,-10.94
1631021199312,-12.22
1631021199328,-13.45
1631021199343,-14.34
1631021199359,-14.6
1631021199375,-14.03
1631021199390,-12.69
1631021199406,-10.78
1631021199421,-8.62
1631021199437,-6.48
1631021199453,-4.46
1631021199468,-2.53
1631021199484,-0.59
1631021199500,1.43
1631021199515,3.44
1631021199531,5.28
1631021199546,6.75
1631021199562,7.77
1631021199578,8.37
1631021199593,8.62
1631021199609,8.64
1631021199625,8.52
1631021199640,8.31
1631021199656,8.07
1631021199671,7.84
1631021199687,7.67
1631021199703,7.58
1631021199718,7.57
1631021199734,7.57
1631021199750,7.5
1631021199765,7.28
1631021199781,6.83
1631021199796,6.15
1631021199812,5.31
1631021199828,4.47
1631021199843,3.76
1631021199859,3.28
1631021199875,2.97
1631021199890,2.69
1631021199906,2.23
1631021199921,1.45
1631021199937,0.35
1631021199953,-0.94
1631021199968,-2.21
1631021199984,-3.27
1631021200000,-4.05
1631021200015,-4.61
1631021200031,-5.06
1631021200046,-5.58
1631021200062,-6.32
1631021200078,-7.37
1631021200093,-8.73
1631021200109,-10.27
1631021200125,-11.78
1631021200140,-12.98
1631021200156,-13.61
1631021200171,-13.54
1631021200187,-12.73
1631021200203,-11.26
1631021200218,-9.28
1631021200234,-6.94
1631021200250,-4.43
1631021200265,-1.92
1631021200281,0.43
1631021200296,2.45
1631021200312,4.05
1631021200328,5.23
1631021200343,6.08
1631021200359,6.73
1631021200375,7.29
1631021200390,7.81
1631021200406,8.26
1631021200421,8.63
1631021200437,8.88
1631021200453,9.01
1631021200468,8.99
1631021200484,8.83
1631021200500,8.53
1631021200515,8.13
1631021200531,7.69
1631021200546,7.3
1631021200562,6.99
1631021200578,6.7
1631021200593,6.32
1631021200609,5.73
1631021200625,4.89
1631021200640,3.92
1631021200656,2.98
1631021200671,2.24
1631021200687,1.75
1631021200703,1.36
1631021200718,0.87
1631021200734,0.13
1631021200750,-0.87
1631021200765,-1.95
1631021200781,-2.89
1631021200796,-3.54
1631021200812,-3.98
1631021200828,-4.45
1631021200843,-5.26
1631021200859,-6.62
1631021200875,-8.48
1631021200890,-10.59
1631021200906,-12.58
1631021200921,-14.09
1631021200937,-14.9
1631021200953,-14.88
1631021200968,-14.04
1631021200984,-12.44
1631021201000,-10.21
1631021201015,-7.54
1631021201031,-4.68
1631021201046,-1.9
1631021201062,0.6
1631021201078,2.65
1631021201093,4.26
1631021201109,5.46
1631021201125,6.39
1631021201140,7.15
1631021201156,7.81
1631021201171,8.4
1631021201187,8.89
1631021201203,9.24
1631021201218,9.43
1631021201234,9.45
1631021201250,9.29
1631021201265,8.96
1631021201281,8.47
1631021201296,7.87
1631021201312,7.24
1631021201328,6.7
1631021201343,6.35
1631021201359,6.18
1631021201375,6.1
1631021201390,5.94
1631021201406,5.52
1631021201421,4.78
1631021201437,3.77
1631021201453,2.65
1631021201468,1.58
1631021201484,0.67
1631021201500,-0.09
1631021201515,-0.76
1631021201531,-1.43
1631021201546,-2.2
1631021201562,-3.12
1631021201578,-4.18
1631021201593,-5.31
1631021201609,-6.41
1631021201625,-7.39
1631021201640,-8.24
1631021201656,-9.06
1631021201671,-10.02
1631021201687,-11.23
1631021201703,-12.66
1631021201718,-14.08
1631021201734,-15.11
1631021201750,-15.43
1631021201765,-14.88
1631021201781,-13.52
1631021201796,-11.61
1631021201812,-9.45
1631021201828,-7.22
1631021201843,-4.95
1631021201859,-2.61
1631021201875,-0.19
1631021201890,2.19
1631021201906,4.34
1631021201921,6.04
1631021201937,7.2
1631021201953,7.88
1631021201968,8.23
1631021201984,8.45
1631021202000,8.6
1631021202015,8.67
1631021202031,8.58
1631021202046,8.29
1631021202062,7.85
1631021202078,7.37
1631021202093,6.99
1631021202109,6.74
1631021202125,6.58
1631021202140,6.39
1631021202156,6.09
1631021202171,5.64
1631021202187,5.09
1631021202203,4.51
1631021202218,3.94
1631021202234,3.4
1631021202250,2.86
1631021202265,2.25
1631021202281,1.53
1631021202296,0.72
1631021202312,-0.16
1631021202328,-1.01
1631021202343,-1.73
1631021202359,-2.28
1631021202375,-2.68
1631021202390,-3.04
1631021202406,-3.55
1631021202421,-4.36
1631021202437,-5.55
1631021202453,-7.07
1631021202468,-8.72
1631021202484,-10.29
1631021202500,-11.58
1631021202515,-12.48
1631021202531,-12.92
1631021202546,-12.87
1631021202562,-12.3
1631021202578,-11.18
1631021202593,-9.53
1631021202609,-7.45
1631021202625,-5.08
1631021202640,-2.63
1631021202656,-0.32
1631021202671,1.74
1631021202687,3.49
1631021202703,4.98
1631021202718,6.28
1631021202734,7.44
1631021202750,8.45
1631021202765,9.26
1631021202781,9.76
1631021202796,9.93
1631021202812,9.77
1631021202828,9.4
1631021202843,8.98
1631021202859,8.62
1631021202875,8.4
1631021202890,8.29
1631021202906,8.2
1631021202921,8.06
1631021202937,7.81
1631021202953,7.46
1631021202968,7.02
1631021202984,6.48
1631021203000,5.84
1631021203015,5.1
1631021203031,4.28
1631021203046,3.46
1631021203062,2.7
1631021203078,2.05
1631021203093,1.49
1631021203109,0.95
1631021203125,0.33
1631021203140,-0.44
1631021203156,-1.38
1631021203171,-2.45
1631021203187,-3.59
1631021203203,-4.74
1631021203218,-5.83
1631021203234,-6.83
1631021203250,-7.72
1631021203265,-8.55
1631021203281,-9.38
1631021203296,-10.28
1631021203312,-11.23
1631021203328,-12.14
1631021203343,-12.81
1631021203359,-13.04
1631021203375,-12.68
1631021203390,-11.73
1631021203406,-10.27
1631021203421,-8.45
1631021203437,-6.41
1631021203453,-4.21
1631021203468,-1.89
1631021203484,0.53
1631021203500,2.97
1631021203515,5.27
1631021203531,7.28
1631021203546,8.81
1631021203562,9.8
1631021203578,10.26
1631021203593,10.31
1631021203609,10.11
1631021203625,9.84
1631021203640,9.61
1631021203656,9.48
1631021203671,9.42
1631021203687,9.35
1631021203703,9.21
1631021203718,8.97
1631021203734,8.64
1631021203750,8.28
1631021203765,7.91
1631021203781,7.54
1631021203796,7.17
1631021203812,6.78
1631021203828,6.32
1631021203843,5.75
1631021203859,5.04
1631021203875,4.2
1631021203890,3.26
1631021203906,2.29
1631021203921,1.37
1631021203937,0.55
1631021203953,-0.14
1631021203968,-0.76
1631021203984,-1.42
1631021204000,-2.21
1631021204015,-3.18
1631021204031,-4.3
1631021204046,-5.47
1631021204062,-6.53
1631021204078,-7.39
1631021204093,-8.01
1631021204109,-8.44
1631021204125,-8.86
1631021204140,-9.45
1631021204156,-10.34
1631021204171,-11.53
1631021204187,-12.83
1631021204203,-13.91
1631021204218,-14.41
1631021204234,-14.09
1631021204250,-12.91
1631021204265,-11.07
1631021204281,-8.91
1631021204296,-6.75
1631021204312,-4.78
1631021204328,-2.98
1631021204343,-1.22
1631021204359,0.67
1631021204375,2.72
1631021204390,4.81
1631021204406,6.69
1631021204421,8.12
1631021204437,8.98
1631021204453,9.29
1631021204468,9.23
1631021204484,8.99
1631021204500,8.74
1631021204515,8.54
1631021204531,8.37
1631021204546,8.21
1631021204562,8.03
1631021204578,7.84
1631021204593,7.64
1631021204609,7.42
1631021204625,7.16
1631021204640,6.86
1631021204656,6.51
1631021204671,6.12
1631021204687,5.68
1631021204703,5.17
1631021204718,4.58
1631021204734,3.9
1631021204750,3.18
1631021204765,2.49
1631021204781,1.92
1631021204796,1.44
1631021204812,1.01
1631021204828,0.5
1631021204843,-0.18
1631021204859,-1.06
1631021204875,-2.08
1631021204890,-3.14
1631021204906,-4.13
1631021204921,-4.98
1631021204937,-5.69
1631021204953,-6.29
1631021204968,-6.84
1631021204984,-7.38
1631021205000,-7.97
1631021205015,-8.63
1631021205031,-9.43
1631021205046,-10.33
1631021205062,-11.21
1631021205078,-11.86
1631021205093,-12.02
1631021205109,-11.53
1631021205125,-10.34
1631021205140,-8.59
1631021205156,-6.51
1631021205171,-4.32
1631021205187,-2.16
1631021205203,-0.09
1631021205218,1.9
1631021205234,3.76
1631021205250,5.43
1631021205265,6.81
1631021205281,7.84
1631021205296,8.53
1631021205312,8.94
1631021205328,9.17
1631021205343,9.29
1631021205359,9.3
1631021205375,9.21
1631021205390,9.01
1631021205406,8.71
1631021205421,8.34
1631021205437,7.94
1631021205453,7.56
1631021205468,7.22
1631021205484,6.9
1631021205500,6.57
1631021205515,6.2
1631021205531,5.77
1631021205546,5.28
1631021205562,4.75
1631021205578,4.23
1631021205593,3.73
1631021205609,3.25
1631021205625,2.78
1631021205640,2.25
1631021205656,1.64
1631021205671,0.92
1631021205687,0.1
1631021205703,-0.77
1631021205718,-1.6
1631021205734,-2.32
1631021205750,-2.94
1631021205765,-3.5
1631021205781,-4.11
1631021205796,-4.87
1631021205812,-5.8
1631021205828,-6.82
1631021205843,-7.77
1631021205859,-8.52
1631021205875,-9.05
1631021205890,-9.51
1631021205906,-10.12
1631021205921,-11.08
1631021205937,-12.41
1631021205953,-13.92
1631021205968,-15.25
1631021205984,-16.01
1631021206000,-15.92
1631021206015,-14.9
1631021206031,-13.09
1631021206046,-10.74
1631021206062,-8.11
1631021206078,-5.46
1631021206093,-2.92
1631021206109,-0.53
1631021206125,1.68
1631021206140,3.74
1631021206156,5.6
1631021206171,7.18
1631021206187,8.36
1631021206203,9.09
1631021206218,9.43
1631021206234,9.54
1631021206250,9.61
1631021206265,9.78
1631021206281,10.05
1631021206296,10.31
1631021206312,10.42
1631021206328,10.28
1631021206343,9.92
1631021206359,9.45
1631021206375,8.95
1631021206390,8.48
1631021206406,8.01
1631021206421,7.51
1631021206437,7.0
1631021206453,6.53
1631021206468,6.13
1631021206484,5.83
1631021206500,5.52
1631021206515,5.11
1631021206531,4.5
1631021206546,3.65
1631021206562,2.59
1631021206578,1.42
1631021206593,0.25
1631021206609,-0.83
1631021206625,-1.73
1631021206640,-2.44
1631021206656,-2.99
1631021206671,-3.45
1631021206687,-3.92
1631021206703,-4.47
1631021206718,-5.14
1631021206734,-5.9
1631021206750,-6.7
1631021206765,-7.49
1631021206781,-8.28
1631021206796,-9.1
1631021206812,-9.98
1631021206828,-10.97
1631021206843,-12.04
1631021206859,-13.13
1631021206875,-14.16
1631021206890,-14.99
1631021206906,-15.47
1631021206921,-15.42
1631021206937,-14.69
1631021206953,-13.24
1631021206968,-11.1
1631021206984,-8.45
1631021207000,-5.53
1631021207015,-2.61
1631021207031,0.1
1631021207046,2.44
1631021207062,4.34
1631021207078,5.76
1631021207093,6.73
1631021207109,7.33
1631021207125,7.66
1631021207140,7.82
1631021207156,7.93
1631021207171,8.05
1631021207187,8.21
1631021207203,8.37
1631021207218,8.48
1631021207234,8.52
1631021207250,8.46
1631021207265,8.34
1631021207281,8.2
1631021207296,8.09
1631021207312,8.05
1631021207328,8.03
1631021207343,7.97
1631021207359,7.77
1631021207375,7.36
1631021207390,6.74
1631021207406,5.98
1631021207421,5.18
1631021207437,4.43
1631021207453,3.79
1631021207468,3.23
1631021207484,2.7
1631021207500,2.13
1631021207515,1.47
1631021207531,0.66
1631021207546,-0.34
1631021207562,-1.53
1631021207578,-2.86
1631021207593,-4.23
1631021207609,-5.49
1631021207625,-6.51
1631021207640,-7.24
1631021207656,-7.73
1631021207671,-8.13
1631021207687,-8.6
1631021207703,-9.25
1631021207718,-10.12
1631021207734,-11.15
1631021207750,-12.23
1631021207765,-13.21
1631021207781,-13.93
1631021207796,-14.26
1631021207812,-14.06
1631021207828,-13.25
1631021207843,-11.83
1631021207859,-9.87
1631021207875,-7.54
1631021207890,-5.05
1631021207906,-2.57
1631021207921,-0.27
1631021207937,1.77
1631021207953,3.51
1631021207968,4.94
1631021207984,6.08
1631021208000,6.94
1631021208015,7.55
1631021208031,7.92
1631021208046,8.07
1631021208062,8.02
1631021208078,7.81
1631021208093,7.52
1631021208109,7.27
1631021208125,7.17
1631021208140,7.3
1631021208156,7.61
1631021208171,7.96
1631021208187,8.15
1631021208203,8.03
1631021208218,7.52
1631021208234,6.66
1631021208250,5.59
1631021208265,4.48
1631021208281,3.43
1631021208296,2.5
1631021208312,1.71
1631021208328,1.07
1631021208343,0.6
1631021208359,0.29
1631021208375,0.1
1631021208390,-0.09
1631021208406,-0.42
1631021208421,-1.01
1631021208437,-1.87
1631021208453,-2.92
1631021208468,-4.0
1631021208484,-4.95
1631021208500,-5.71
1631021208515,-6.28
1631021208531,-6.75
1631021208546,-7.25
1631021208562,-7.92
1631021208578,-8.83
1631021208593,-10.0
1631021208609,-11.31
1631021208625,-12.54
1631021208640,-13.36
1631021208656,-13.5
1631021208671,-12.8
1631021208687,-11.37
1631021208703,-9.43
1631021208718,-7.28
1631021208734,-5.18
1631021208750,-3.21
1631021208765,-1.37
1631021208781,0.35
1631021208796,1.94
1631021208812,3.35
1631021208828,4.55
1631021208843,5.58
1631021208859,6.52
1631021208875,7.47
1631021208890,8.39
1631021208906,9.2
1631021208921,9.74
1631021208937,9.92
1631021208953,9.74
1631021208968,9.31
1631021208984,8.77
1631021209000,8.22
1631021209015,7.75
1631021209031,7.35
1631021209046,7.03
1631021209062,6.77
1631021209078,6.54
1631021209093,6.28
1631021209109,5.86
1631021209125,5.21
1631021209140,4.28
1631021209156,3.15
1631021209171,1.99
1631021209187,0.95
1631021209203,0.16
1631021209218,-0.39
1631021209234,-0.82
1631021209250,-1.28
1631021209265,-1.86
1631021209281,-2.61
1631021209296,-3.49
1631021209312,-4.39
1631021209328,-5.25
1631021209343,-6.0
1631021209359,-6.64
1631021209375,-7.24
1631021209390,-7.93
1631021209406,-8.82
1631021209421,-10.0
1631021209437,-11.45
1631021209453,-13.0
1631021209468,-14.39
1631021209484,-15.3
1631021209500,-15.46
1631021209515,-14.78
1631021209531,-13.34
1631021209546,-11.35
1631021209562,-9.07
1631021209578,-6.7
1631021209593,-4.33
1631021209609,-1.97
1631021209625,0.37
1631021209640,2.64
1631021209656,4.72
1631021209671,6.46
1631021209687,7.78
1631021209703,8.66
1631021209718,9.22
1631021209734,9.62
1631021209750,9.95
1631021209765,10.21
1631021209781,10.31
1631021209796,10.16
1631021209812,9.71
1631021209828,9.01
1631021209843,8.21
1631021209859,7.47
1631021209875,6.91
1631021209890,6.55
1631021209906,6.31
1631021209921,6.08
1631021209937,5.71
1631021209953,5.12
1631021209968,4.31
1631021209984,3.38
1631021210000,2.45
1631021210015,1.68
1631021210031,1.09
1631021210046,0.63
1631021210062,0.16
1631021210078,-0.48
1631021210093,-1.33
1631021210109,-2.34
1631021210125,-3.37
1631021210140,-4.35
1631021210156,-5.25
1631021210171,-6.15
1631021210187,-7.12
1631021210203,-8.14
1631021210218,-9.16
1631021210234,-10.09
1631021210250,-10.89
1631021210265,-11.62
1631021210281,-12.36
1631021210296,-13.12
1631021210312,-13.77
1631021210328,-14.07
1631021210343,-13.79
1631021210359,-12.78
1631021210375,-11.14
1631021210390,-9.06
1631021210406,-6.79
1631021210421,-4.49
1631021210437,-2.19
1631021210453,0.09
1631021210468,2.34
1631021210484,4.43
1631021210500,6.14
1631021210515,7.32
1631021210531,7.92
1631021210546,8.07
1631021210562,7.98
1631021210578,7.9
1631021210593,7.94
1631021210609,8.09
1631021210625,8.25
1631021210640,8.33
1631021210656,8.29
1631021210671,8.16
1631021210687,8.01
1631021210703,7.89
1631021210718,7.81
1631021210734,7.69
1631021210750,7.46
1631021210765,7.07
1631021210781,6.5
1631021210796,5.78
1631021210812,4.97
1631021210828,4.11
1631021210843,3.2
1631021210859,2.25
1631021210875,1.25
1631021210890,0.25
1631021210906,-0.68
1631021210921,-1.52
1631021210937,-2.28
1631021210953,-3.01
1631021210968,-3.76
1631021210984,-4.57
1631021211000,-5.42
1631021211015,-6.32
1631021211031,-7.3
1631021211046,-8.41
1631021211062,-9.67
1631021211078,-10.96
1631021211093,-12.06
1631021211109,-12.69
1631021211125,-12.63
1631021211140,-11.81
1631021211156,-10.38
1631021211171,-8.55
1631021211187,-6.52
1631021211203,-4.39
1631021211218,-2.16
1631021211234,0.17
1631021211250,2.51
1631021211265,4.68
1631021211281,6.48
1631021211296,7.77
1631021211312,8.58
1631021211328,9.07
1631021211343,9.45
1631021211359,9.86
1631021211375,10.28
1631021211390,10.61
1631021211406,10.68
1631021211421,10.42
1631021211437,9.89
1631021211453,9.24
1631021211468,8.61
1631021211484,8.12
1631021211500,7.78
1631021211515,7.53
1631021211531,7.28
1631021211546,6.95
1631021211562,6.46
1631021211578,5.77
1631021211593,4.86
1631021211609,3.76
1631021211625,2.58
1631021211640,1.46
1631021211656,0.55
1631021211671,-0.12
1631021211687,-0.59
1631021211703,-1.06
1631021211718,-1.71
1631021211734,-2.68
1631021211750,-3.95
1631021211765,-5.36
1631021211781,-6.73
1631021211796,-7.89
1631021211812,-8.79
1631021211828,-9.51
1631021211843,-10.19
1631021211859,-10.96
1631021211875,-11.9
1631021211890,-12.97
1631021211906,-14.01
1631021211921,-14.81
1631021211937,-15.1
1631021211953,-14.66
1631021211968,-13.37
1631021211984,-11.23
1631021212000,-8.43
1631021212015,-5.24
1631021212031,-1.98
1631021212046,1.06
1631021212062,3.71
1631021212078,5.89
1631021212093,7.58
1631021212109,8.81
1631021212125,9.6
1631021212140,10.03
1631021212156,10.19
1631021212171,10.24
1631021212187,10.29
1631021212203,10.42
1631021212218,10.57
1631021212234,10.63
1631021212250,10.45
1631021212265,9.99
1631021212281,9.31
1631021212296,8.55
1631021212312,7.91
1631021212328,7.49
1631021212343,7.26
1631021212359,7.12
1631021212375,6.92
1631021212390,6.56
1631021212406,6.03
1631021212421,5.38
1631021212437,4.69
1631021212453,3.99
1631021212468,3.23
1631021212484,2.38
1631021212500,1.41
1631021212515,0.34
1631021212531,-0.75
1631021212546,-1.83
1631021212562,-2.89
1631021212578,-3.93
1631021212593,-4.97
1631021212609,-5.97
1631021212625,-6.88
1631021212640,-7.67
1631021212656,-8.35
1631021212671,-9.01
1631021212687,-9.76
1631021212703,-10.65
1631021212718,-11.7
1631021212734,-12.83
1631021212750,-13.88
1631021212765,-14.65
1631021212781,-14.94
1631021212796,-14.6
1631021212812,-13.56
1631021212828,-11.84
1631021212843,-9.6
1631021212859,-7.01
1631021212875,-4.3
1631021212890,-1.63
1631021212906,0.88
1631021212921,3.16
1631021212937,5.12
1631021212953,6.67
1631021212968,7.81
1631021212984,8.54
1631021213000,8.97
1631021213015,9.21
1631021213031,9.33
1631021213046,9.36
1631021213062,9.32
1631021213078,9.2
1631021213093,9.06
1631021213109,8.91
1631021213125,8.8
1631021213140,8.67
1631021213156,8.48
1631021213171,8.17
1631021213187,7.78
1631021213203,7.35
1631021213218,6.95
1631021213234,6.61
1631021213250,6.31
1631021213265,5.96
1631021213281,5.47
1631021213296,4.8
1631021213312,3.96
1631021213328,3.01
1631021213343,2.04
1631021213359,1.14
1631021213375,0.35
1631021213390,-0.33
1631021213406,-0.96
1631021213421,-1.58
1631021213437,-2.21
1631021213453,-2.85
1631021213468,-3.45
1631021213484,-4.02
1631021213500,-4.61
1631021213515,-5.29
1631021213531,-6.14
1631021213546,-7.18
1631021213562,-8.36
1631021213578,-9.61
1631021213593,-10.85
1631021213609,-11.99
1631021213625,-12.94
1631021213640,-13.55
1631021213656,-13.69
1631021213671,-13.27
1631021213687,-12.28
1631021213703,-10.82
1631021213718,-9.0
1631021213734,-6.91
1631021213750,-4.59
1631021213765,-2.1
1631021213781,0.45
1631021213796,2.87
1631021213812,4.94
1631021213828,6.52
1631021213843,7.57
1631021213859,8.18
1631021213875,8.44
1631021213890,8.48
1631021213906,8.37
1631021213921,8.21
1631021213937,8.09
1631021213953,8.1
1631021213968,8.27
1631021213984,8.56
1631021214000,8.82
1631021214015,8.9
1631021214031,8.68
1631021214046,8.13
1631021214062,7.35
1631021214078,6.47
1631021214093,5.67
1631021214109,5.06
1631021214125,4.68
1631021214140,4.47
1631021214156,4.3
1631021214171,4.05
1631021214187,3.62
1631021214203,2.99
1631021214218,2.22
1631021214234,1.37
1631021214250,0.46
1631021214265,-0.48
1631021214281,-1.44
1631021214296,-2.36
1631021214312,-3.15
1631021214328,-3.78
1631021214343,-4.24
1631021214359,-4.66
1631021214375,-5.2
1631021214390,-6.04
1631021214406,-7.25
1631021214421,-8.83
1631021214437,-10.67
1631021214453,-12.56
1631021214468,-14.27
1631021214484,-15.54
1631021214500,-16.15
1631021214515,-15.97
1631021214531,-14.99
1631021214546,-13.33
1631021214562,-11.21
1631021214578,-8.83
1631021214593,-6.36
1631021214609,-3.88
1631021214625,-1.43
1631021214640,0.99
1631021214656,3.34
1631021214671,5.54
1631021214687,7.51
1631021214703,9.12
1631021214718,10.24
1631021214734,10.78
1631021214750,10.75
1631021214765,10.26
1631021214781,9.53
1631021214796,8.81
1631021214812,8.29
1631021214828,8.03
1631021214843,7.97
1631021214859,7.99
1631021214875,8.01
1631021214890,7.97
1631021214906,7.89
1631021214921,7.73
1631021214937,7.45
1631021214953,6.98
1631021214968,6.3
1631021214984,5.48
1631021215000,4.64
1631021215015,3.87
1631021215031,3.22
1631021215046,2.67
1631021215062,2.09
1631021215078,1.41
1631021215093,0.56
1631021215109,-0.42
1631021215125,-1.5
1631021215140,-2.57
1631021215156,-3.55
1631021215171,-4.36
1631021215187,-4.92
1631021215203,-5.27
1631021215218,-5.53
1631021215234,-5.89
1631021215250,-6.55
1631021215265,-7.58
1631021215281,-8.94
1631021215296,-10.48
1631021215312,-12.04
1631021215328,-13.48
1631021215343,-14.7
1631021215359,-15.6
1631021215375,-16.02
1631021215390,-15.8
1631021215406,-14.83
1631021215421,-13.19
1631021215437,-11.08
1631021215453,-8.81
1631021215468,-6.61
1631021215484,-4.55
1631021215500,-2.51
1631021215515,-0.35
1631021215531,2.01
1631021215546,4.44
1631021215562,6.68
1631021215578,8.45
1631021215593,9.55
1631021215609,9.99
1631021215625,9.9
1631021215640,9.49
1631021215656,8.95
1631021215671,8.44
1631021215687,8.06
1631021215703,7.9
1631021215718,7.98
1631021215734,8.26
1631021215750,8.61
1631021215765,8.88
1631021215781,8.92
1631021215796,8.67
1631021215812,8.16
1631021215828,7.47
1631021215843,6.69
1631021215859,5.87
1631021215875,5.04
1631021215890,4.21
1631021215906,3.41
1631021215921,2.65
1631021215937,1.94
1631021215953,1.18
1631021215968,0.34
1631021215984,-0.61
1631021216000,-1.6
1631021216015,-2.5
1631021216031,-3.2
1631021216046,-3.7
1631021216062,-4.1
1631021216078,-4.58
1631021216093,-5.27
1631021216109,-6.19
1631021216125,-7.28
1631021216140,-8.45
1631021216156,-9.63
1631021216171,-10.82
1631021216187,-12.03
1631021216203,-13.2
1631021216218,-14.2
1631021216234,-14.83
1631021216250,-14.9
1631021216265,-14.36
1631021216281,-13.26
1631021216296,-11.78
1631021216312,-10.07
1631021216328,-8.19
1631021216343,-6.13
1631021216359,-3.86
1631021216375,-1.36
1631021216390,1.22
1631021216406,3.7
1631021216421,5.86
1631021216437,7.54
1631021216453,8.69
1631021216468,9.35
1631021216484,9.61
1631021216500,9.58
1631021216515,9.38
1631021216531,9.08
1631021216546,8.77
1631021216562,8.51
1631021216578,8.36
1631021216593,8.34
1631021216609,8.4
1631021216625,8.5
1631021216640,8.55
1631021216656,8.49
1631021216671,8.22
1631021216687,7.68
1631021216703,6.87
1631021216718,5.82
1631021216734,4.69
1631021216750,3.63
1631021216765,2.78
1631021216781,2.18
1631021216796,1.75
1631021216812,1.35
1631021216828,0.84
1631021216843,0.13
1631021216859,-0.78
1631021216875,-1.79
1631021216890,-2.83
1631021216906,-3.79
1631021216921,-4.67
1631021216937,-5.46
1631021216953,-6.17
1631021216968,-6.84
1631021216984,-7.53
1631021217000,-8.3
1631021217015,-9.22
1631021217031,-10.33
1631021217046,-11.51
1631021217062,-12.57
1631021217078,-13.23
1631021217093,-13.23
1631021217109,-12.45
1631021217125,-10.91
1631021217140,-8.8
1631021217156,-6.34
1631021217171,-3.79
1631021217187,-1.28
1631021217203,1.09
1631021217218,3.25
1631021217234,5.12
1631021217250,6.57
1631021217265,7.55
1631021217281,8.06
1631021217296,8.22
1631021217312,8.19
1631021217328,8.14
1631021217343,8.21
1631021217359,8.43
1631021217375,8.75
1631021217390,9.06
1631021217406,9.23
1631021217421,9.19
1631021217437,8.91
1631021217453,8.44
1631021217468,7.9
1631021217484,7.43
1631021217500,7.08
1631021217515,6.83
1631021217531,6.57
1631021217546,6.19
1631021217562,5.61
1631021217578,4.87
1631021217593,4.05
1631021217609,3.24
1631021217625,2.47
1631021217640,1.71
1631021217656,0.88
1631021217671,-0.05
1631021217687,-1.06
1631021217703,-2.06
1631021217718,-2.94
1631021217734,-3.66
1631021217750,-4.27
1631021217765,-4.87
1631021217781,-5.6
1631021217796,-6.51
1631021217812,-7.57
1631021217828,-8.71
1631021217843,-9.84
1631021217859,-10.91
1631021217875,-11.92
1631021217890,-12.87
1631021217906,-13.65
1631021217921,-14.1
1631021217937,-13.99
1631021217953,-13.19
1631021217968,-11.68
1631021217984,-9.62
1631021218000,-7.25
1631021218015,-4.83
1631021218031,-2.49
1631021218046,-0.28
1631021218062,1.81
1631021218078,3.8
1631021218093,5.63
1631021218109,7.21
1631021218125,8.49
1631021218140,9.44
1631021218156,10.12
1631021218171,10.59
1631021218187,10.87
1631021218203,10.95
1631021218218,10.79
1631021218234,10.39
1631021218250,9.8
1631021218265,9.16
1631021218281,8.6
1631021218296,8.2
1631021218312,7.96
1631021218328,7.81
1631021218343,7.67
1631021218359,7.47
1631021218375,7.16
1631021218390,6.72
1631021218406,6.14
1631021218421,5.4
1631021218437,4.52
1631021218453,3.54
1631021218468,2.59
1631021218484,1.74
1631021218500,1.05
1631021218515,0.49
1631021218531,-0.05
1631021218546,-0.72
1631021218562,-1.63
1631021218578,-2.8
1631021218593,-4.12
1631021218609,-5.43
1631021218625,-6.55
1631021218640,-7.39
1631021218656,-7.98
1631021218671,-8.44
1631021218687,-8.91
1631021218703,-9.49
1631021218718,-10.22
1631021218734,-11.13
1631021218750,-12.22
1631021218765,-13.46
1631021218781,-14.78
1631021218796,-15.95
1631021218812,-16.69
1631021218828,-16.67
1631021218843,-15.71
1631021218859,-13.78
1631021218875,-11.09
1631021218890,-7.98
1631021218906,-4.81
1631021218921,-1.89
1631021218937,0.59
1631021218953,2.57
1631021218968,4.05
1631021218984,5.15
1631021219000,6.02
1631021219015,6.77
1631021219031,7.49
1631021219046,8.16
1631021219062,8.7
1631021219078,9.03
1631021219093,9.12
1631021219109,9.03
1631021219125,8.83
1631021219140,8.63
1631021219156,8.42
1631021219171,8.16
1631021219187,7.83
1631021219203,7.43
1631021219218,7.02
1631021219234,6.68
1631021219250,6.4
1631021219265,6.15
1631021219281,5.84
1631021219296,5.4
1631021219312,4.87
1631021219328,4.31
1631021219343,3.77
1631021219359,3.27
1631021219375,2.74
1631021219390,2.13
1631021219406,1.43
1631021219421,0.69
1631021219437,-0.05
1631021219453,-0.75
1631021219468,-1.43
1631021219484,-2.14
1631021219500,-2.88
1631021219515,-3.57
1631021219531,-4.16
1631021219546,-4.64
1631021219562,-5.12
1631021219578,-5.81
1631021219593,-6.88
1631021219609,-8.35
1631021219625,-10.1
1631021219640,-11.83
1631021219656,-13.24
1631021219671,-14.09
1631021219687,-14.28
1631021219703,-13.83
1631021219718,-12.78
1631021219734,-11.19
1631021219750,-9.1
1631021219765,-6.59
1631021219781,-3.82
1631021219796,-1.03
1631021219812,1.55
1631021219828,3.76
1631021219843,5.53
1631021219859,6.92
1631021219875,8.03
1631021219890,8.93
1631021219906,9.64
1631021219921,10.16
1631021219937,10.46
1631021219953,10.52
1631021219968,10.37
1631021219984,10.04
1631021220000,9.61
1631021220015,9.13
1631021220031,8.68
1631021220046,8.3
1631021220062,7.98
1631021220078,7.72
1631021220093,7.44
1631021220109,7.13
1631021220125,6.76
1631021220140,6.32
1631021220156,5.81
1631021220171,5.2
1631021220187,4.51
1631021220203,3.76
1631021220218,3.02
1631021220234,2.34
1631021220250,1.78
1631021220265,1.33
1631021220281,0.93
1631021220296,0.49
1631021220312,-0.09
1631021220328,-0.9
1631021220343,-1.94
1631021220359,-3.17
1631021220375,-4.44
1631021220390,-5.6
1631021220406,-6.55
1631021220421,-7.28
1631021220437,-7.91
1631021220453,-8.63
1631021220468,-9.61
1631021220484,-10.91
1631021220500,-12.45
1631021220515,-14.0
1631021220531,-15.29
1631021220546,-16.05
1631021220562,-16.1
1631021220578,-15.42
1631021220593,-14.08
1631021220609,-12.22
1631021220625,-10.01
1631021220640,-7.58
1631021220656,-5.03
1631021220671,-2.46
1631021220687,0.01
1631021220703,2.23
1631021220718,4.1
1631021220734,5.54
1631021220750,6.62
1631021220765,7.45
1631021220781,8.2
1631021220796,8.97
1631021220812,9.76
1631021220828,10.43
1631021220843,10.83
1631021220859,10.84
1631021220875,10.48
1631021220890,9.87
1631021220906,9.23
1631021220921,8.73
1631021220937,8.45
1631021220953,8.34
1631021220968,8.3
1631021220984,8.17
1631021221000,7.92
1631021221015,7.51
1631021221031,7.0
1631021221046,6.4
1631021221062,5.69
1631021221078,4.83
1631021221093,3.83
1631021221109,2.77
1631021221125,1.79
1631021221140,1.04
1631021221156,0.57
1631021221171,0.3
1631021221187,0.07
1631021221203,-0.35
1631021221218,-1.1
1631021221234,-2.16
1631021221250,-3.41
1631021221265,-4.65
1631021221281,-5.73
1631021221296,-6.59
1631021221312,-7.3
1631021221328,-7.95
1631021221343,-8.65
1631021221359,-9.47
1631021221375,-10.41
1631021221390,-11.43
1631021221406,-12.47
1631021221421,-13.39
1631021221437,-14.02
1631021221453,-14.18
1631021221468,-13.73
1631021221484,-12.67
1631021221500,-11.08
1631021221515,-9.12
1631021221531,-6.95
1631021221546,-4.69
1631021221562,-2.4
1631021221578,-0.11
1631021221593,2.05
1631021221609,4.0
1631021221625,5.6
1631021221640,6.81
1631021221656,7.68
1631021221671,8.35
1631021221687,8.93
1631021221703,9.48
1631021221718,9.96
1631021221734,10.24
1631021221750,10.22
1631021221765,9.86
1631021221781,9.22
1631021221796,8.46
1631021221812,7.71
1631021221828,7.09
1631021221843,6.61
1631021221859,6.25
1631021221875,5.98
1631021221890,5.74
1631021221906,5.52
1631021221921,5.26
1631021221937,4.86
1631021221953,4.22
1631021221968,3.29
1631021221984,2.13
1631021222000,0.91
1631021222015,-0.18
1631021222031,-0.97
1631021222046,-1.44
1631021222062,-1.75
1631021222078,-2.12
1631021222093,-2.74
1631021222109,-3.65
1631021222125,-4.76
1631021222140,-5.89
1631021222156,-6.87
1631021222171,-7.63
1631021222187,-8.23
1631021222203,-8.78
1631021222218,-9.43
1631021222234,-10.26
1631021222250,-11.29
1631021222265,-12.48
1631021222281,-13.71
1631021222296,-14.76
1631021222312,-15.38
1631021222328,-15.3
1631021222343,-14.36
1631021222359,-12.54
1631021222375,-10.02
1631021222390,-7.11
1631021222406,-4.15
1631021222421,-1.42
1631021222437,0.96
1631021222453,2.96
1631021222468,4.62
1631021222484,5.96
1631021222500,6.99
1631021222515,7.72
1631021222531,8.19
1631021222546,8.45
1631021222562,8.55
1631021222578,8.54
1631021222593,8.43
1631021222609,8.24
1631021222625,8.0
1631021222640,7.78
1631021222656,7.66
1631021222671,7.61
1631021222687,7.61
1631021222703,7.53
1631021222718,7.3
1631021222734,6.89
1631021222750,6.35
1631021222765,5.76
1631021222781,5.19
1631021222796,4.65
1631021222812,4.1
1631021222828,3.48
1631021222843,2.72
1631021222859,1.81
1631021222875,0.76
1631021222890,-0.34
1631021222906,-1.4
1631021222921,-2.33
1631021222937,-3.09
1631021222953,-3.73
1631021222968,-4.33
1631021222984,-5.0
1631021223000,-5.82
1631021223015,-6.81
1631021223031,-7.92
1631021223046,-9.11
1631021223062,-10.26
1631021223078,-11.27
1631021223093,-11.97
1631021223109,-12.18
1631021223125,-11.75
1631021223140,-10.6
1631021223156,-8.79
1631021223171,-6.49
1631021223187,-3.9
1631021223203,-1.26
1631021223218,1.29
1631021223234,3.6
1631021223250,5.61
1631021223265,7.24
1631021223281,8.45
1631021223296,9.26
1631021223312,9.71
1631021223328,9.89
1631021223343,9.91
1631021223359,9.87
1631021223375,9.8
1631021223390,9.7
1631021223406,9.55
1631021223421,9.32
1631021223437,9.03
1631021223453,8.71
1631021223468,8.35
1631021223484,7.96
1631021223500,7.53
1631021223515,7.06
1631021223531,6.54
1631021223546,5.98
1631021223562,5.4
1631021223578,4.76
1631021223593,4.04
1631021223609,3.2
1631021223625,2.24
1631021223640,1.21
1631021223656,0.15
1631021223671,-0.88
1631021223687,-1.85
1631021223703,-2.78
1631021223718,-3.68
1631021223734,-4.53
1631021223750,-5.32
1631021223765,-6.04
1631021223781,-6.71
1631021223796,-7.41
1631021223812,-8.23
1631021223828,-9.27
1631021223843,-10.56
1631021223859,-12.04
1631021223875,-13.56
1631021223890,-14.82
1631021223906,-15.55
1631021223921,-15.52
1631021223937,-14.67
1631021223953,-13.11
1631021223968,-11.08
1631021223984,-8.86
1631021224000,-6.62
1631021224015,-4.45
1631021224031,-2.34
1631021224046,-0.25
1631021224062,1.79
1631021224078,3.71
1631021224093,5.37
1631021224109,6.63
1631021224125,7.41
1631021224140,7.74
1631021224156,7.72
1631021224171,7.53
1631021224187,7.35
1631021224203,7.29
1631021224218,7.38
1631021224234,7.52
1631021224250,7.6
1631021224265,7.49
1631021224281,7.12
1631021224296,6.51
1631021224312,5.75
1631021224328,4.92
1631021224343,4.1
1631021224359,3.34
1631021224375,2.64
1631021224390,1.98
1631021224406,1.35
1631021224421,0.72
1631021224437,0.09
1631021224453,-0.54
1631021224468,-1.18
1631021224484,-1.85
1631021224500,-2.57
1631021224515,-3.36
1631021224531,-4.21
1631021224546,-5.08
1631021224562,-5.95
1631021224578,-6.9
1631021224593,-8.02
1631021224609,-9.38
1631021224625,-10.88
1631021224640,-12.29
1631021224656,-13.22
1631021224671,-13.37
1631021224687,-12.65
1631021224703,-11.22
1631021224718,-9.41
1631021224734,-7.51
1631021224750,-5.63
1631021224765,-3.71
1631021224781,-1.59
1631021224796,0.74
1631021224812,3.15
1631021224828,5.34
1631021224843,7.03
1631021224859,8.12
1631021224875,8.68
1631021224890,8.92
1631021224906,9.01
1631021224921,9.04
1631021224937,9.03
1631021224953,8.97
1631021224968,8.91
1631021224984,8.93
1631021225000,9.08
1631021225015,9.34
1631021225031,9.56
1631021225046,9.58
1631021225062,9.29
1631021225078,8.69
1631021225093,7.89
1631021225109,7.03
1631021225125,6.22
1631021225140,5.5
1631021225156,4.82
1631021225171,4.11
1631021225187,3.34
1631021225203,2.49
1631021225218,1.59
1631021225234,0.62
1631021225250,-0.42
1631021225265,-1.55
1631021225281,-2.73
1631021225296,-3.91
1631021225312,-5.0
1631021225328,-5.92
1631021225343,-6.66
1631021225359,-7.27
1631021225375,-7.87
1631021225390,-8.59
1631021225406,-9.51
1631021225421,-10.6
1631021225437,-11.7
1631021225453,-12.58
1631021225468,-13.02
1631021225484,-12.85
1631021225500,-12.04
1631021225515,-10.66
1631021225531,-8.88
1631021225546,-6.85
1631021225562,-4.71
1631021225578,-2.54
1631021225593,-0.39
1631021225609,1.7
1631021225625,3.69
1631021225640,5.52
1631021225656,7.15
1631021225671,8.55
1631021225687,9.68
1631021225703,10.51
1631021225718,11.02
1631021225734,11.21
1631021225750,11.12
1631021225765,10.81
1631021225781,10.39
1631021225796,9.95
1631021225812,9.52
1631021225828,9.14
1631021225843,8.76
1631021225859,8.34
1631021225875,7.85
1631021225890,7.24
1631021225906,6.53
1631021225921,5.74
1631021225937,4.92
1631021225953,4.08
1631021225968,3.26
1631021225984,2.42
1631021226000,1.53
1631021226015,0.56
1631021226031,-0.49
1631021226046,-1.57
1631021226062,-2.62
1631021226078,-3.59
1631021226093,-4.49
1631021226109,-5.37
1631021226125,-6.33
1631021226140,-7.4
1631021226156,-8.57
1631021226171,-9.76
1631021226187,-10.87
1631021226203,-11.84
1631021226218,-12.66
1631021226234,-13.31
1631021226250,-13.72
1631021226265,-13.8
1631021226281,-13.44
1631021226296,-12.54
1631021226312,-11.09
1631021226328,-9.18
1631021226343,-6.93
1631021226359,-4.45
1631021226375,-1.84
1631021226390,0.81
1631021226406,3.38
1631021226421,5.69
1631021226437,7.53
1631021226453,8.77
1631021226468,9.4
1631021226484,9.52
1631021226500,9.35
1631021226515,9.1
1631021226531,8.91
1631021226546,8.87
1631021226562,8.95
1631021226578,9.08
1631021226593,9.17
1631021226609,9.12
1631021226625,8.84
1631021226640,8.3
1631021226656,7.48
1631021226671,6.47
1631021226687,5.38
1631021226703,4.31
1631021226718,3.34
1631021226734,2.48
1631021226750,1.7
1631021226765,0.96
1631021226781,0.24
1631021226796,-0.5
1631021226812,-1.24
1631021226828,-2.02
1631021226843,-2.85
1631021226859,-3.79
1631021226875,-4.82
1631021226890,-5.91
1631021226906,-6.96
1631021226921,-7.9
1631021226937,-8.66
1631021226953,-9.29
1631021226968,-9.87
1631021226984,-10.56
1631021227000,-11.41
1631021227015,-12.39
1631021227031,-13.34
1631021227046,-14.01
1631021227062,-14.17
1631021227078,-13.68
1631021227093,-12.54
1631021227109,-10.9
1631021227125,-8.97
1631021227140,-6.92
1631021227156,-4.84
1631021227171,-2.76
1631021227187,-0.69
1631021227203,1.35
1631021227218,3.28
1631021227234,4.97
1631021227250,6.31
1631021227265,7.24
1631021227281,7.81
1631021227296,8.09
1631021227312,8.2
1631021227328,8.22
1631021227343,8.2
1631021227359,8.14
1631021227375,8.07
1631021227390,7.98
1631021227406,7.87
1631021227421,7.72
1631021227437,7.49
1631021227453,7.18
1631021227468,6.78
1631021227484,6.31
1631021227500,5.76
1631021227515,5.14
1631021227531,4.44
1631021227546,3.66
1631021227562,2.81
1631021227578,1.89
1631021227593,0.87
1631021227609,-0.24
1631021227625,-1.43
1631021227640,-2.63
1631021227656,-3.72
1631021227671,-4.63
1631021227687,-5.32
1631021227703,-5.89
1631021227718,-6.47
1631021227734,-7.21
1631021227750,-8.14
1631021227765,-9.2
1631021227781,-10.2
1631021227796,-10.93
1631021227812,-11.22
1631021227828,-10.98
1631021227843,-10.2
1631021227859,-8.97
1631021227875,-7.4
1631021227890,-5.59
1631021227906,-3.59
1631021227921,-1.45
1631021227937,0.76
1631021227953,2.92
1631021227968,4.84
1631021227984,6.33
1631021228000,7.27
1631021228015,7.69
1631021228031,7.76
1631021228046,7.71
1631021228062,7.75
1631021228078,7.96
1631021228093,8.28
1631021228109,8.57
1631021228125,8.69
1631021228140,8.58
1631021228156,8.26
1631021228171,7.8
1631021228187,7.29
1631021228203,6.75
1631021228218,6.19
1631021228234,5.58
1631021228250,4.9
1631021228265,4.1
1631021228281,3.18
1631021228296,2.17
1631021228312,1.11
1631021228328,0.08
1631021228343,-0.92
1631021228359,-1.9
1631021228375,-2.88
1631021228390,-3.85
1631021228406,-4.8
1631021228421,-5.72
1631021228437,-6.62
1631021228453,-7.54
1631021228468,-8.55
1631021228484,-9.64
1631021228500,-10.7
1631021228515,-11.53
1631021228531,-11.89
1631021228546,-11.66
1631021228562,-10.84
1631021228578,-9.52
1631021228593,-7.83
1631021228609,-5.84
1631021228625,-3.56
1631021228640,-1.02
1631021228656,1.7
1631021228671,4.35
1631021228687,6.64
1631021228703,8.3
1631021228718,9.18
1631021228734,9.34
1631021228750,9.01
1631021228765,8.52
1631021228781,8.15
1631021228796,8.06
1631021228812,8.22
1631021228828,8.49
1631021228843,8.66
1631021228859,8.56
1631021228875,8.13
1631021228890,7.44
1631021228906,6.58
1631021228921,5.68
1631021228937,4.76
1631021228953,3.83
1631021228968,2.85
1631021228984,1.84
1631021229000,0.86
1631021229015,-0.03
1631021229031,-0.78
1631021229046,-1.45
1631021229062,-2.14
1631021229078,-2.98
1631021229093,-4.06
1631021229109,-5.37
1631021229125,-6.81
1631021229140,-8.25
1631021229156,-9.56
1631021229171,-10.64
1631021229187,-11.42
1631021229203,-11.82
1631021229218,-11.76
1631021229234,-11.15
1631021229250,-9.97
1631021229265,-8.29
1631021229281,-6.22
1631021229296,-3.94
1631021229312,-1.63
1631021229328,0.6
1631021229343,2.67
1631021229359,4.59
1631021229375,6.32
1631021229390,7.82
1631021229406,9.0
1631021229421,9.76
1631021229437,10.02
1631021229453,9.81
1631021229468,9.26
1631021229484,8.51
1631021229500,7.71
1631021229515,6.97
1631021229531,6.32
1631021229546,5.78
1631021229562,5.35
1631021229578,5.0
1631021229593,4.74
1631021229609,4.5
1631021229625,4.21
1631021229640,3.81
1631021229656,3.22
1631021229671,2.42
1631021229687,1.43
1631021229703,0.33
1631021229718,-0.81
1631021229734,-1.9
1631021229750,-2.89
1631021229765,-3.8
1631021229781,-4.69
1631021229796,-5.68
1631021229812,-6.85
1631021229828,-8.22
1631021229843,-9.73
1631021229859,-11.23
1631021229875,-12.56
1631021229890,-13.54
1631021229906,-14.05
1631021229921,-13.96
1631021229937,-13.19
1631021229953,-11.73
1631021229968,-9.68
1631021229984,-7.2
1631021230000,-4.57
1631021230015,-2.02
1631021230031,0.25
1631021230046,2.12
1631021230062,3.6
1631021230078,4.76
1631021230093,5.66
1631021230109,6.39
1631021230125,6.97
1631021230140,7.4
1631021230156,7.67
1631021230171,7.78
1631021230187,7.73
1631021230203,7.5
1631021230218,7.12
1631021230234,6.63
1631021230250,6.1
1631021230265,5.62
1631021230281,5.24
1631021230296,4.97
1631021230312,4.73
1631021230328,4.43
1631021230343,3.99
1631021230359,3.38
1631021230375,2.62
1631021230390,1.76
1631021230406,0.85
1631021230421,-0.13
1631021230437,-1.18
1631021230453,-2.26
1631021230468,-3.3
1631021230484,-4.22
1631021230500,-4.97
1631021230515,-5.61
1631021230531,-6.26
1631021230546,-7.05
1631021230562,-8.0
1631021230578,-9.06
1631021230593,-10.08
1631021230609,-10.89
1631021230625,-11.3
1631021230640,-11.16
1631021230656,-10.35
1631021230671,-8.84
1631021230687,-6.72
1631021230703,-4.19
1631021230718,-1.5
1631021230734,1.12
1631021230750,3.52
1631021230765,5.61
1631021230781,7.39
1631021230796,8.84
1631021230812,9.93
1631021230828,10.67
1631021230843,11.1
1631021230859,11.29
1631021230875,11.33
1631021230890,11.29
1631021230906,11.16
1631021230921,10.93
1631021230937,10.57
1631021230953,10.07
1631021230968,9.41
1631021230984,8.61
1631021231000,7.69
1631021231015,6.76
1631021231031,5.94
1631021231046,5.35
1631021231062,5.03
1631021231078,4.9
1631021231093,4.76
1631021231109,4.39
1631021231125,3.64
1631021231140,2.51
1631021231156,1.14
1631021231171,-0.3
1631021231187,-1.66
1631021231203,-2.86
1631021231218,-3.92
1631021231234,-4.86
1631021231250,-5.72
1631021231265,-6.52
1631021231281,-7.31
1631021231296,-8.15
1631021231312,-9.08
1631021231328,-10.1
1631021231343,-11.12
1631021231359,-11.95
1631021231375,-12.38
1631021231390,-12.18
1631021231406,-11.26
1631021231421,-9.63
1631021231437,-7.45
1631021231453,-4.96
1631021231468,-2.43
1631021231484,-0.11
1631021231500,1.86
1631021231515,3.42
1631021231531,4.62
1631021231546,5.54
1631021231562,6.29
1631021231578,6.97
1631021231593,7.59
1631021231609,8.12
1631021231625,8.5
1631021231640,8.62
1631021231656,8.47
1631021231671,8.1
1631021231687,7.66
1631021231703,7.29
1631021231718,7.04
1631021231734,6.86
1631021231750,6.59
1631021231765,6.11
1631021231781,5.39
1631021231796,4.58
1631021231812,3.85
1631021231828,3.34
1631021231843,3.0
1631021231859,2.69
1631021231875,2.19
1631021231890,1.37
1631021231906,0.25
1631021231921,-1.0
1631021231937,-2.17
1631021231953,-3.09
1631021231968,-3.7
1631021231984,-4.06
1631021232000,-4.32
1631021232015,-4.67
1631021232031,-5.25
1631021232046,-6.1
1631021232062,-7.17
1631021232078,-8.36
1631021232093,-9.57
1631021232109,-10.79
1631021232125,-12.0
1631021232140,-13.2
1631021232156,-14.27
1631021232171,-15.02
1631021232187,-15.2
1631021232203,-14.65
1631021232218,-13.3
1631021232234,-11.23
1631021232250,-8.63
1631021232265,-5.71
1631021232281,-2.71
1631021232296,0.22
1631021232312,2.92
1631021232328,5.31
1631021232343,7.29
1631021232359,8.75
1631021232375,9.62
1631021232390,9.83
1631021232406,9.45
1631021232421,8.68
1631021232437,7.78
1631021232453,7.03
1631021232468,6.53
1631021232484,6.25
1631021232500,5.99
1631021232515,5.59
1631021232531,4.98
1631021232546,4.27
1631021232562,3.65
1631021232578,3.32
1631021232593,3.3
1631021232609,3.48
1631021232625,3.69
1631021232640,3.78
1631021232656,3.7
1631021232671,3.47
1631021232687,3.11
1631021232703,2.58
1631021232718,1.84
1631021232734,0.85
1631021232750,-0.32
1631021232765,-1.51
1631021232781,-2.57
1631021232796,-3.44
1631021232812,-4.17
1631021232828,-4.91
1631021232843,-5.85
1631021232859,-7.05
1631021232875,-8.49
1631021232890,-10.06
1631021232906,-11.63
1631021232921,-13.07
1631021232937,-14.25
1631021232953,-15.06
1631021232968,-15.37
1631021232984,-15.08
1631021233000,-14.19
1631021233015,-12.79
1631021233031,-11.07
1631021233046,-9.24
1631021233062,-7.46
1631021233078,-5.83
1631021233093,-4.36
1631021233109,-3.01
1631021233125,-1.75
1631021233140,-0.59
1631021233156,0.42
1631021233171,1.21
1631021233187,1.73
1631021233203,1.97
1631021233218,2.01
1631021233234,1.95
1631021233250,1.92
1631021233265,1.97
1631021233281,2.12
1631021233296,2.34
1631021233312,2.6
1631021233328,2.89
1631021233343,3.25
1631021233359,3.72
1631021233375,4.27
1631021233390,4.84
1631021233406,5.26
1631021233421,5.36
1631021233437,5.04
1631021233453,4.31
1631021233468,3.32
1631021233484,2.26
1631021233500,1.29
1631021233515,0.49
1631021233531,-0.18
1631021233546,-0.82
1631021233562,-1.44
1631021233578,-1.99
1631021233593,-2.39
1631021233609,-2.62
1631021233625,-2.73
1631021233640,-2.91
1631021233656,-3.32
1631021233671,-4.06
1631021233687,-5.05
1631021233703,-6.08
1631021233718,-6.86
1631021233734,-7.16
1631021233750,-6.87
1631021233765,-6.02
1631021233781,-4.73
1631021233796,-3.15
1631021233812,-1.34
1631021233828,0.69
1631021233843,2.91
1631021233859,5.3
1631021233875,7.75
1631021233890,10.09
1631021233906,12.17
1631021233921,13.88
1631021233937,15.17
1631021233953,16.07
1631021233968,16.59
1631021233984,16.78
1631021234000,16.71
1631021234015,16.52
1631021234031,16.38
1631021234046,16.46
1631021234062,16.76
1631021234078,17.14
1631021234093,17.31
1631021234109,17.04
1631021234125,16.21
1631021234140,14.89
1631021234156,13.31
1631021234171,11.68
1631021234187,10.14
1631021234203,8.72
1631021234218,7.38
1631021234234,6.05
1631021234250,4.74
1631021234265,3.42
1631021234281,2.1
1631021234296,0.71
1631021234312,-0.79
1631021234328,-2.45
1631021234343,-4.25
1631021234359,-6.12
1631021234375,-7.99
1631021234390,-9.71
1631021234406,-11.18
1631021234421,-12.26
1631021234437,-12.88
1631021234453,-13.05
1631021234468,-12.82
1631021234484,-12.32
1631021234500,-11.64
1631021234515,-10.84
1631021234531,-9.91
1631021234546,-8.84
1631021234562,-7.62
1631021234578,-6.33
1631021234593,-5.1
1631021234609,-4.06
1631021234625,-3.27
1631021234640,-2.73
1631021234656,-2.35
1631021234671,-2.0
1631021234687,-1.6
1631021234703,-1.08
1631021234718,-0.47
1631021234734,0.14
1631021234750,0.67
1631021234765,1.05
1631021234781,1.28
1631021234796,1.44
1631021234812,1.62
1631021234828,1.92
1631021234843,2.32
1631021234859,2.75
1631021234875,3.11
1631021234890,3.31
1631021234906,3.34
1631021234921,3.21
1631021234937,2.95
1631021234953,2.53
1631021234968,1.87
1631021234984,0.94
1631021235000,-0.26
1631021235015,-1.63
1631021235031,-3.05
1631021235046,-4.4
1631021235062,-5.62
1631021235078,-6.71
1631021235093,-7.73
1631021235109,-8.74
1631021235125,-9.73
1631021235140,-10.64
1631021235156,-11.32
1631021235171,-11.63
1631021235187,-11.47
1631021235203,-10.81
1631021235218,-9.67
1631021235234,-8.12
1631021235250,-6.18
1631021235265,-3.9
1631021235281,-1.38
1631021235296,1.15
1631021235312,3.39
1631021235328,5.06
1631021235343,5.98
1631021235359,6.17
1631021235375,5.84
1631021235390,5.31
1631021235406,4.91
1631021235421,4.94
1631021235437,5.55
1631021235453,6.76
1631021235468,8.4
1631021235484,10.17
1631021235500,11.73
1631021235515,12.84
1631021235531,13.41
1631021235546,13.47
1631021235562,13.07
1631021235578,12.18
1631021235593,10.63
1631021235609,8.26
1631021235625,5.13
1631021235640,1.58
1631021235656,-1.76
1631021235671,-4.25
1631021235687,-5.5
1631021235703,-5.56
1631021235718,-4.89
1631021235734,-4.14
1631021235750,-3.9
1631021235765,-4.44
1631021235781,-5.74
1631021235796,-7.48
1631021235812,-9.3
1631021235828,-10.91
1631021235843,-12.19
1631021235859,-13.16
1631021235875,-13.85
1631021235890,-14.2
1631021235906,-14.09
1631021235921,-13.31
1631021235937,-11.73
1631021235953,-9.37
1631021235968,-6.44
1631021235984,-3.3
1631021236000,-0.35
1631021236015,2.12
1631021236031,3.96
1631021236046,5.17
1631021236062,5.85
1631021236078,6.13
1631021236093,6.14
1631021236109,6.0
1631021236125,5.86
1631021236140,5.78
1631021236156,5.84
1631021236171,6.02
1631021236187,6.26
1631021236203,6.49
1631021236218,6.64
1631021236234,6.67
1631021236250,6.59
1631021236265,6.42
1631021236281,6.17
1631021236296,5.86
1631021236312,5.53
1631021236328,5.22
1631021236343,4.97
1631021236359,4.8
1631021236375,4.66
1631021236390,4.45
1631021236406,4.06
1631021236421,3.39
1631021236437,2.42
1631021236453,1.17
1631021236468,-0.27
1631021236484,-1.79
1631021236500,-3.31
1631021236515,-4.76
1631021236531,-6.07
1631021236546,-7.16
1631021236562,-7.92
1631021236578,-8.27
1631021236593,-8.13
1631021236609,-7.53
1631021236625,-6.55
1631021236640,-5.31
1631021236656,-3.91
1631021236671,-2.49
1631021236687,-1.12
1631021236703,0.1
1631021236718,1.12
1631021236734,1.88
1631021236750,2.42
1631021236765,2.81
1631021236781,3.15
1631021236796,3.49
1631021236812,3.87
1631021236828,4.26
1631021236843,4.6
1631021236859,4.85
1631021236875,4.98
1631021236890,4.99
1631021236906,4.9
1631021236921,4.75
1631021236937,4.57
1631021236953,4.39
1631021236968,4.2
1631021236984,3.95
1631021237000,3.58
1631021237015,3.02
1631021237031,2.24
1631021237046,1.28
1631021237062,0.2
1631021237078,-0.95
1631021237093,-2.1
1631021237109,-3.23
1631021237125,-4.34
1631021237140,-5.54
1631021237156,-6.95
1631021237171,-8.78
1631021237187,-11.09
1631021237203,-13.76
1631021237218,-16.4
1631021237234,-18.45
1631021237250,-19.41
1631021237265,-19.01
1631021237281,-17.36
1631021237296,-14.83
1631021237312,-11.86
1631021237328,-8.73
1631021237343,-5.55
1631021237359,-2.3
1631021237375,0.97
1631021237390,4.08
1631021237406,6.75
1631021237421,8.76
1631021237437,10.06
1631021237453,10.81
1631021237468,11.27
1631021237484,11.62
1631021237500,11.86
1631021237515,11.83
1631021237531,11.33
1631021237546,10.31
1631021237562,8.84
1631021237578,7.21
1631021237593,5.71
1631021237609,4.57
1631021237625,3.81
1631021237640,3.31
1631021237656,2.83
1631021237671,2.17
1631021237687,1.19
1631021237703,-0.13
1631021237718,-1.68
1631021237734,-3.28
1631021237750,-4.71
1631021237765,-5.81
1631021237781,-6.5
1631021237796,-6.79
1631021237812,-6.77
1631021237828,-6.58
1631021237843,-6.34
1631021237859,-6.2
1631021237875,-6.24
1631021237890,-6.5
1631021237906,-6.9
1631021237921,-7.23
1631021237937,-7.2
1631021237953,-6.55
1631021237968,-5.21
1631021237984,-3.34
1631021238000,-1.35
1631021238015,0.24
1631021238031,1.0
1631021238046,0.73
1631021238062,-0.54
1631021238078,-2.58
1631021238093,-5.1
1631021238109,-7.8
1631021238125,-10.34
1631021238140,-12.39
1631021238156,-13.63
1631021238171,-13.85
1631021238187,-12.98
1631021238203,-11.14
1631021238218,-8.62
1631021238234,-5.73
1631021238250,-2.76
1631021238265,0.06
1631021238281,2.6
1631021238296,4.74
1631021238312,6.42
1631021238328,7.65
1631021238343,8.44
1631021238359,8.87
1631021238375,9.0
1631021238390,8.86
1631021238406,8.46
1631021238421,7.79
1631021238437,6.85
1631021238453,5.68
1631021238468,4.32
1631021238484,2.83
1631021238500,1.25
1631021238515,-0.41
1631021238531,-2.11
1631021238546,-3.82
1631021238562,-5.42
1631021238578,-6.71
1631021238593,-7.46
1631021238609,-7.45
1631021238625,-6.57
1631021238640,-4.91
1631021238656,-2.68
1631021238671,-0.23
1631021238687,2.11
1631021238703,4.12
1631021238718,5.72
1631021238734,6.94
1631021238750,7.87
1631021238765,8.57
1631021238781,9.06
1631021238796,9.33
1631021238812,9.32
1631021238828,9.06
1631021238843,8.58
1631021238859,7.96
1631021238875,7.3
1631021238890,6.66
1631021238906,6.09
1631021238921,5.64
1631021238937,5.33
1631021238953,5.16
1631021238968,5.07
1631021238984,4.95
1631021239000,4.66
1631021239015,4.09
1631021239031,3.17
1631021239046,1.96
1631021239062,0.58
1631021239078,-0.82
1631021239093,-2.08
1631021239109,-3.1
1631021239125,-3.81
1631021239140,-4.26
1631021239156,-4.54
1631021239171,-4.84
1631021239187,-5.32
1631021239203,-6.14
1631021239218,-7.27
1631021239234,-8.56
1631021239250,-9.73
1631021239265,-10.44
1631021239281,-10.41
1631021239296,-9.52
1631021239312,-7.82
1631021239328,-5.55
1631021239343,-3.0
1631021239359,-0.48
1631021239375,1.75
1631021239390,3.56
1631021239406,4.89
1631021239421,5.76
1631021239437,6.25
1631021239453,6.47
1631021239468,6.52
1631021239484,6.49
1631021239500,6.4
1631021239515,6.25
1631021239531,6.01
1631021239546,5.68
1631021239562,5.32
1631021239578,5.02
1631021239593,4.84
1631021239609,4.74
1631021239625,4.64
1631021239640,4.43
1631021239656,4.06
1631021239671,3.58
1631021239687,3.09
1631021239703,2.67
1631021239718,2.33
1631021239734,1.98
1631021239750,1.51
1631021239765,0.83
1631021239781,-0.04
1631021239796,-1.02
1631021239812,-2.01
1631021239828,-2.89
1631021239843,-3.63
1631021239859,-4.27
1631021239875,-4.92
1631021239890,-5.7
1631021239906,-6.71
1631021239921,-7.94
1631021239937,-9.25
1631021239953,-10.36
1631021239968,-10.98
1631021239984,-10.9
1631021240000,-10.05
1631021240015,-8.55
1631021240031,-6.63
1631021240046,-4.52
1631021240062,-2.39
1631021240078,-0.34
1631021240093,1.57
1631021240109,3.31
1631021240125,4.78
1631021240140,5.91
1631021240156,6.66
1631021240171,7.02
1631021240187,7.05
1631021240203,6.85
1631021240218,6.55
1631021240234,6.23
1631021240250,5.95
1631021240265,5.69
1631021240281,5.45
1631021240296,5.19
1631021240312,4.88
1631021240328,4.49
1631021240343,4.05
1631021240359,3.57
1631021240375,3.09
1631021240390,2.61
1631021240406,2.15
1631021240421,1.7
1631021240437,1.31
1631021240453,0.96
1631021240468,0.63
1631021240484,0.19
1631021240500,-0.48
1631021240515,-1.42
1631021240531,-2.58
1631021240546,-3.8
1631021240562,-4.9
1631021240578,-5.82
1631021240593,-6.62
1631021240609,-7.43
1631021240625,-8.39
1631021240640,-9.49
1631021240656,-10.53
1631021240671,-11.21
1631021240687,-11.22
1631021240703,-10.46
1631021240718,-8.99
1631021240734,-7.12
1631021240750,-5.14
1631021240765,-3.33
1631021240781,-1.8
1631021240796,-0.54
1631021240812,0.54
1631021240828,1.57
1631021240843,2.56
1631021240859,3.49
1631021240875,4.23
1631021240890,4.7
1631021240906,4.84
1631021240921,4.68
1631021240937,4.38
1631021240953,4.07
1631021240968,3.88
1631021240984,3.79
1631021241000,3.71
1631021241015,3.51
1631021241031,3.1
1631021241046,2.54
1631021241062,1.96
1631021241078,1.51
1631021241093,1.21
1631021241109,0.95
1631021241125,0.51
1631021241140,-0.26
1631021241156,-1.35
1631021241171,-2.58
1631021241187,-3.65
1631021241203,-4.36
1631021241218,-4.64
1631021241234,-4.65
1631021241250,-4.63
1631021241265,-4.79
1631021241281,-5.26
1631021241296,-6.06
1631021241312,-7.1
1631021241328,-8.23
1631021241343,-9.19
1631021241359,-9.71
1631021241375,-9.53
1631021241390,-8.51
1631021241406,-6.72
1631021241421,-4.43
1631021241437,-1.97
1631021241453,0.3
1631021241468,2.19
1631021241484,3.63
1631021241500,4.67
1631021241515,5.4
1631021241531,5.9
1631021241546,6.22
1631021241562,6.43
1631021241578,6.58
1631021241593,6.71
1631021241609,6.81
1631021241625,6.83
1631021241640,6.67
1631021241656,6.31
1631021241671,5.75
1631021241687,5.09
1631021241703,4.45
1631021241718,3.93
1631021241734,3.56
1631021241750,3.32
1631021241765,3.12
1631021241781,2.84
1631021241796,2.41
1631021241812,1.81
1631021241828,1.05
1631021241843,0.17
1631021241859,-0.75
1631021241875,-1.7
1631021241890,-2.67
1631021241906,-3.68
1631021241921,-4.71
1631021241937,-5.72
1631021241953,-6.65
1631021241968,-7.46
1631021241984,-8.14
1631021242000,-8.75
1631021242015,-9.31
1631021242031,-9.81
1631021242046,-10.14
1631021242062,-10.08
1631021242078,-9.42
1631021242093,-8.02
1631021242109,-5.92
1631021242125,-3.35
1631021242140,-0.65
1631021242156,1.79
1631021242171,3.73
1631021242187,5.07
1631021242203,5.91
1631021242218,6.44
1631021242234,6.77
1631021242250,6.97
1631021242265,7.0
1631021242281,6.82
1631021242296,6.42
1631021242312,5.9
1631021242328,5.41
1631021242343,5.04
1631021242359,4.82
1631021242375,4.7
1631021242390,4.59
1631021242406,4.41
1631021242421,4.16
1631021242437,3.88
1631021242453,3.58
1631021242468,3.24
1631021242484,2.74
1631021242500,1.99
1631021242515,0.93
1631021242531,-0.37
1631021242546,-1.76
1631021242562,-3.03
1631021242578,-4.04
1631021242593,-4.73
1631021242609,-5.15
1631021242625,-5.42
1631021242640,-5.67
1631021242656,-6.03
1631021242671,-6.57
1631021242687,-7.36
1631021242703,-8.4
1631021242718,-9.63
1631021242734,-10.9
1631021242750,-11.95
1631021242765,-12.5
1631021242781,-12.29
1631021242796,-11.2
1631021242812,-9.32
1631021242828,-6.88
1631021242843,-4.21
1631021242859,-1.63
1631021242875,0.64
1631021242890,2.49
1631021242906,3.92
1631021242921,4.97
1631021242937,5.69
1631021242953,6.16
1631021242968,6.43
1631021242984,6.58
1631021243000,6.64
1631021243015,6.65
1631021243031,6.6
1631021243046,6.47
1631021243062,6.21
1631021243078,5.81
1631021243093,5.32
1631021243109,4.79
1631021243125,4.31
1631021243140,3.9
1631021243156,3.59
1631021243171,3.31
1631021243187,3.0
1631021243203,2.56
1631021243218,1.95
1631021243234,1.14
1631021243250,0.17
1631021243265,-0.87
1631021243281,-1.86
1631021243296,-2.68
1631021243312,-3.25
1631021243328,-3.59
1631021243343,-3.82
1631021243359,-4.19
1631021243375,-4.94
1631021243390,-6.17
1631021243406,-7.78
1631021243421,-9.46
1631021243437,-10.8
1631021243453,-11.44
1631021243468,-11.19
1631021243484,-10.09
1631021243500,-8.34
1631021243515,-6.2
1631021243531,-3.9
1631021243546,-1.61
1631021243562,0.54
1631021243578,2.45
1631021243593,4.02
1631021243609,5.16
1631021243625,5.87
1631021243640,6.16
1631021243656,6.16
1631021243671,5.95
1631021243687,5.66
1631021243703,5.38
1631021243718,5.18
1631021243734,5.05
1631021243750,4.96
1631021243765,4.81
1631021243781,4.53
1631021243796,4.09
1631021243812,3.57
1631021243828,3.08
1631021243843,2.73
1631021243859,2.53
1631021243875,2.4
1631021243890,2.18
1631021243906,1.72
1631021243921,0.98
1631021243937,0.03
1631021243953,-0.97
1631021243968,-1.84
1631021243984,-2.48
1631021244000,-2.9
1631021244015,-3.24
1631021244031,-3.68
1631021244046,-4.42
1631021244062,-5.53
1631021244078,-6.9
1631021244093,-8.3
1631021244109,-9.41
1631021244125,-9.97
1631021244140,-9.83
1631021244156,-8.98
1631021244171,-7.49
1631021244187,-5.52
1631021244203,-3.22
1631021244218,-0.76
1631021244234,1.68
1631021244250,3.86
1631021244265,5.61
1631021244281,6.82
1631021244296,7.47
1631021244312,7.64
1631021244328,7.49
1631021244343,7.18
1631021244359,6.89
1631021244375,6.74
1631021244390,6.77
1631021244406,6.94
1631021244421,7.13
1631021244437,7.2
1631021244453,7.04
1631021244468,6.64
1631021244484,6.11
1631021244500,5.57
1631021244515,5.11
1631021244531,4.72
1631021244546,4.32
1631021244562,3.77
1631021244578,3.01
1631021244593,2.07
1631021244609,1.08
1631021244625,0.17
1631021244640,-0.56
1631021244656,-1.17
1631021244671,-1.79
1631021244687,-2.61
1631021244703,-3.76
1631021244718,-5.24
1631021244734,-6.95
1631021244750,-8.7
1631021244765,-10.25
1631021244781,-11.4
1631021244796,-12.0
1631021244812,-11.93
1631021244828,-11.17
1631021244843,-9.75
1631021244859,-7.8
1631021244875,-5.51
1631021244890,-3.11
1631021244906,-0.8
1631021244921,1.31
1631021244937,3.18
1631021244953,4.81
1631021244968,6.21
1631021244984,7.32
1631021245000,8.1
1631021245015,8.53
1631021245031,8.63
1631021245046,8.5
1631021245062,8.26
1631021245078,8.0
1631021245093,7.77
1631021245109,7.55
1631021245125,7.27
1631021245140,6.89
1631021245156,6.45
1631021245171,6.02
1631021245187,5.71
1631021245203,5.55
1631021245218,5.49
1631021245234,5.36
1631021245250,4.95
1631021245265,4.1
1631021245281,2.8
1631021245296,1.23
1631021245312,-0.34
1631021245328,-1.65
1631021245343,-2.6
1631021245359,-3.25
1631021245375,-3.8
1631021245390,-4.45
1631021245406,-5.3
1631021245421,-6.32
1631021245437,-7.43
1631021245453,-8.54
1631021245468,-9.57
1631021245484,-10.43
1631021245500,-11.02
1631021245515,-11.16
1631021245531,-10.67
1631021245546,-9.46
1631021245562,-7.58
1631021245578,-5.24
1631021245593,-2.75
1631021245609,-0.35
1631021245625,1.8
1631021245640,3.67
1631021245656,5.26
1631021245671,6.62
1631021245687,7.7
1631021245703,8.48
1631021245718,8.91
1631021245734,9.03
1631021245750,8.91
1631021245765,8.66
1631021245781,8.39
1631021245796,8.18
1631021245812,8.05
1631021245828,8.0
1631021245843,7.95
1631021245859,7.84
1631021245875,7.57
1631021245890,7.12
1631021245906,6.49
1631021245921,5.77
1631021245937,5.04
1631021245953,4.34
1631021245968,3.65
1631021245984,2.88
1631021246000,1.98
1631021246015,0.92
1631021246031,-0.23
1631021246046,-1.32
1631021246062,-2.24
1631021246078,-2.96
1631021246093,-3.53
1631021246109,-4.12
1631021246125,-4.86
1631021246140,-5.86
1631021246156,-7.09
1631021246171,-8.45
1631021246187,-9.75
1631021246203,-10.81
1631021246218,-11.45
1631021246234,-11.57
1631021246250,-11.11
1631021246265,-10.06
1631021246281,-8.45
1631021246296,-6.35
1631021246312,-3.9
1631021246328,-1.25
1631021246343,1.34
1631021246359,3.66
1631021246375,5.52
1631021246390,6.82
1631021246406,7.56
1631021246421,7.84
1631021246437,7.78
1631021246453,7.51
1631021246468,7.16
1631021246484,6.79
1631021246500,6.49
1631021246515,6.32
1631021246531,6.3
1631021246546,6.43
1631021246562,6.6
1631021246578,6.71
1631021246593,6.61
1631021246609,6.27
1631021246625,5.74
1631021246640,5.14
1631021246656,4.64
1631021246671,4.26
1631021246687,3.97
1631021246703,3.63
1631021246718,3.1
1631021246734,2.32
1631021246750,1.3
1631021246765,0.11
1631021246781,-1.16
1631021246796,-2.43
1631021246812,-3.63
1631021246828,-4.68
1631021246843,-5.52
1631021246859,-6.13
1631021246875,-6.62
1631021246890,-7.18
1631021246906,-8.05
1631021246921,-9.32
1631021246937,-10.84
1631021246953,-12.25
1631021246968,-13.08
1631021246984,-12.95
1631021247000,-11.74
1631021247015,-9.55
1631021247031,-6.72
1631021247046,-3.62
1631021247062,-0.59
1631021247078,2.11
1631021247093,4.3
1631021247109,5.88
1631021247125,6.85
1631021247140,7.33
1631021247156,7.47
1631021247171,7.47
1631021247187,7.47
1631021247203,7.56
1631021247218,7.74
1631021247234,7.96
1631021247250,8.15
1631021247265,8.25
1631021247281,8.2
1631021247296,8.0
1631021247312,7.7
1631021247328,7.36
1631021247343,7.06
1631021247359,6.86
1631021247375,6.72
1631021247390,6.55
1631021247406,6.25
1631021247421,5.75
1631021247437,5.05
1631021247453,4.22
1631021247468,3.34
1631021247484,2.45
1631021247500,1.52
1631021247515,0.51
1631021247531,-0.6
1631021247546,-1.77
1631021247562,-2.94
1631021247578,-3.99
1631021247593,-4.88
1631021247609,-5.62
1631021247625,-6.28
1631021247640,-6.96
1631021247656,-7.77
1631021247671,-8.76
1631021247687,-9.91
1631021247703,-11.14
1631021247718,-12.28
1631021247734,-13.13
1631021247750,-13.5
1631021247765,-13.24
1631021247781,-12.31
1631021247796,-10.76
1631021247812,-8.73
1631021247828,-6.39
1631021247843,-3.94
1631021247859,-1.5
1631021247875,0.76
1631021247890,2.75
1631021247906,4.39
1631021247921,5.64
1631021247937,6.55
1631021247953,7.22
1631021247968,7.74
1631021247984,8.19
1631021248000,8.59
1631021248015,8.88
1631021248031,8.98
1631021248046,8.85
1631021248062,8.52
1631021248078,8.12
1631021248093,7.78
1631021248109,7.63
1631021248125,7.65
1631021248140,7.71
1631021248156,7.62
1631021248171,7.25
1631021248187,6.56
1631021248203,5.67
1631021248218,4.78
1631021248234,4.04
1631021248250,3.49
1631021248265,3.06
1631021248281,2.63
1631021248296,2.09
1631021248312,1.4
1631021248328,0.59
1631021248343,-0.32
1631021248359,-1.28
1631021248375,-2.28
1631021248390,-3.31
1631021248406,-4.3
1631021248421,-5.16
1631021248437,-5.85
1631021248453,-6.41
1631021248468,-6.95
1631021248484,-7.63
1631021248500,-8.57
1631021248515,-9.8
1631021248531,-11.2
1631021248546,-12.52
1631021248562,-13.5
1631021248578,-13.85
1631021248593,-13.43
1631021248609,-12.24
1631021248625,-10.39
1631021248640,-8.12
1631021248656,-5.69
1631021248671,-3.35
1631021248687,-1.25
1631021248703,0.57
1631021248718,2.15
1631021248734,3.57
1631021248750,4.89
1631021248765,6.11
1631021248781,7.17
1631021248796,7.98
1631021248812,8.45
1631021248828,8.58
1631021248843,8.4
1631021248859,7.97
1631021248875,7.41
1631021248890,6.8
1631021248906,6.26
1631021248921,5.86
1631021248937,5.67
1631021248953,5.7
1631021248968,5.92
1631021248984,6.2
1631021249000,6.38
1631021249015,6.33
1631021249031,5.99
1631021249046,5.4
1631021249062,4.67
1631021249078,3.93
1631021249093,3.22
1631021249109,2.53
1631021249125,1.79
1631021249140,0.92
1631021249156,-0.1
1631021249171,-1.22
1631021249187,-2.36
1631021249203,-3.41
1631021249218,-4.31
1631021249234,-5.06
1631021249250,-5.7
1631021249265,-6.33
1631021249281,-7.01
1631021249296,-7.79
1631021249312,-8.65
1631021249328,-9.56
1631021249343,-10.42
1631021249359,-11.17
1631021249375,-11.72
1631021249390,-12.03
1631021249406,-12.03
1631021249421,-11.63
1631021249437,-10.74
1631021249453,-9.33
1631021249468,-7.42
1631021249484,-5.16
1631021249500,-2.73
1631021249515,-0.35
1631021249531,1.8
1631021249546,3.61
1631021249562,4.99
1631021249578,5.94
1631021249593,6.44
1631021249609,6.56
1631021249625,6.37
1631021249640,6.0
1631021249656,5.61
1631021249671,5.32
1631021249687,5.24
1631021249703,5.4
1631021249718,5.78
1631021249734,6.3
1631021249750,6.81
1631021249765,7.15
1631021249781,7.15
1631021249796,6.79
1631021249812,6.13
1631021249828,5.35
1631021249843,4.64
1631021249859,4.12
1631021249875,3.78
1631021249890,3.51
1631021249906,3.17
1631021249921,2.64
1631021249937,1.9
1631021249953,0.98
1631021249968,-0.01
1631021249984,-0.98
1631021250000,-1.89
1631021250015,-2.69
1631021250031,-3.39
1631021250046,-3.95
1631021250062,-4.36
1631021250078,-4.65
1631021250093,-4.91
1631021250109,-5.3
1631021250125,-5.99
1631021250140,-7.07
1631021250156,-8.54
1631021250171,-10.22
1631021250187,-11.81
1631021250203,-12.96
1631021250218,-13.4
1631021250234,-13.01
1631021250250,-11.83
1631021250265,-10.06
1631021250281,-7.96
1631021250296,-5.76
1631021250312,-3.62
1631021250328,-1.59
1631021250343,0.32
1631021250359,2.14
1631021250375,3.81
1631021250390,5.28
1631021250406,6.45
1631021250421,7.28
1631021250437,7.78
1631021250453,7.99
1631021250468,8.0
1631021250484,7.87
1631021250500,7.61
1631021250515,7.23
1631021250531,6.77
1631021250546,6.33
1631021250562,6.02
1631021250578,5.95
1631021250593,6.16
1631021250609,6.59
1631021250625,7.07
1631021250640,7.45
1631021250656,7.59
1631021250671,7.4
1631021250687,6.87
1631021250703,6.06
1631021250718,5.07
1631021250734,4.01
1631021250750,3.0
1631021250765,2.08
1631021250781,1.25
1631021250796,0.45
1631021250812,-0.39
1631021250828,-1.33
1631021250843,-2.37
1631021250859,-3.43
1631021250875,-4.45
1631021250890,-5.37
1631021250906,-6.13
1631021250921,-6.75
1631021250937,-7.26
1631021250953,-7.73
1631021250968,-8.3
1631021250984,-9.09
1631021251000,-10.2
1631021251015,-11.61
1631021251031,-13.17
1631021251046,-14.56
1631021251062,-15.41
1631021251078,-15.41
1631021251093,-14.39
1631021251109,-12.4
1631021251125,-9.71
1631021251140,-6.72
1631021251156,-3.82
1631021251171,-1.31
1631021251187,0.7
1631021251203,2.26
1631021251218,3.52
1631021251234,4.58
1631021251250,5.48
1631021251265,6.2
1631021251281,6.68
1631021251296,6.95
1631021251312,7.1
1631021251328,7.24
1631021251343,7.42
1631021251359,7.64
1631021251375,7.84
1631021251390,7.92
1631021251406,7.86
1631021251421,7.69
1631021251437,7.48
1631021251453,7.27
1631021251468,7.08
1631021251484,6.81
1631021251500,6.38
1631021251515,5.71
1631021251531,4.83
1631021251546,3.8
1631021251562,2.77
1631021251578,1.87
1631021251593,1.14
1631021251609,0.59
1631021251625,0.1
1631021251640,-0.45
1631021251656,-1.18
1631021251671,-2.11
1631021251687,-3.19
1631021251703,-4.36
1631021251718,-5.51
1631021251734,-6.6
1631021251750,-7.64
1631021251765,-8.66
1631021251781,-9.72
1631021251796,-10.83
1631021251812,-11.92
1631021251828,-12.81
1631021251843,-13.31
1631021251859,-13.26
1631021251875,-12.56
1631021251890,-11.27
1631021251906,-9.55
1631021251921,-7.59
1631021251937,-5.54
1631021251953,-3.53
1631021251968,-1.61
1631021251984,0.19
1631021252000,1.82
1631021252015,3.24
1631021252031,4.43
1631021252046,5.36
1631021252062,6.03
1631021252078,6.43
1631021252093,6.6
1631021252109,6.58
1631021252125,6.48
1631021252140,6.4
1631021252156,6.38
1631021252171,6.39
1631021252187,6.38
1631021252203,6.28
1631021252218,6.07
1631021252234,5.82
1631021252250,5.64
1631021252265,5.58
1631021252281,5.59
1631021252296,5.5
1631021252312,5.19
1631021252328,4.57
1631021252343,3.73
1631021252359,2.78
1631021252375,1.85
1631021252390,0.96
1631021252406,0.04
1631021252421,-1.0
1631021252437,-2.17
1631021252453,-3.4
1631021252468,-4.56
1631021252484,-5.53
1631021252500,-6.26
1631021252515,-6.85
1631021252531,-7.45
1631021252546,-8.19
1631021252562,-9.13
1631021252578,-10.21
1631021252593,-11.33
1631021252609,-12.28
1631021252625,-12.83
1631021252640,-12.75
1631021252656,-11.85
1631021252671,-10.07
1631021252687,-7.51
1631021252703,-4.47
1631021252718,-1.35
1631021252734,1.43
1631021252750,3.58
1631021252765,5.02
1631021252781,5.84
1631021252796,6.25
1631021252812,6.5
1631021252828,6.75
1631021252843,7.06
1631021252859,7.39
1631021252875,7.68
1631021252890,7.85
1631021252906,7.85
1631021252921,7.68
1631021252937,7.36
1631021252953,6.93
1631021252968,6.46
1631021252984,6.01
1631021253000,5.68
1631021253015,5.51
1631021253031,5.48
1631021253046,5.5
1631021253062,5.48
1631021253078,5.28
1631021253093,4.82
1631021253109,4.03
1631021253125,2.92
1631021253140,1.55
1631021253156,0.07
1631021253171,-1.37
1631021253187,-2.57
1631021253203,-3.42
1631021253218,-3.91
1631021253234,-4.15
1631021253250,-4.4
1631021253265,-4.9
1631021253281,-5.82
1631021253296,-7.22
1631021253312,-8.96
1631021253328,-10.75
1631021253343,-12.22
1631021253359,-13.02
1631021253375,-12.93
1631021253390,-11.92
1631021253406,-10.16
1631021253421,-7.97
1631021253437,-5.67
1631021253453,-3.48
1631021253468,-1.48
1631021253484,0.37
1631021253500,2.15
1631021253515,3.88
1631021253531,5.48
1631021253546,6.81
1631021253562,7.74
1631021253578,8.23
1631021253593,8.38
1631021253609,8.36
1631021253625,8.32
1631021253640,8.35
1631021253656,8.4
1631021253671,8.38
1631021253687,8.19
1631021253703,7.81
1631021253718,7.3
1631021253734,6.79
1631021253750,6.4
1631021253765,6.17
1631021253781,6.06
1631021253796,5.93
1631021253812,5.63
1631021253828,5.06
1631021253843,4.19
1631021253859,3.07
1631021253875,1.82
1631021253890,0.58
1631021253906,-0.56
1631021253921,-1.55
1631021253937,-2.42
1631021253953,-3.23
1631021253968,-4.03
1631021253984,-4.86
1631021254000,-5.74
1631021254015,-6.7
1631021254031,-7.77
1631021254046,-9.0
1631021254062,-10.38
1631021254078,-11.79
1631021254093,-13.01
1631021254109,-13.76
1631021254125,-13.76
1631021254140,-12.9
1631021254156,-11.19
1631021254171,-8.88
1631021254187,-6.27
1631021254203,-3.7
1631021254218,-1.36
1631021254234,0.66
1631021254250,2.4
1631021254265,3.95
1631021254281,5.39
1631021254296,6.7
1631021254312,7.84
1631021254328,8.69
1631021254343,9.2
1631021254359,9.35
1631021254375,9.23
1631021254390,8.92
1631021254406,8.54
1631021254421,8.16
1631021254437,7.81
1631021254453,7.52
1631021254468,7.28
1631021254484,7.1
1631021254500,6.95
1631021254515,6.76
1631021254531,6.44
1631021254546,5.93
1631021254562,5.24
1631021254578,4.46
1631021254593,3.7
1631021254609,3.03
1631021254625,2.43
1631021254640,1.81
1631021254656,1.09
1631021254671,0.26
1631021254687,-0.65
1631021254703,-1.54
1631021254718,-2.33
1631021254734,-3.06
1631021254750,-3.76
1631021254765,-4.55
1631021254781,-5.47
1631021254796,-6.53
1631021254812,-7.71
1631021254828,-8.99
1631021254843,-10.29
1631021254859,-11.5
1631021254875,-12.4
1631021254890,-12.78
1631021254906,-12.42
1631021254921,-11.25
1631021254937,-9.38
1631021254953,-7.06
1631021254968,-4.58
1631021254984,-2.18
1631021255000,-0.0
1631021255015,1.91
1631021255031,3.57
1631021255046,4.94
1631021255062,5.97
1631021255078,6.64
1631021255093,7.0
1631021255109,7.16
1631021255125,7.25
1631021255140,7.34
1631021255156,7.43
1631021255171,7.45
1631021255187,7.32
1631021255203,7.03
1631021255218,6.63
1631021255234,6.22
1631021255250,5.88
1631021255265,5.63
1631021255281,5.45
1631021255296,5.29
1631021255312,5.1
1631021255328,4.86
