timestamp,bvp
1630070094718,-1.46
1630070094734,-1.01
1630070094750,-0.77
1630070094765,-0.78
1630070094781,-0.99
1630070094796,-1.36
1630070094812,-1.81
1630070094828,-2.26
1630070094843,-2.6
1630070094859,-2.75
1630070094875,-2.65
1630070094890,-2.37
1630070094906,-2.08
1630070094921,-2.0
1630070094937,-2.32
1630070094953,-3.08
1630070094968,-4.13
1630070094984,-5.2
1630070095000,-6.03
1630070095015,-6.49
1630070095031,-6.63
1630070095046,-6.66
1630070095062,-6.8
1630070095078,-7.16
1630070095093,-7.74
1630070095109,-8.4
1630070095125,-8.95
1630070095140,-9.25
1630070095156,-9.16
1630070095171,-8.64
1630070095187,-7.65
1630070095203,-6.21
1630070095218,-4.34
1630070095234,-2.17
1630070095250,0.11
1630070095265,2.22
1630070095281,3.9
1630070095296,4.98
1630070095312,5.41
1630070095328,5.31
1630070095343,4.87
1630070095359,4.28
1630070095375,3.7
1630070095390,3.21
1630070095406,2.87
1630070095421,2.74
1630070095437,2.84
1630070095453,3.18
1630070095468,3.66
1630070095484,4.14
1630070095500,4.48
1630070095515,4.62
1630070095531,4.6
1630070095546,4.51
1630070095562,4.44
1630070095578,4.4
1630070095593,4.32
1630070095609,4.08
1630070095625,3.57
1630070095640,2.75
1630070095656,1.67
1630070095671,0.45
1630070095687,-0.75
1630070095703,-1.78
1630070095718,-2.59
1630070095734,-3.21
1630070095750,-3.77
1630070095765,-4.45
1630070095781,-5.43
1630070095796,-6.82
1630070095812,-8.58
1630070095828,-10.55
1630070095843,-12.42
1630070095859,-13.85
1630070095875,-14.54
1630070095890,-14.36
1630070095906,-13.38
1630070095921,-11.86
1630070095937,-10.16
1630070095953,-8.56
1630070095968,-7.14
1630070095984,-5.73
1630070096000,-4.03
1630070096015,-1.79
1630070096031,1.04
1630070096046,4.29
1630070096062,7.66
1630070096078,10.96
1630070096093,14.17
1630070096109,17.46
1630070096125,21.01
1630070096140,24.9
1630070096156,29.02
1630070096171,33.23
1630070096187,37.45
1630070096203,41.73
1630070096218,46.15
1630070096234,50.61
1630070096250,54.68
1630070096265,57.64
1630070096281,58.6
1630070096296,56.73
1630070096312,51.52
1630070096328,42.78
1630070096343,30.68
1630070096359,15.64
1630070096375,-1.62
1630070096390,-20.14
1630070096406,-38.67
1630070096421,-55.82
1630070096437,-70.18
1630070096453,-80.6
1630070096468,-86.39
1630070096484,-87.39
1630070096500,-83.99
1630070096515,-77.01
1630070096531,-67.53
1630070096546,-56.73
1630070096562,-45.69
1630070096578,-35.34
1630070096593,-26.34
1630070096609,-19.05
1630070096625,-13.51
1630070096640,-9.46
1630070096656,-6.49
1630070096671,-4.1
1630070096687,-1.93
1630070096703,0.2
1630070096718,2.26
1630070096734,4.09
1630070096750,5.54
1630070096765,6.54
1630070096781,7.13
1630070096796,7.39
1630070096812,7.44
1630070096828,7.32
1630070096843,7.04
1630070096859,6.54
1630070096875,5.8
1630070096890,4.83
1630070096906,3.72
1630070096921,2.61
1630070096937,1.65
1630070096953,0.98
1630070096968,0.61
1630070096984,0.48
1630070097000,0.45
1630070097015,0.34
1630070097031,0.05
1630070097046,-0.46
1630070097062,-1.13
1630070097078,-1.81
1630070097093,-2.39
1630070097109,-2.77
1630070097125,-2.89
1630070097140,-2.75
1630070097156,-2.41
1630070097171,-1.97
1630070097187,-1.62
1630070097203,-1.54
1630070097218,-1.92
1630070097234,-2.82
1630070097250,-4.16
1630070097265,-5.64
1630070097281,-6.86
1630070097296,-7.39
1630070097312,-6.94
1630070097328,-5.49
1630070097343,-3.27
1630070097359,-0.71
1630070097375,1.78
1630070097390,3.82
1630070097406,5.25
1630070097421,6.01
1630070097437,6.22
1630070097453,6.05
1630070097468,5.73
1630070097484,5.48
1630070097500,5.49
1630070097515,5.83
1630070097531,6.45
1630070097546,7.22
1630070097562,7.95
1630070097578,8.45
1630070097593,8.56
1630070097609,8.22
1630070097625,7.41
1630070097640,6.23
1630070097656,4.84
1630070097671,3.48
1630070097687,2.35
1630070097703,1.58
1630070097718,1.14
1630070097734,0.9
1630070097750,0.71
1630070097765,0.5
1630070097781,0.35
1630070097796,0.39
1630070097812,0.77
1630070097828,1.49
1630070097843,2.42
1630070097859,3.28
1630070097875,3.87
1630070097890,4.01
1630070097906,3.69
1630070097921,2.93
1630070097937,1.73
1630070097953,0.06
1630070097968,-2.09
1630070097984,-4.54
1630070098000,-6.92
1630070098015,-8.7
1630070098031,-9.37
1630070098046,-8.67
1630070098062,-6.69
1630070098078,-3.93
1630070098093,-0.98
1630070098109,1.63
1630070098125,3.61
1630070098140,5.0
1630070098156,5.94
1630070098171,6.58
1630070098187,6.98
1630070098203,7.09
1630070098218,6.85
1630070098234,6.33
1630070098250,5.68
1630070098265,5.14
1630070098281,4.91
1630070098296,5.09
1630070098312,5.63
1630070098328,6.39
1630070098343,7.21
1630070098359,7.96
1630070098375,8.56
1630070098390,9.02
1630070098406,9.31
1630070098421,9.41
1630070098437,9.3
1630070098453,8.94
1630070098468,8.33
1630070098484,7.52
1630070098500,6.57
1630070098515,5.55
1630070098531,4.49
1630070098546,3.42
1630070098562,2.34
1630070098578,1.21
1630070098593,-0.03
1630070098609,-1.47
1630070098625,-3.22
1630070098640,-5.34
1630070098656,-7.78
1630070098671,-10.33
1630070098687,-12.64
1630070098703,-14.3
1630070098718,-15.0
1630070098734,-14.64
1630070098750,-13.31
1630070098765,-11.31
1630070098781,-9.01
1630070098796,-6.7
1630070098812,-4.58
1630070098828,-2.74
1630070098843,-1.21
1630070098859,-0.02
1630070098875,0.8
1630070098890,1.25
1630070098906,1.37
1630070098921,1.28
1630070098937,1.09
1630070098953,0.92
1630070098968,0.78
1630070098984,0.7
1630070099000,0.61
1630070099015,0.5
1630070099031,0.34
1630070099046,0.15
1630070099062,-0.01
1630070099078,-0.06
1630070099093,0.03
1630070099109,0.29
1630070099125,0.64
1630070099140,0.97
1630070099156,1.16
1630070099171,1.14
1630070099187,0.91
1630070099203,0.56
1630070099218,0.14
1630070099234,-0.3
1630070099250,-0.84
1630070099265,-1.51
1630070099281,-2.3
1630070099296,-3.14
1630070099312,-3.93
1630070099328,-4.62
1630070099343,-5.22
1630070099359,-5.76
1630070099375,-6.19
1630070099390,-6.3
1630070099406,-5.83
1630070099421,-4.54
1630070099437,-2.42
1630070099453,0.33
1630070099468,3.28
1630070099484,5.99
1630070099500,8.13
1630070099515,9.53
1630070099531,10.15
1630070099546,10.05
1630070099562,9.3
1630070099578,8.04
1630070099593,6.44
1630070099609,4.76
1630070099625,3.29
1630070099640,2.23
1630070099656,1.64
1630070099671,1.38
1630070099687,1.2
1630070099703,0.83
1630070099718,0.2
1630070099734,-0.6
1630070099750,-1.26
1630070099765,-1.44
1630070099781,-0.88
1630070099796,0.4
1630070099812,2.11
1630070099828,3.69
1630070099843,4.56
1630070099859,4.3
1630070099875,2.88
1630070099890,0.73
1630070099906,-1.31
1630070099921,-2.24
1630070099937,-1.17
1630070099953,2.34
1630070099968,8.2
1630070099984,15.73
1630070100000,23.92
1630070100015,31.62
1630070100031,37.84
1630070100046,41.91
1630070100062,43.56
1630070100078,42.92
1630070100093,40.49
1630070100109,37.08
1630070100125,33.68
1630070100140,31.35
1630070100156,30.99
1630070100171,33.15
1630070100187,37.93
1630070100203,45.0
1630070100218,53.68
1630070100234,63.2
1630070100250,72.94
1630070100265,82.61
1630070100281,92.35
1630070100296,102.62
1630070100312,113.98
1630070100328,126.65
1630070100343,140.25
1630070100359,153.46
1630070100375,164.11
1630070100390,169.49
1630070100406,166.87
1630070100421,154.33
1630070100437,131.47
1630070100453,99.81
1630070100468,62.77
1630070100484,24.88
1630070100500,-9.39
1630070100515,-36.82
1630070100531,-56.26
1630070100546,-68.55
1630070100562,-75.81
1630070100578,-80.34
1630070100593,-83.76
1630070100609,-86.72
1630070100625,-89.2
1630070100640,-91.02
1630070100656,-92.28
1630070100671,-93.49
1630070100687,-95.25
1630070100703,-98.01
1630070100718,-101.77
1630070100734,-106.16
1630070100750,-110.59
1630070100765,-114.56
1630070100781,-117.68
1630070100796,-119.78
1630070100812,-120.78
1630070100828,-120.58
1630070100843,-119.06
1630070100859,-116.11
1630070100875,-111.64
1630070100890,-105.63
1630070100906,-98.0
1630070100921,-88.51
1630070100937,-76.78
1630070100953,-62.6
1630070100968,-46.33
1630070100984,-29.23
1630070101000,-13.39
1630070101015,-1.05
1630070101031,6.04
1630070101046,7.1
1630070101062,2.31
1630070101078,-7.7
1630070101093,-22.17
1630070101109,-40.18
1630070101125,-60.31
1630070101140,-80.28
1630070101156,-97.09
1630070101171,-107.65
1630070101187,-109.65
1630070101203,-102.28
1630070101218,-86.28
1630070101234,-63.56
1630070101250,-36.68
1630070101265,-8.47
1630070101281,18.27
1630070101296,41.03
1630070101312,58.06
1630070101328,69.03
1630070101343,75.09
1630070101359,78.56
1630070101375,81.89
1630070101390,86.57
1630070101406,92.35
1630070101421,97.38
1630070101437,98.95
1630070101453,94.79
1630070101468,84.22
1630070101484,68.63
1630070101500,51.11
1630070101515,35.36
1630070101531,24.26
1630070101546,18.81
1630070101562,18.04
1630070101578,19.52
1630070101593,20.37
1630070101609,18.23
1630070101625,11.83
1630070101640,1.41
1630070101656,-10.94
1630070101671,-21.12
1630070101687,-23.56
1630070101703,-12.83
1630070101718,14.08
1630070101734,55.68
1630070101750,105.69
1630070101765,154.84
1630070101781,194.3
1630070101796,219.02
1630070101812,229.16
1630070101828,228.94
1630070101843,223.85
1630070101859,217.73
1630070101875,211.6
1630070101890,204.31
1630070101906,194.24
1630070101921,180.83
1630070101937,164.81
1630070101953,147.45
1630070101968,129.69
1630070101984,111.66
1630070102000,93.13
1630070102015,74.34
1630070102031,56.64
1630070102046,42.38
1630070102062,34.32
1630070102078,34.58
1630070102093,43.59
1630070102109,59.62
1630070102125,78.95
1630070102140,96.68
1630070102156,107.96
1630070102171,109.32
1630070102187,99.48
1630070102203,79.53
1630070102218,52.19
1630070102234,20.51
1630070102250,-13.26
1630070102265,-48.2
1630070102281,-84.3
1630070102296,-121.48
1630070102312,-158.41
1630070102328,-192.08
1630070102343,-218.23
1630070102359,-232.67
1630070102375,-232.8
1630070102390,-218.55
1630070102406,-192.41
1630070102421,-158.42
1630070102437,-120.87
1630070102453,-83.38
1630070102468,-48.8
1630070102484,-19.82
1630070102500,0.41
1630070102515,8.3
1630070102531,1.02
1630070102546,-21.88
1630070102562,-57.29
1630070102578,-98.77
1630070102593,-138.27
1630070102609,-168.85
1630070102625,-186.94
1630070102640,-193.07
1630070102656,-190.91
1630070102671,-185.16
1630070102687,-179.44
1630070102703,-175.23
1630070102718,-171.88
1630070102734,-167.79
1630070102750,-161.73
1630070102765,-153.66
1630070102781,-144.55
1630070102796,-135.54
1630070102812,-126.67
1630070102828,-116.22
1630070102843,-101.24
1630070102859,-79.18
1630070102875,-49.65
1630070102890,-15.37
1630070102906,18.44
1630070102921,46.26
1630070102937,64.71
1630070102953,74.03
1630070102968,77.52
1630070102984,79.48
1630070103000,82.79
1630070103015,87.61
1630070103031,91.73
1630070103046,92.23
1630070103062,87.23
1630070103078,76.63
1630070103093,61.82
1630070103109,44.72
1630070103125,26.95
1630070103140,9.68
1630070103156,-6.17
1630070103171,-19.58
1630070103187,-29.46
1630070103203,-34.99
1630070103218,-36.08
1630070103234,-33.6
1630070103250,-29.2
1630070103265,-24.86
1630070103281,-22.21
1630070103296,-22.13
1630070103312,-24.59
1630070103328,-28.83
1630070103343,-33.71
1630070103359,-38.15
1630070103375,-41.39
1630070103390,-43.07
1630070103406,-43.17
1630070103421,-41.83
1630070103437,-39.34
1630070103453,-36.05
1630070103468,-32.38
1630070103484,-28.76
1630070103500,-25.53
1630070103515,-22.86
1630070103531,-20.67
1630070103546,-18.75
1630070103562,-16.92
1630070103578,-15.19
1630070103593,-13.77
1630070103609,-12.9
1630070103625,-12.7
1630070103640,-13.08
1630070103656,-13.74
1630070103671,-14.31
1630070103687,-14.54
1630070103703,-14.34
1630070103718,-13.85
1630070103734,-13.21
1630070103750,-12.58
1630070103765,-12.04
1630070103781,-11.6
1630070103796,-11.24
1630070103812,-10.94
1630070103828,-10.7
1630070103843,-10.47
1630070103859,-10.19
1630070103875,-9.78
1630070103890,-9.19
1630070103906,-8.45
1630070103921,-7.65
1630070103937,-6.98
1630070103953,-6.56
1630070103968,-6.47
1630070103984,-6.7
1630070104000,-7.13
1630070104015,-7.61
1630070104031,-8.01
1630070104046,-8.24
1630070104062,-8.29
1630070104078,-8.24
1630070104093,-8.11
1630070104109,-7.86
1630070104125,-7.34
1630070104140,-6.35
1630070104156,-4.77
1630070104171,-2.66
1630070104187,-0.28
1630070104203,2.02
1630070104218,3.88
1630070104234,5.12
1630070104250,5.73
1630070104265,5.82
1630070104281,5.56
1630070104296,5.06
1630070104312,4.39
1630070104328,3.55
1630070104343,2.63
1630070104359,1.7
1630070104375,0.87
1630070104390,0.22
1630070104406,-0.16
1630070104421,-0.25
1630070104437,-0.02
1630070104453,0.48
1630070104468,1.15
1630070104484,1.85
1630070104500,2.42
1630070104515,2.72
1630070104531,2.68
1630070104546,2.29
1630070104562,1.54
1630070104578,0.49
1630070104593,-0.83
1630070104609,-2.34
1630070104625,-3.95
1630070104640,-5.61
1630070104656,-7.26
1630070104671,-8.84
1630070104687,-10.26
1630070104703,-11.39
1630070104718,-12.05
1630070104734,-12.07
1630070104750,-11.3
1630070104765,-9.7
1630070104781,-7.3
1630070104796,-4.25
1630070104812,-0.8
1630070104828,2.72
1630070104843,5.95
1630070104859,8.56
1630070104875,10.46
1630070104890,11.74
1630070104906,12.66
1630070104921,13.41
1630070104937,14.0
1630070104953,14.24
1630070104968,13.87
1630070104984,12.79
1630070105000,11.16
1630070105015,9.39
1630070105031,7.94
1630070105046,7.09
1630070105062,6.86
1630070105078,7.03
1630070105093,7.37
1630070105109,7.64
1630070105125,7.78
1630070105140,7.78
1630070105156,7.64
1630070105171,7.29
1630070105187,6.68
1630070105203,5.8
1630070105218,4.69
1630070105234,3.43
1630070105250,2.09
1630070105265,0.65
1630070105281,-0.92
1630070105296,-2.69
1630070105312,-4.71
1630070105328,-6.98
1630070105343,-9.39
1630070105359,-11.73
1630070105375,-13.64
1630070105390,-14.69
1630070105406,-14.52
1630070105421,-12.96
1630070105437,-10.21
1630070105453,-6.74
1630070105468,-3.19
1630070105484,-0.08
1630070105500,2.31
1630070105515,4.05
1630070105531,5.38
1630070105546,6.52
1630070105562,7.57
1630070105578,8.44
1630070105593,9.01
1630070105609,9.14
1630070105625,8.85
1630070105640,8.23
1630070105656,7.5
1630070105671,6.85
1630070105687,6.44
1630070105703,6.35
1630070105718,6.56
1630070105734,6.96
1630070105750,7.4
1630070105765,7.71
1630070105781,7.78
1630070105796,7.57
1630070105812,7.07
1630070105828,6.32
1630070105843,5.4
1630070105859,4.37
1630070105875,3.35
1630070105890,2.46
1630070105906,1.71
1630070105921,1.03
1630070105937,0.2
1630070105953,-1.08
1630070105968,-2.98
1630070105984,-5.45
1630070106000,-8.11
1630070106015,-10.36
1630070106031,-11.53
1630070106046,-11.14
1630070106062,-9.1
1630070106078,-5.69
1630070106093,-1.53
1630070106109,2.64
1630070106125,6.18
1630070106140,8.71
1630070106156,10.17
1630070106171,10.72
1630070106187,10.62
1630070106203,10.13
1630070106218,9.46
1630070106234,8.72
1630070106250,7.97
1630070106265,7.23
1630070106281,6.5
1630070106296,5.77
1630070106312,4.98
1630070106328,4.1
1630070106343,3.1
1630070106359,2.03
1630070106375,0.98
1630070106390,0.01
1630070106406,-0.79
1630070106421,-1.41
1630070106437,-1.85
1630070106453,-2.15
1630070106468,-2.42
1630070106484,-2.75
1630070106500,-3.3
1630070106515,-4.14
1630070106531,-5.26
1630070106546,-6.59
1630070106562,-8.08
1630070106578,-9.68
1630070106593,-11.44
1630070106609,-13.36
1630070106625,-15.34
1630070106640,-17.08
1630070106656,-18.18
1630070106671,-18.24
1630070106687,-17.01
1630070106703,-14.52
1630070106718,-11.02
1630070106734,-6.94
1630070106750,-2.7
1630070106765,1.3
1630070106781,4.81
1630070106796,7.62
1630070106812,9.69
1630070106828,11.04
1630070106843,11.81
1630070106859,12.2
1630070106875,12.38
1630070106890,12.5
1630070106906,12.62
1630070106921,12.66
1630070106937,12.55
1630070106953,12.21
1630070106968,11.62
1630070106984,10.84
1630070107000,10.0
1630070107015,9.23
1630070107031,8.63
1630070107046,8.26
1630070107062,8.08
1630070107078,8.02
1630070107093,7.99
1630070107109,7.81
1630070107125,7.35
1630070107140,6.48
1630070107156,5.17
1630070107171,3.48
1630070107187,1.55
1630070107203,-0.51
1630070107218,-2.66
1630070107234,-4.88
1630070107250,-7.19
1630070107265,-9.41
1630070107281,-11.25
1630070107296,-12.3
1630070107312,-12.22
1630070107328,-10.87
1630070107343,-8.4
1630070107359,-5.21
1630070107375,-1.81
1630070107390,1.4
1630070107406,4.17
1630070107421,6.46
1630070107437,8.33
1630070107453,9.85
1630070107468,11.04
1630070107484,11.84
1630070107500,12.2
1630070107515,12.13
1630070107531,11.71
1630070107546,11.09
1630070107562,10.44
1630070107578,9.86
1630070107593,9.38
1630070107609,9.01
1630070107625,8.72
1630070107640,8.46
1630070107656,8.25
1630070107671,8.1
1630070107687,8.03
1630070107703,8.01
1630070107718,7.98
1630070107734,7.8
1630070107750,7.3
1630070107765,6.32
1630070107781,4.8
1630070107796,2.84
1630070107812,0.61
1630070107828,-1.62
1630070107843,-3.68
1630070107859,-5.58
1630070107875,-7.42
1630070107890,-9.37
1630070107906,-11.41
1630070107921,-13.35
1630070107937,-14.76
1630070107953,-15.2
1630070107968,-14.34
1630070107984,-12.14
1630070108000,-8.81
1630070108015,-4.76
1630070108031,-0.48
1630070108046,3.65
1630070108062,7.32
1630070108078,10.36
1630070108093,12.69
1630070108109,14.28
1630070108125,15.22
1630070108140,15.6
1630070108156,15.58
1630070108171,15.3
1630070108187,14.8
1630070108203,14.11
1630070108218,13.18
1630070108234,12.01
1630070108250,10.64
1630070108265,9.24
1630070108281,7.99
1630070108296,7.04
1630070108312,6.42
1630070108328,6.02
1630070108343,5.63
1630070108359,5.03
1630070108375,4.1
1630070108390,2.84
1630070108406,1.4
1630070108421,-0.02
1630070108437,-1.32
1630070108453,-2.5
1630070108468,-3.7
1630070108484,-5.15
1630070108500,-7.08
1630070108515,-9.56
1630070108531,-12.47
1630070108546,-15.43
1630070108562,-17.96
1630070108578,-19.54
1630070108593,-19.75
1630070108609,-18.49
1630070108625,-15.84
1630070108640,-12.19
1630070108656,-8.01
1630070108671,-3.79
1630070108687,0.09
1630070108703,3.4
1630070108718,6.06
1630070108734,8.09
1630070108750,9.51
1630070108765,10.36
1630070108781,10.61
1630070108796,10.29
1630070108812,9.45
1630070108828,8.21
1630070108843,6.77
1630070108859,5.36
1630070108875,4.18
1630070108890,3.31
1630070108906,2.73
1630070108921,2.32
1630070108937,1.93
1630070108953,1.46
1630070108968,0.9
1630070108984,0.33
1630070109000,-0.22
1630070109015,-0.81
1630070109031,-1.55
1630070109046,-2.55
1630070109062,-3.9
1630070109078,-5.53
1630070109093,-7.37
1630070109109,-9.32
1630070109125,-11.37
1630070109140,-13.48
1630070109156,-15.56
1630070109171,-17.32
1630070109187,-18.31
1630070109203,-18.08
1630070109218,-16.33
1630070109234,-13.14
1630070109250,-8.89
1630070109265,-4.2
1630070109281,0.39
1630070109296,4.51
1630070109312,8.07
1630070109328,11.15
1630070109343,13.83
1630070109359,16.1
1630070109375,17.86
1630070109390,18.99
1630070109406,19.45
1630070109421,19.34
1630070109437,18.87
1630070109453,18.27
1630070109468,17.68
1630070109484,17.15
1630070109500,16.7
1630070109515,16.34
1630070109531,16.12
1630070109546,16.07
1630070109562,16.1
1630070109578,16.07
1630070109593,15.78
1630070109609,15.08
1630070109625,13.91
1630070109640,12.32
1630070109656,10.43
1630070109671,8.32
1630070109687,6.06
1630070109703,3.68
1630070109718,1.16
1630070109734,-1.54
1630070109750,-4.5
1630070109765,-7.74
1630070109781,-11.19
1630070109796,-14.52
1630070109812,-17.19
1630070109828,-18.48
1630070109843,-17.8
1630070109859,-14.87
1630070109875,-9.92
1630070109890,-3.64
1630070109906,3.07
1630070109921,9.39
1630070109937,14.74
1630070109953,18.96
1630070109968,22.12
1630070109984,24.43
1630070110000,26.09
1630070110015,27.19
1630070110031,27.76
1630070110046,27.79
1630070110062,27.32
1630070110078,26.42
1630070110093,25.25
1630070110109,23.94
1630070110125,22.62
1630070110140,21.34
1630070110156,20.18
1630070110171,19.18
1630070110187,18.39
1630070110203,17.81
1630070110218,17.34
1630070110234,16.82
1630070110250,16.01
1630070110265,14.76
1630070110281,13.01
1630070110296,10.88
1630070110312,8.58
1630070110328,6.3
1630070110343,4.13
1630070110359,2.02
1630070110375,-0.22
1630070110390,-2.79
1630070110406,-5.86
1630070110421,-9.43
1630070110437,-13.21
1630070110453,-16.69
1630070110468,-19.2
1630070110484,-20.11
1630070110500,-19.1
1630070110515,-16.2
1630070110531,-11.83
1630070110546,-6.61
1630070110562,-1.16
1630070110578,4.11
1630070110593,8.95
1630070110609,13.22
1630070110625,16.77
1630070110640,19.43
1630070110656,21.04
1630070110671,21.63
1630070110687,21.35
1630070110703,20.52
1630070110718,19.45
1630070110734,18.33
1630070110750,17.2
1630070110765,15.95
1630070110781,14.49
1630070110796,12.81
1630070110812,11.01
1630070110828,9.31
1630070110843,7.91
1630070110859,6.93
1630070110875,6.33
1630070110890,5.89
1630070110906,5.32
1630070110921,4.32
1630070110937,2.69
1630070110953,0.41
1630070110968,-2.39
1630070110984,-5.43
1630070111000,-8.38
1630070111015,-10.92
1630070111031,-12.91
1630070111046,-14.37
1630070111062,-15.56
1630070111078,-16.85
1630070111093,-18.61
1630070111109,-20.96
1630070111125,-23.7
1630070111140,-26.28
1630070111156,-27.95
1630070111171,-28.05
1630070111187,-26.16
1630070111203,-22.33
1630070111218,-16.93
1630070111234,-10.58
1630070111250,-3.95
1630070111265,2.44
1630070111281,8.21
1630070111296,13.1
1630070111312,16.92
1630070111328,19.5
1630070111343,20.77
1630070111359,20.75
1630070111375,19.68
1630070111390,17.97
1630070111406,16.09
1630070111421,14.44
1630070111437,13.21
1630070111453,12.39
1630070111468,11.85
1630070111484,11.48
1630070111500,11.26
1630070111515,11.26
1630070111531,11.5
1630070111546,11.96
1630070111562,12.43
1630070111578,12.71
1630070111593,12.6
1630070111609,12.01
1630070111625,10.97
1630070111640,9.56
1630070111656,7.89
1630070111671,6.05
1630070111687,4.18
1630070111703,2.4
1630070111718,0.76
1630070111734,-0.78
1630070111750,-2.38
1630070111765,-4.25
1630070111781,-6.5
1630070111796,-8.96
1630070111812,-11.19
1630070111828,-12.57
1630070111843,-12.53
1630070111859,-10.75
1630070111875,-7.28
1630070111890,-2.46
1630070111906,3.15
1630070111921,8.99
1630070111937,14.59
1630070111953,19.58
1630070111968,23.73
1630070111984,26.89
1630070112000,28.98
1630070112015,29.99
1630070112031,29.95
1630070112046,28.99
1630070112062,27.26
1630070112078,24.99
1630070112093,22.42
1630070112109,19.8
1630070112125,17.33
1630070112140,15.08
1630070112156,13.1
1630070112171,11.34
1630070112187,9.8
1630070112203,8.45
1630070112218,7.29
1630070112234,6.24
1630070112250,5.17
1630070112265,3.9
1630070112281,2.28
1630070112296,0.29
1630070112312,-1.99
1630070112328,-4.39
1630070112343,-6.72
1630070112359,-8.88
1630070112375,-10.89
1630070112390,-12.83
1630070112406,-14.85
1630070112421,-17.14
1630070112437,-19.83
1630070112453,-23.02
1630070112468,-26.61
1630070112484,-30.29
1630070112500,-33.48
1630070112515,-35.45
1630070112531,-35.55
1630070112546,-33.39
1630070112562,-29.02
1630070112578,-22.95
1630070112593,-15.96
1630070112609,-8.85
1630070112625,-2.24
1630070112640,3.49
1630070112656,8.21
1630070112671,11.88
1630070112687,14.53
1630070112703,16.22
1630070112718,17.05
1630070112734,17.2
1630070112750,16.88
1630070112765,16.33
1630070112781,15.69
1630070112796,15.04
1630070112812,14.4
1630070112828,13.7
1630070112843,12.88
1630070112859,11.93
1630070112875,10.88
1630070112890,9.83
1630070112906,8.92
1630070112921,8.21
1630070112937,7.71
1630070112953,7.31
1630070112968,6.81
1630070112984,6.03
1630070113000,4.83
1630070113015,3.23
1630070113031,1.33
1630070113046,-0.71
1630070113062,-2.76
1630070113078,-4.75
1630070113093,-6.73
1630070113109,-8.76
1630070113125,-10.99
1630070113140,-13.52
1630070113156,-16.42
1630070113171,-19.66
1630070113187,-23.0
1630070113203,-25.98
1630070113218,-28.0
1630070113234,-28.44
1630070113250,-26.89
1630070113265,-23.27
1630070113281,-17.95
1630070113296,-11.62
1630070113312,-5.09
1630070113328,0.86
1630070113343,5.75
1630070113359,9.35
1630070113375,11.73
1630070113390,13.04
1630070113406,13.49
1630070113421,13.22
1630070113437,12.37
1630070113453,11.06
1630070113468,9.5
1630070113484,7.92
1630070113500,6.52
1630070113515,5.44
1630070113531,4.68
1630070113546,4.14
1630070113562,3.67
1630070113578,3.19
1630070113593,2.66
1630070113609,2.13
1630070113625,1.61
1630070113640,1.11
1630070113656,0.54
1630070113671,-0.26
1630070113687,-1.43
1630070113703,-3.01
1630070113718,-4.93
1630070113734,-6.98
1630070113750,-8.93
1630070113765,-10.63
1630070113781,-12.04
1630070113796,-13.32
1630070113812,-14.67
1630070113828,-16.33
1630070113843,-18.39
1630070113859,-20.83
1630070113875,-23.45
1630070113890,-25.9
1630070113906,-27.69
1630070113921,-28.31
1630070113937,-27.33
1630070113953,-24.56
1630070113968,-20.16
1630070113984,-14.59
1630070114000,-8.53
1630070114015,-2.62
1630070114031,2.68
1630070114046,7.16
1630070114062,10.74
1630070114078,13.42
1630070114093,15.18
1630070114109,16.04
1630070114125,16.12
1630070114140,15.65
1630070114156,14.96
1630070114171,14.31
1630070114187,13.84
1630070114203,13.53
1630070114218,13.28
1630070114234,13.03
1630070114250,12.78
1630070114265,12.64
1630070114281,12.66
1630070114296,12.81
1630070114312,12.92
1630070114328,12.72
1630070114343,11.97
1630070114359,10.53
1630070114375,8.43
1630070114390,5.87
1630070114406,3.13
1630070114421,0.45
1630070114437,-2.01
1630070114453,-4.24
1630070114468,-6.35
1630070114484,-8.56
1630070114500,-11.09
1630070114515,-14.08
1630070114531,-17.47
1630070114546,-20.95
1630070114562,-23.97
1630070114578,-25.89
1630070114593,-26.11
1630070114609,-24.3
1630070114625,-20.47
1630070114640,-15.05
1630070114656,-8.71
1630070114671,-2.2
1630070114687,3.81
1630070114703,8.91
1630070114718,12.87
1630070114734,15.66
1630070114750,17.32
1630070114765,17.97
1630070114781,17.73
1630070114796,16.85
1630070114812,15.63
1630070114828,14.38
1630070114843,13.37
1630070114859,12.67
1630070114875,12.2
1630070114890,11.78
1630070114906,11.22
1630070114921,10.47
1630070114937,9.6
1630070114953,8.76
1630070114968,8.04
1630070114984,7.43
1630070115000,6.77
1630070115015,5.88
1630070115031,4.62
1630070115046,2.9
1630070115062,0.73
1630070115078,-1.76
1630070115093,-4.39
1630070115109,-6.93
1630070115125,-9.19
1630070115140,-11.16
1630070115156,-12.99
1630070115171,-14.97
1630070115187,-17.36
1630070115203,-20.17
1630070115218,-23.13
1630070115234,-25.69
1630070115250,-27.16
1630070115265,-27.0
1630070115281,-24.91
1630070115296,-20.94
1630070115312,-15.44
1630070115328,-8.99
1630070115343,-2.28
1630070115359,4.02
1630070115375,9.35
1630070115390,13.37
1630070115406,16.02
1630070115421,17.45
1630070115437,17.94
1630070115453,17.77
1630070115468,17.14
1630070115484,16.2
1630070115500,15.04
1630070115515,13.75
1630070115531,12.43
1630070115546,11.17
1630070115562,9.98
1630070115578,8.83
1630070115593,7.65
1630070115609,6.41
1630070115625,5.12
1630070115640,3.9
1630070115656,2.82
1630070115671,1.93
1630070115687,1.14
1630070115703,0.29
1630070115718,-0.78
1630070115734,-2.17
1630070115750,-3.84
1630070115765,-5.67
1630070115781,-7.5
1630070115796,-9.23
1630070115812,-10.88
1630070115828,-12.53
1630070115843,-14.34
1630070115859,-16.48
1630070115875,-19.0
1630070115890,-21.76
1630070115906,-24.36
1630070115921,-26.23
1630070115937,-26.67
1630070115953,-25.18
1630070115968,-21.62
1630070115984,-16.31
1630070116000,-9.97
1630070116015,-3.43
1630070116031,2.56
1630070116046,7.54
1630070116062,11.36
1630070116078,14.08
1630070116093,15.78
1630070116109,16.58
1630070116125,16.55
1630070116140,15.78
1630070116156,14.43
1630070116171,12.78
1630070116187,11.1
1630070116203,9.62
1630070116218,8.42
1630070116234,7.44
1630070116250,6.48
1630070116265,5.33
1630070116281,3.9
1630070116296,2.26
1630070116312,0.61
1630070116328,-0.83
1630070116343,-1.98
1630070116359,-2.91
1630070116375,-3.86
1630070116390,-5.06
1630070116406,-6.61
1630070116421,-8.46
1630070116437,-10.45
1630070116453,-12.44
1630070116468,-14.42
1630070116484,-16.51
1630070116500,-18.89
1630070116515,-21.66
1630070116531,-24.72
1630070116546,-27.67
1630070116562,-29.95
1630070116578,-30.93
1630070116593,-30.1
1630070116609,-27.26
1630070116625,-22.59
1630070116640,-16.6
1630070116656,-10.02
1630070116671,-3.58
1630070116687,2.21
1630070116703,7.05
1630070116718,10.88
1630070116734,13.74
1630070116750,15.66
1630070116765,16.64
1630070116781,16.64
1630070116796,15.75
1630070116812,14.16
1630070116828,12.23
1630070116843,10.33
1630070116859,8.76
1630070116875,7.69
1630070116890,7.11
1630070116906,6.93
1630070116921,7.04
1630070116937,7.34
1630070116953,7.68
1630070116968,7.89
1630070116984,7.77
1630070117000,7.16
1630070117015,6.02
1630070117031,4.47
1630070117046,2.77
1630070117062,1.16
1630070117078,-0.19
1630070117093,-1.32
1630070117109,-2.43
1630070117125,-3.8
1630070117140,-5.64
1630070117156,-7.91
1630070117171,-10.33
1630070117187,-12.39
1630070117203,-13.5
1630070117218,-13.12
1630070117234,-10.96
1630070117250,-7.01
1630070117265,-1.54
1630070117281,4.91
1630070117296,11.77
1630070117312,18.44
1630070117328,24.45
1630070117343,29.44
1630070117359,33.18
1630070117375,35.55
1630070117390,36.62
1630070117406,36.62
1630070117421,35.87
1630070117437,34.74
1630070117453,33.53
1630070117468,32.43
1630070117484,31.48
1630070117500,30.68
1630070117515,30.04
1630070117531,29.58
1630070117546,29.35
1630070117562,29.32
1630070117578,29.41
1630070117593,29.52
1630070117609,29.58
1630070117625,29.55
1630070117640,29.37
1630070117656,28.79
1630070117671,27.36
1630070117687,24.47
1630070117703,19.63
1630070117718,12.68
1630070117734,3.9
1630070117750,-6.02
1630070117765,-16.26
1630070117781,-26.09
1630070117796,-35.02
1630070117812,-42.75
1630070117828,-48.92
1630070117843,-53.05
1630070117859,-54.57
1630070117875,-53.05
1630070117890,-48.41
1630070117906,-41.1
1630070117921,-32.03
1630070117937,-22.34
1630070117953,-13.07
1630070117968,-5.0
1630070117984,1.53
1630070118000,6.46
1630070118015,9.93
1630070118031,12.07
1630070118046,12.93
1630070118062,12.55
1630070118078,10.98
1630070118093,8.46
1630070118109,5.41
1630070118125,2.38
1630070118140,-0.17
1630070118156,-1.95
1630070118171,-2.98
1630070118187,-3.5
1630070118203,-3.81
1630070118218,-4.12
1630070118234,-4.57
1630070118250,-5.24
1630070118265,-6.2
1630070118281,-7.61
1630070118296,-9.58
1630070118312,-12.11
1630070118328,-15.03
1630070118343,-18.01
1630070118359,-20.68
1630070118375,-22.84
1630070118390,-24.52
1630070118406,-26.02
1630070118421,-27.8
1630070118437,-30.35
1630070118453,-34.0
1630070118468,-38.71
1630070118484,-44.06
1630070118500,-49.26
1630070118515,-53.29
1630070118531,-55.13
1630070118546,-54.07
1630070118562,-49.93
1630070118578,-43.08
1630070118593,-34.4
1630070118609,-25.03
1630070118625,-16.07
1630070118640,-8.37
1630070118656,-2.4
1630070118671,1.8
1630070118687,4.47
1630070118703,6.02
1630070118718,6.93
1630070118734,7.59
1630070118750,8.31
1630070118765,9.25
1630070118781,10.48
1630070118796,11.95
1630070118812,13.59
1630070118828,15.25
1630070118843,16.8
1630070118859,18.1
1630070118875,19.07
1630070118890,19.7
1630070118906,20.11
1630070118921,20.4
1630070118937,20.64
1630070118953,20.78
1630070118968,20.63
1630070118984,19.91
1630070119000,18.38
1630070119015,15.9
1630070119031,12.48
1630070119046,8.23
1630070119062,3.28
1630070119078,-2.24
1630070119093,-8.26
1630070119109,-14.63
1630070119125,-21.01
1630070119140,-26.86
1630070119156,-31.47
1630070119171,-34.1
1630070119187,-34.19
1630070119203,-31.53
1630070119218,-26.35
1630070119234,-19.26
1630070119250,-11.18
1630070119265,-3.07
1630070119281,4.22
1630070119296,10.12
1630070119312,14.37
1630070119328,17.04
1630070119343,18.41
1630070119359,18.84
1630070119375,18.69
1630070119390,18.23
1630070119406,17.65
1630070119421,17.07
1630070119437,16.54
1630070119453,16.03
1630070119468,15.42
1630070119484,14.58
1630070119500,13.35
1630070119515,11.74
1630070119531,9.9
1630070119546,8.14
1630070119562,6.81
1630070119578,6.14
1630070119593,6.07
1630070119609,6.3
1630070119625,6.29
1630070119640,5.51
1630070119656,3.59
1630070119671,0.46
1630070119687,-3.52
1630070119703,-7.67
1630070119718,-11.16
1630070119734,-13.21
1630070119750,-13.37
1630070119765,-11.58
1630070119781,-8.16
1630070119796,-3.59
1630070119812,1.64
1630070119828,7.21
1630070119843,12.85
1630070119859,18.3
1630070119875,23.18
1630070119890,26.98
1630070119906,29.25
1630070119921,29.7
1630070119937,28.36
1630070119953,25.55
1630070119968,21.69
1630070119984,17.12
1630070120000,12.14
1630070120015,6.95
1630070120031,1.85
1630070120046,-2.71
1630070120062,-6.24
1630070120078,-8.37
1630070120093,-9.05
1630070120109,-8.63
1630070120125,-7.68
1630070120140,-6.82
1630070120156,-6.42
1630070120171,-6.59
1630070120187,-7.14
1630070120203,-7.85
1630070120218,-8.52
1630070120234,-9.1
1630070120250,-9.67
1630070120265,-10.36
1630070120281,-11.36
1630070120296,-12.85
1630070120312,-14.96
1630070120328,-17.68
1630070120343,-20.72
1630070120359,-23.5
1630070120375,-25.24
1630070120390,-25.15
1630070120406,-22.71
1630070120421,-17.93
1630070120437,-11.3
1630070120453,-3.68
1630070120468,3.98
1630070120484,10.93
1630070120500,16.7
1630070120515,21.13
1630070120531,24.24
1630070120546,26.12
1630070120562,26.83
1630070120578,26.46
1630070120593,25.12
1630070120609,23.04
1630070120625,20.53
1630070120640,17.91
1630070120656,15.4
1630070120671,13.11
1630070120687,11.01
1630070120703,9.01
1630070120718,7.02
1630070120734,5.02
1630070120750,3.03
1630070120765,1.09
1630070120781,-0.79
1630070120796,-2.62
1630070120812,-4.44
1630070120828,-6.28
1630070120843,-8.22
1630070120859,-10.35
1630070120875,-12.82
1630070120890,-15.81
1630070120906,-19.41
1630070120921,-23.55
1630070120937,-27.86
1630070120953,-31.73
1630070120968,-34.37
1630070120984,-35.04
1630070121000,-33.32
1630070121015,-29.19
1630070121031,-23.07
1630070121046,-15.7
1630070121062,-7.91
1630070121078,-0.43
1630070121093,6.21
1630070121109,11.7
1630070121125,15.9
1630070121140,18.78
1630070121156,20.42
1630070121171,20.99
1630070121187,20.73
1630070121203,19.89
1630070121218,18.68
1630070121234,17.26
1630070121250,15.72
1630070121265,14.18
1630070121281,12.68
1630070121296,11.29
1630070121312,9.98
1630070121328,8.69
1630070121343,7.33
1630070121359,5.83
1630070121375,4.25
1630070121390,2.68
1630070121406,1.3
1630070121421,0.16
1630070121437,-0.79
1630070121453,-1.77
1630070121468,-3.04
1630070121484,-4.9
1630070121500,-7.51
1630070121515,-10.88
1630070121531,-14.84
1630070121546,-19.01
1630070121562,-22.85
1630070121578,-25.7
1630070121593,-26.89
1630070121609,-25.89
1630070121625,-22.47
1630070121640,-16.86
1630070121656,-9.71
1630070121671,-2.0
1630070121687,5.25
1630070121703,11.24
1630070121718,15.53
1630070121734,18.12
1630070121750,19.25
1630070121765,19.29
1630070121781,18.55
1630070121796,17.24
1630070121812,15.53
1630070121828,13.53
1630070121843,11.41
1630070121859,9.34
1630070121875,7.51
1630070121890,6.03
1630070121906,4.93
1630070121921,4.13
1630070121937,3.48
1630070121953,2.78
1630070121968,1.89
1630070121984,0.71
1630070122000,-0.76
1630070122015,-2.44
1630070122031,-4.2
1630070122046,-5.95
1630070122062,-7.65
1630070122078,-9.35
1630070122093,-11.15
1630070122109,-13.2
1630070122125,-15.54
1630070122140,-18.14
1630070122156,-20.76
1630070122171,-22.97
1630070122187,-24.15
1630070122203,-23.69
1630070122218,-21.1
1630070122234,-16.24
1630070122250,-9.43
1630070122265,-1.42
1630070122281,6.82
1630070122296,14.37
1630070122312,20.58
1630070122328,25.23
1630070122343,28.49
1630070122359,30.68
1630070122375,32.14
1630070122390,33.03
1630070122406,33.35
1630070122421,32.97
1630070122437,31.89
1630070122453,30.19
1630070122468,28.15
1630070122484,26.12
1630070122500,24.38
1630070122515,23.04
1630070122531,21.98
1630070122546,21.0
1630070122562,19.85
1630070122578,18.41
1630070122593,16.67
1630070122609,14.73
1630070122625,12.64
1630070122640,10.38
1630070122656,7.85
1630070122671,4.99
1630070122687,1.84
1630070122703,-1.45
1630070122718,-4.69
1630070122734,-7.82
1630070122750,-10.91
1630070122765,-14.12
1630070122781,-17.56
1630070122796,-21.04
1630070122812,-24.04
1630070122828,-25.84
1630070122843,-25.74
1630070122859,-23.38
1630070122875,-18.85
1630070122890,-12.71
1630070122906,-5.79
1630070122921,1.07
1630070122937,7.19
1630070122953,12.15
1630070122968,15.8
1630070122984,18.09
1630070123000,19.11
1630070123015,19.03
1630070123031,18.09
1630070123046,16.57
1630070123062,14.79
1630070123078,12.97
1630070123093,11.23
1630070123109,9.57
1630070123125,7.91
1630070123140,6.2
1630070123156,4.47
1630070123171,2.79
1630070123187,1.28
1630070123203,-0.01
1630070123218,-1.11
1630070123234,-2.19
1630070123250,-3.41
1630070123265,-4.91
1630070123281,-6.74
1630070123296,-8.81
1630070123312,-10.95
1630070123328,-12.98
1630070123343,-14.8
1630070123359,-16.38
1630070123375,-17.88
1630070123390,-19.55
1630070123406,-21.66
1630070123421,-24.41
1630070123437,-27.78
1630070123453,-31.44
1630070123468,-34.75
1630070123484,-36.91
1630070123500,-37.13
1630070123515,-34.9
1630070123531,-30.17
1630070123546,-23.36
1630070123562,-15.25
1630070123578,-6.76
1630070123593,1.28
1630070123609,8.32
1630070123625,14.09
1630070123640,18.58
1630070123656,21.89
1630070123671,24.11
1630070123687,25.33
1630070123703,25.61
1630070123718,25.09
1630070123734,23.93
1630070123750,22.41
1630070123765,20.79
1630070123781,19.24
1630070123796,17.85
1630070123812,16.57
1630070123828,15.31
1630070123843,14.0
1630070123859,12.67
1630070123875,11.38
1630070123890,10.25
1630070123906,9.26
1630070123921,8.29
1630070123937,7.09
1630070123953,5.39
1630070123968,3.03
1630070123984,0.05
1630070124000,-3.3
1630070124015,-6.66
1630070124031,-9.69
1630070124046,-12.23
1630070124062,-14.33
1630070124078,-16.24
1630070124093,-18.33
1630070124109,-20.87
1630070124125,-23.94
1630070124140,-27.32
1630070124156,-30.5
1630070124171,-32.76
1630070124187,-33.38
1630070124203,-31.83
1630070124218,-27.94
1630070124234,-21.99
1630070124250,-14.64
1630070124265,-6.73
1630070124281,0.88
1630070124296,7.54
1630070124312,12.89
1630070124328,16.84
1630070124343,19.51
1630070124359,21.07
1630070124375,21.66
1630070124390,21.39
1630070124406,20.35
1630070124421,18.65
1630070124437,16.52
1630070124453,14.24
1630070124468,12.1
1630070124484,10.3
1630070124500,8.89
1630070124515,7.79
1630070124531,6.91
1630070124546,6.18
1630070124562,5.62
1630070124578,5.28
1630070124593,5.11
1630070124609,4.91
1630070124625,4.39
1630070124640,3.24
1630070124656,1.33
1630070124671,-1.23
1630070124687,-4.13
1630070124703,-6.97
1630070124718,-9.45
1630070124734,-11.49
1630070124750,-13.26
1630070124765,-15.0
1630070124781,-17.04
1630070124796,-19.6
1630070124812,-22.73
1630070124828,-26.25
1630070124843,-29.75
1630070124859,-32.58
1630070124875,-34.04
1630070124890,-33.52
1630070124906,-30.71
1630070124921,-25.74
1630070124937,-19.2
1630070124953,-11.94
1630070124968,-4.89
1630070124984,1.2
1630070125000,5.89
1630070125015,9.05
1630070125031,10.78
1630070125046,11.25
1630070125062,10.7
1630070125078,9.33
1630070125093,7.44
1630070125109,5.33
1630070125125,3.31
1630070125140,1.64
1630070125156,0.42
1630070125171,-0.34
1630070125187,-0.72
1630070125203,-0.81
1630070125218,-0.71
1630070125234,-0.51
1630070125250,-0.35
1630070125265,-0.38
1630070125281,-0.72
1630070125296,-1.4
1630070125312,-2.32
1630070125328,-3.34
1630070125343,-4.31
1630070125359,-5.21
1630070125375,-6.07
1630070125390,-7.0
1630070125406,-8.08
1630070125421,-9.37
1630070125437,-10.94
1630070125453,-12.88
1630070125468,-15.23
1630070125484,-17.94
1630070125500,-20.65
1630070125515,-22.76
1630070125531,-23.5
1630070125546,-22.21
1630070125562,-18.59
1630070125578,-12.84
1630070125593,-5.68
1630070125609,1.97
1630070125625,9.22
1630070125640,15.46
1630070125656,20.42
1630070125671,24.11
1630070125687,26.68
1630070125703,28.26
1630070125718,28.92
1630070125734,28.73
1630070125750,27.76
1630070125765,26.17
1630070125781,24.15
1630070125796,21.89
1630070125812,19.62
1630070125828,17.47
1630070125843,15.54
1630070125859,13.88
1630070125875,12.49
1630070125890,11.3
1630070125906,10.26
1630070125921,9.25
1630070125937,8.14
1630070125953,6.76
1630070125968,4.96
1630070125984,2.62
1630070126000,-0.26
1630070126015,-3.58
1630070126031,-7.12
1630070126046,-10.59
1630070126062,-13.72
1630070126078,-16.35
1630070126093,-18.5
1630070126109,-20.37
1630070126125,-22.27
1630070126140,-24.44
1630070126156,-26.87
1630070126171,-29.24
1630070126187,-30.92
1630070126203,-31.19
1630070126218,-29.48
1630070126234,-25.63
1630070126250,-19.88
1630070126265,-12.86
1630070126281,-5.32
1630070126296,2.06
1630070126312,8.76
1630070126328,14.46
1630070126343,18.93
1630070126359,22.05
1630070126375,23.75
1630070126390,24.11
1630070126406,23.38
1630070126421,21.94
1630070126437,20.21
1630070126453,18.5
1630070126468,16.96
1630070126484,15.57
1630070126500,14.24
1630070126515,12.91
1630070126531,11.58
1630070126546,10.31
1630070126562,9.17
1630070126578,8.18
1630070126593,7.29
1630070126609,6.37
1630070126625,5.27
1630070126640,3.87
1630070126656,2.09
1630070126671,-0.05
1630070126687,-2.43
1630070126703,-4.91
1630070126718,-7.32
1630070126734,-9.53
1630070126750,-11.54
1630070126765,-13.45
1630070126781,-15.45
1630070126796,-17.72
1630070126812,-20.38
1630070126828,-23.29
1630070126843,-26.1
1630070126859,-28.24
1630070126875,-29.03
1630070126890,-27.93
1630070126906,-24.7
1630070126921,-19.55
1630070126937,-13.01
1630070126953,-5.82
1630070126968,1.32
1630070126984,7.88
1630070127000,13.51
1630070127015,18.06
1630070127031,21.4
1630070127046,23.48
1630070127062,24.32
1630070127078,24.02
1630070127093,22.83
1630070127109,21.1
1630070127125,19.15
1630070127140,17.29
1630070127156,15.67
1630070127171,14.36
1630070127187,13.31
1630070127203,12.38
1630070127218,11.42
1630070127234,10.29
1630070127250,8.97
1630070127265,7.48
1630070127281,5.95
1630070127296,4.45
1630070127312,2.99
1630070127328,1.51
1630070127343,-0.08
1630070127359,-1.85
1630070127375,-3.78
1630070127390,-5.77
1630070127406,-7.72
1630070127421,-9.62
1630070127437,-11.53
1630070127453,-13.67
1630070127468,-16.28
1630070127484,-19.53
1630070127500,-23.4
1630070127515,-27.59
1630070127531,-31.46
1630070127546,-34.23
1630070127562,-35.13
1630070127578,-33.66
1630070127593,-29.75
1630070127609,-23.84
1630070127625,-16.71
1630070127640,-9.28
1630070127656,-2.38
1630070127671,3.39
1630070127687,7.75
1630070127703,10.62
1630070127718,12.07
1630070127734,12.22
1630070127750,11.2
1630070127765,9.21
1630070127781,6.49
1630070127796,3.42
1630070127812,0.35
1630070127828,-2.36
1630070127843,-4.48
1630070127859,-5.93
1630070127875,-6.79
1630070127890,-7.21
1630070127906,-7.38
1630070127921,-7.44
1630070127937,-7.46
1630070127953,-7.46
1630070127968,-7.46
1630070127984,-7.5
1630070128000,-7.67
1630070128015,-8.08
1630070128031,-8.79
1630070128046,-9.77
1630070128062,-10.94
1630070128078,-12.23
1630070128093,-13.6
1630070128109,-15.1
1630070128125,-16.81
1630070128140,-18.77
1630070128156,-20.88
1630070128171,-22.84
1630070128187,-24.13
1630070128203,-24.19
1630070128218,-22.48
1630070128234,-18.72
1630070128250,-12.98
1630070128265,-5.69
1630070128281,2.42
1630070128296,10.47
1630070128312,17.64
1630070128328,23.35
1630070128343,27.36
1630070128359,29.71
1630070128375,30.64
1630070128390,30.44
1630070128406,29.39
1630070128421,27.7
1630070128437,25.51
1630070128453,23.0
1630070128468,20.37
1630070128484,17.88
1630070128500,15.74
1630070128515,14.08
1630070128531,12.89
1630070128546,12.05
1630070128562,11.33
1630070128578,10.54
1630070128593,9.55
1630070128609,8.32
1630070128625,6.83
1630070128640,5.08
1630070128656,3.0
1630070128671,0.57
1630070128687,-2.17
1630070128703,-5.07
1630070128718,-7.96
1630070128734,-10.71
1630070128750,-13.33
1630070128765,-16.04
1630070128781,-19.05
1630070128796,-22.46
1630070128812,-26.03
1630070128828,-29.1
1630070128843,-30.79
1630070128859,-30.26
1630070128875,-27.0
1630070128890,-21.09
1630070128906,-13.18
1630070128921,-4.29
1630070128937,4.47
1630070128953,12.22
1630070128968,18.41
1630070128984,22.85
1630070129000,25.67
1630070129015,27.1
1630070129031,27.46
1630070129046,27.03
1630070129062,26.08
1630070129078,24.81
1630070129093,23.34
1630070129109,21.73
1630070129125,19.99
1630070129140,18.16
1630070129156,16.29
1630070129171,14.53
1630070129187,13.02
1630070129203,11.83
1630070129218,10.89
1630070129234,10.0
1630070129250,8.92
1630070129265,7.41
1630070129281,5.36
1630070129296,2.83
1630070129312,-0.07
1630070129328,-3.17
1630070129343,-6.37
1630070129359,-9.6
1630070129375,-12.86
1630070129390,-16.15
1630070129406,-19.57
1630070129421,-23.2
1630070129437,-27.1
1630070129453,-31.07
1630070129468,-34.72
1630070129484,-37.34
1630070129500,-38.19
1630070129515,-36.68
1630070129531,-32.62
1630070129546,-26.3
1630070129562,-18.4
1630070129578,-9.78
1630070129593,-1.31
1630070129609,6.32
1630070129625,12.65
1630070129640,17.41
1630070129656,20.54
1630070129671,22.17
1630070129687,22.54
1630070129703,21.96
1630070129718,20.7
1630070129734,18.97
1630070129750,16.91
1630070129765,14.67
1630070129781,12.49
1630070129796,10.61
1630070129812,9.23
1630070129828,8.39
1630070129843,7.92
1630070129859,7.5
1630070129875,6.79
1630070129890,5.57
1630070129906,3.8
1630070129921,1.6
1630070129937,-0.85
1630070129953,-3.38
1630070129968,-5.88
1630070129984,-8.26
1630070130000,-10.5
1630070130015,-12.62
1630070130031,-14.72
1630070130046,-16.98
1630070130062,-19.6
1630070130078,-22.74
1630070130093,-26.39
1630070130109,-30.23
1630070130125,-33.64
1630070130140,-35.73
1630070130156,-35.64
1630070130171,-32.73
1630070130187,-26.89
1630070130203,-18.59
1630070130218,-8.83
1630070130234,1.15
1630070130250,10.17
1630070130265,17.37
1630070130281,22.34
1630070130296,25.07
1630070130312,25.85
1630070130328,25.1
1630070130343,23.26
1630070130359,20.76
1630070130375,17.97
1630070130390,15.2
1630070130406,12.68
1630070130421,10.57
1630070130437,8.92
1630070130453,7.7
1630070130468,6.79
1630070130484,6.02
1630070130500,5.2
1630070130515,4.15
1630070130531,2.76
1630070130546,1.0
1630070130562,-1.07
1630070130578,-3.3
1630070130593,-5.51
1630070130609,-7.52
1630070130625,-9.25
1630070130640,-10.73
1630070130656,-12.11
1630070130671,-13.62
1630070130687,-15.51
1630070130703,-17.96
1630070130718,-20.89
1630070130734,-23.96
1630070130750,-26.5
1630070130765,-27.72
1630070130781,-26.88
1630070130796,-23.5
1630070130812,-17.58
1630070130828,-9.53
1630070130843,-0.2
1630070130859,9.4
1630070130875,18.26
1630070130890,25.57
1630070130906,30.91
1630070130921,34.18
1630070130937,35.62
1630070130953,35.65
1630070130968,34.71
1630070130984,33.15
1630070131000,31.17
1630070131015,28.88
1630070131031,26.41
1630070131046,23.93
1630070131062,21.67
1630070131078,19.82
1630070131093,18.43
1630070131109,17.42
1630070131125,16.55
1630070131140,15.52
1630070131156,14.12
1630070131171,12.2
1630070131187,9.8
1630070131203,6.98
1630070131218,3.89
1630070131234,0.63
1630070131250,-2.71
1630070131265,-6.1
1630070131281,-9.51
1630070131296,-12.94
1630070131312,-16.44
1630070131328,-20.07
1630070131343,-23.95
1630070131359,-28.07
1630070131375,-32.24
1630070131390,-35.98
1630070131406,-38.54
1630070131421,-39.06
1630070131437,-36.85
1630070131453,-31.67
1630070131468,-23.86
1630070131484,-14.26
1630070131500,-4.02
1630070131515,5.74
1630070131531,14.17
1630070131546,20.86
1630070131562,25.75
1630070131578,29.08
1630070131593,31.1
1630070131609,32.03
1630070131625,32.0
1630070131640,31.11
1630070131656,29.52
1630070131671,27.45
1630070131687,25.19
1630070131703,23.0
1630070131718,21.01
1630070131734,19.23
1630070131750,17.61
1630070131765,16.1
1630070131781,14.66
1630070131796,13.3
1630070131812,11.98
1630070131828,10.58
1630070131843,8.89
1630070131859,6.75
1630070131875,4.11
1630070131890,1.08
1630070131906,-2.1
1630070131921,-5.18
1630070131937,-7.98
1630070131953,-10.5
1630070131968,-12.94
1630070131984,-15.63
1630070132000,-18.89
1630070132015,-22.87
1630070132031,-27.35
1630070132046,-31.72
1630070132062,-35.09
1630070132078,-36.46
1630070132093,-35.13
1630070132109,-30.86
1630070132125,-24.03
1630070132140,-15.43
1630070132156,-6.13
1630070132171,2.9
1630070132187,10.94
1630070132203,17.62
1630070132218,22.82
1630070132234,26.56
1630070132250,28.94
1630070132265,30.02
1630070132281,29.92
1630070132296,28.82
1630070132312,27.01
1630070132328,24.85
1630070132343,22.62
1630070132359,20.51
1630070132375,18.53
1630070132390,16.55
1630070132406,14.48
1630070132421,12.33
1630070132437,10.28
1630070132453,8.58
1630070132468,7.34
1630070132484,6.52
1630070132500,5.81
1630070132515,4.83
1630070132531,3.26
1630070132546,0.97
1630070132562,-1.89
1630070132578,-5.05
1630070132593,-8.16
1630070132609,-10.96
1630070132625,-13.33
1630070132640,-15.29
1630070132656,-17.08
1630070132671,-19.03
1630070132687,-21.51
1630070132703,-24.79
1630070132718,-28.8
1630070132734,-33.11
1630070132750,-36.87
1630070132765,-39.09
1630070132781,-38.83
1630070132796,-35.64
1630070132812,-29.61
1630070132828,-21.43
1630070132843,-12.09
1630070132859,-2.65
1630070132875,6.03
1630070132890,13.4
1630070132906,19.16
1630070132921,23.19
1630070132937,25.49
1630070132953,26.19
1630070132968,25.51
1630070132984,23.82
1630070133000,21.53
1630070133015,19.01
1630070133031,16.43
1630070133046,13.85
1630070133062,11.24
1630070133078,8.57
1630070133093,5.92
1630070133109,3.48
1630070133125,1.42
1630070133140,-0.19
1630070133156,-1.45
1630070133171,-2.58
1630070133187,-3.87
1630070133203,-5.55
1630070133218,-7.7
1630070133234,-10.23
1630070133250,-12.94
1630070133265,-15.5
1630070133281,-17.66
1630070133296,-19.23
1630070133312,-20.25
1630070133328,-20.94
1630070133343,-21.74
1630070133359,-23.1
1630070133375,-25.26
1630070133390,-28.1
1630070133406,-31.05
1630070133421,-33.21
1630070133437,-33.62
1630070133453,-31.59
1630070133468,-26.88
1630070133484,-19.86
1630070133500,-11.28
1630070133515,-2.1
1630070133531,6.75
1630070133546,14.63
1630070133562,21.14
1630070133578,26.14
1630070133593,29.62
1630070133609,31.64
1630070133625,32.26
1630070133640,31.62
1630070133656,30.0
1630070133671,27.78
1630070133687,25.37
1630070133703,23.13
1630070133718,21.27
1630070133734,19.81
1630070133750,18.68
1630070133765,17.76
1630070133781,16.98
1630070133796,16.3
1630070133812,15.71
1630070133828,15.07
1630070133843,14.2
1630070133859,12.89
1630070133875,10.97
1630070133890,8.42
1630070133906,5.4
1630070133921,2.16
1630070133937,-0.97
1630070133953,-3.76
1630070133968,-6.14
1630070133984,-8.22
1630070134000,-10.31
1630070134015,-12.78
1630070134031,-16.03
1630070134046,-20.26
1630070134062,-25.34
1630070134078,-30.72
1630070134093,-35.44
1630070134109,-38.42
1630070134125,-38.67
1630070134140,-35.73
1630070134156,-29.76
1630070134171,-21.56
1630070134187,-12.26
1630070134203,-3.04
1630070134218,5.22
1630070134234,12.06
1630070134250,17.35
1630070134265,21.24
1630070134281,23.89
1630070134296,25.47
1630070134312,26.12
1630070134328,25.96
1630070134343,25.17
1630070134359,23.91
1630070134375,22.36
1630070134390,20.67
1630070134406,18.93
1630070134421,17.18
1630070134437,15.44
1630070134453,13.7
1630070134468,12.04
1630070134484,10.53
1630070134500,9.28
1630070134515,8.32
1630070134531,7.57
1630070134546,6.8
1630070134562,5.71
1630070134578,4.03
1630070134593,1.61
1630070134609,-1.44
1630070134625,-4.84
1630070134640,-8.16
1630070134656,-11.06
1630070134671,-13.36
1630070134687,-15.11
1630070134703,-16.6
1630070134718,-18.24
1630070134734,-20.4
1630070134750,-23.28
1630070134765,-26.79
1630070134781,-30.4
1630070134796,-33.33
1630070134812,-34.66
1630070134828,-33.64
1630070134843,-29.92
1630070134859,-23.64
1630070134875,-15.46
1630070134890,-6.33
1630070134906,2.73
1630070134921,10.88
1630070134937,17.62
1630070134953,22.79
1630070134968,26.45
1630070134984,28.75
1630070135000,29.82
1630070135015,29.75
1630070135031,28.65
1630070135046,26.74
1630070135062,24.39
1630070135078,22.03
1630070135093,20.03
1630070135109,18.54
1630070135125,17.4
1630070135140,16.3
1630070135156,14.95
1630070135171,13.19
1630070135187,11.15
1630070135203,9.07
1630070135218,7.18
1630070135234,5.57
1630070135250,4.14
1630070135265,2.63
1630070135281,0.83
1630070135296,-1.41
1630070135312,-4.05
1630070135328,-6.89
1630070135343,-9.65
1630070135359,-12.06
1630070135375,-13.98
1630070135390,-15.46
1630070135406,-16.69
1630070135421,-17.96
1630070135437,-19.55
1630070135453,-21.68
1630070135468,-24.4
1630070135484,-27.57
1630070135500,-30.85
1630070135515,-33.65
1630070135531,-35.3
1630070135546,-35.09
1630070135562,-32.61
1630070135578,-27.79
1630070135593,-21.03
1630070135609,-13.07
1630070135625,-4.8
1630070135640,3.02
1630070135656,9.82
1630070135671,15.3
1630070135687,19.34
1630070135703,21.93
1630070135718,23.09
1630070135734,22.94
1630070135750,21.67
1630070135765,19.56
1630070135781,16.96
1630070135796,14.26
1630070135812,11.73
1630070135828,9.55
1630070135843,7.72
1630070135859,6.09
1630070135875,4.5
1630070135890,2.83
1630070135906,1.12
1630070135921,-0.44
1630070135937,-1.73
1630070135953,-2.73
1630070135968,-3.66
1630070135984,-4.85
1630070136000,-6.53
1630070136015,-8.75
1630070136031,-11.31
1630070136046,-13.82
1630070136062,-15.95
1630070136078,-17.53
1630070136093,-18.58
1630070136109,-19.28
1630070136125,-19.89
1630070136140,-20.71
1630070136156,-22.0
1630070136171,-23.94
1630070136187,-26.52
1630070136203,-29.36
1630070136218,-31.72
1630070136234,-32.65
1630070136250,-31.23
1630070136265,-27.0
1630070136281,-20.15
1630070136296,-11.49
1630070136312,-2.17
1630070136328,6.73
1630070136343,14.42
1630070136359,20.54
1630070136375,25.05
1630070136390,28.04
1630070136406,29.59
1630070136421,29.77
1630070136437,28.73
1630070136453,26.77
1630070136468,24.33
1630070136484,21.89
1630070136500,19.8
1630070136515,18.19
1630070136531,16.95
1630070136546,15.84
1630070136562,14.68
1630070136578,13.4
1630070136593,12.12
1630070136609,11.03
1630070136625,10.24
1630070136640,9.67
1630070136656,9.06
1630070136671,8.05
1630070136687,6.33
1630070136703,3.83
1630070136718,0.7
1630070136734,-2.76
1630070136750,-6.2
1630070136765,-9.4
1630070136781,-12.29
1630070136796,-14.98
1630070136812,-17.66
1630070136828,-20.52
1630070136843,-23.75
1630070136859,-27.38
1630070136875,-31.26
1630070136890,-34.97
1630070136906,-37.83
1630070136921,-39.06
1630070136937,-37.93
1630070136953,-34.09
1630070136968,-27.66
1630070136984,-19.27
1630070137000,-9.86
1630070137015,-0.48
1630070137031,8.01
1630070137046,15.05
1630070137062,20.42
1630070137078,24.16
1630070137093,26.46
1630070137109,27.53
1630070137125,27.56
1630070137140,26.75
1630070137156,25.32
1630070137171,23.53
1630070137187,21.65
1630070137203,19.92
1630070137218,18.46
1630070137234,17.28
1630070137250,16.32
1630070137265,15.5
1630070137281,14.78
1630070137296,14.17
1630070137312,13.64
1630070137328,13.13
1630070137343,12.43
1630070137359,11.3
1630070137375,9.57
1630070137390,7.16
1630070137406,4.2
1630070137421,0.93
1630070137437,-2.32
1630070137453,-5.3
1630070137468,-7.91
1630070137484,-10.29
1630070137500,-12.77
1630070137515,-15.73
1630070137531,-19.47
1630070137546,-23.9
1630070137562,-28.52
1630070137578,-32.42
1630070137593,-34.53
1630070137609,-33.98
1630070137625,-30.39
1630070137640,-24.01
1630070137656,-15.65
1630070137671,-6.36
1630070137687,2.79
1630070137703,10.98
1630070137718,17.68
1630070137734,22.64
1630070137750,25.82
1630070137765,27.36
1630070137781,27.54
1630070137796,26.7
1630070137812,25.22
1630070137828,23.44
1630070137843,21.59
1630070137859,19.81
1630070137875,18.17
1630070137890,16.67
1630070137906,15.26
1630070137921,13.89
1630070137937,12.48
1630070137953,10.95
1630070137968,9.29
1630070137984,7.55
1630070138000,5.8
1630070138015,4.04
1630070138031,2.18
1630070138046,0.06
1630070138062,-2.46
1630070138078,-5.39
1630070138093,-8.6
1630070138109,-11.89
1630070138125,-15.09
1630070138140,-18.19
1630070138156,-21.37
1630070138171,-24.91
1630070138187,-29.02
1630070138203,-33.69
1630070138218,-38.58
1630070138234,-42.95
1630070138250,-45.89
1630070138265,-46.53
1630070138281,-44.32
1630070138296,-39.25
1630070138312,-31.88
1630070138328,-23.18
1630070138343,-14.29
1630070138359,-6.15
1630070138375,0.6
1630070138390,5.72
1630070138406,9.24
1630070138421,11.35
1630070138437,12.25
1630070138453,12.16
1630070138468,11.25
1630070138484,9.68
1630070138500,7.59
1630070138515,5.16
1630070138531,2.58
1630070138546,0.08
1630070138562,-2.08
1630070138578,-3.72
1630070138593,-4.75
1630070138609,-5.21
1630070138625,-5.27
1630070138640,-5.07
1630070138656,-4.82
1630070138671,-4.65
1630070138687,-4.71
1630070138703,-5.11
1630070138718,-5.92
1630070138734,-7.12
1630070138750,-8.61
1630070138765,-10.25
1630070138781,-11.93
1630070138796,-13.69
1630070138812,-15.71
1630070138828,-18.19
1630070138843,-21.13
1630070138859,-24.22
1630070138875,-26.78
1630070138890,-27.86
1630070138906,-26.59
1630070138921,-22.52
1630070138937,-15.76
1630070138953,-6.99
1630070138968,2.71
1630070138984,12.21
1630070139000,20.63
1630070139015,27.39
1630070139031,32.29
1630070139046,35.3
1630070139062,36.57
1630070139078,36.28
1630070139093,34.76
1630070139109,32.43
1630070139125,29.75
1630070139140,27.12
1630070139156,24.78
1630070139171,22.81
1630070139187,21.12
1630070139203,19.58
1630070139218,18.11
1630070139234,16.67
1630070139250,15.28
1630070139265,13.89
1630070139281,12.36
1630070139296,10.48
1630070139312,8.08
1630070139328,5.12
1630070139343,1.7
1630070139359,-1.96
1630070139375,-5.61
1630070139390,-9.15
1630070139406,-12.59
1630070139421,-16.06
1630070139437,-19.69
1630070139453,-23.59
1630070139468,-27.75
1630070139484,-31.99
1630070139500,-35.91
1630070139515,-38.92
1630070139531,-40.27
1630070139546,-39.24
1630070139562,-35.39
1630070139578,-28.75
1630070139593,-19.85
1630070139609,-9.64
1630070139625,0.81
1630070139640,10.56
1630070139656,19.01
1630070139671,25.87
1630070139687,31.07
1630070139703,34.69
1630070139718,36.79
1630070139734,37.51
1630070139750,37.01
1630070139765,35.56
1630070139781,33.47
1630070139796,31.07
1630070139812,28.59
1630070139828,26.19
1630070139843,23.93
1630070139859,21.83
1630070139875,19.95
1630070139890,18.33
1630070139906,16.99
1630070139921,15.87
1630070139937,14.77
1630070139953,13.44
1630070139968,11.61
1630070139984,9.14
1630070140000,6.02
1630070140015,2.39
1630070140031,-1.49
1630070140046,-5.35
1630070140062,-8.99
1630070140078,-12.34
1630070140093,-15.52
1630070140109,-18.78
1630070140125,-22.4
1630070140140,-26.57
1630070140156,-31.2
1630070140171,-35.79
1630070140187,-39.45
1630070140203,-41.11
1630070140218,-39.82
1630070140234,-35.1
1630070140250,-27.16
1630070140265,-16.87
1630070140281,-5.53
1630070140296,5.51
1630070140312,15.27
1630070140328,23.29
1630070140343,29.54
1630070140359,34.21
1630070140375,37.42
1630070140390,39.19
1630070140406,39.46
1630070140421,38.32
1630070140437,36.06
1630070140453,33.21
1630070140468,30.32
1630070140484,27.81
1630070140500,25.83
1630070140515,24.26
1630070140531,22.85
1630070140546,21.38
1630070140562,19.73
1630070140578,17.89
1630070140593,15.93
1630070140609,13.89
1630070140625,11.82
1630070140640,9.68
1630070140656,7.38
1630070140671,4.85
1630070140687,2.02
1630070140703,-1.16
1630070140718,-4.64
1630070140734,-8.26
1630070140750,-11.85
1630070140765,-15.18
1630070140781,-18.09
1630070140796,-20.6
1630070140812,-22.85
1630070140828,-25.14
1630070140843,-27.81
1630070140859,-31.13
1630070140875,-35.14
1630070140890,-39.61
1630070140906,-43.94
1630070140921,-47.29
1630070140937,-48.71
1630070140953,-47.43
1630070140968,-43.05
1630070140984,-35.72
1630070141000,-26.11
1630070141015,-15.29
1630070141031,-4.39
1630070141046,5.63
1630070141062,14.19
1630070141078,21.08
1630070141093,26.31
1630070141109,29.96
1630070141125,32.03
1630070141140,32.45
1630070141156,31.26
1630070141171,28.72
1630070141187,25.34
1630070141203,21.74
1630070141218,18.47
1630070141234,15.81
1630070141250,13.75
1630070141265,12.03
1630070141281,10.39
1630070141296,8.67
1630070141312,6.87
1630070141328,5.06
1630070141343,3.31
1630070141359,1.6
1630070141375,-0.16
1630070141390,-2.09
1630070141406,-4.28
1630070141421,-6.74
1630070141437,-9.39
1630070141453,-12.08
1630070141468,-14.57
1630070141484,-16.66
1630070141500,-18.18
1630070141515,-19.16
1630070141531,-19.76
1630070141546,-20.33
1630070141562,-21.3
1630070141578,-23.02
1630070141593,-25.66
1630070141609,-29.08
1630070141625,-32.87
1630070141640,-36.31
1630070141656,-38.54
1630070141671,-38.64
1630070141687,-35.92
1630070141703,-30.12
1630070141718,-21.54
1630070141734,-11.03
1630070141750,0.22
1630070141765,10.99
1630070141781,20.34
1630070141796,27.82
1630070141812,33.43
1630070141828,37.36
1630070141843,39.88
1630070141859,41.07
1630070141875,40.95
1630070141890,39.56
1630070141906,37.18
1630070141921,34.27
1630070141937,31.39
1630070141953,28.98
1630070141968,27.15
1630070141984,25.78
1630070142000,24.53
1630070142015,23.12
1630070142031,21.42
1630070142046,19.53
1630070142062,17.62
1630070142078,15.84
1630070142093,14.18
1630070142109,12.48
1630070142125,10.5
1630070142140,8.02
1630070142156,4.96
1630070142171,1.34
1630070142187,-2.61
1630070142203,-6.59
1630070142218,-10.3
1630070142234,-13.51
1630070142250,-16.15
1630070142265,-18.32
1630070142281,-20.2
1630070142296,-22.08
1630070142312,-24.21
1630070142328,-26.9
1630070142343,-30.4
1630070142359,-34.81
1630070142375,-39.91
1630070142390,-45.0
1630070142406,-48.95
1630070142421,-50.48
1630070142437,-48.57
1630070142453,-42.88
1630070142468,-33.88
1630070142484,-22.7
1630070142500,-10.75
1630070142515,0.72
1630070142531,10.87
1630070142546,19.32
1630070142562,26.06
1630070142578,31.18
1630070142593,34.88
1630070142609,37.26
1630070142625,38.49
1630070142640,38.7
1630070142656,38.04
1630070142671,36.69
1630070142687,34.83
1630070142703,32.68
1630070142718,30.46
1630070142734,28.37
1630070142750,26.51
1630070142765,24.87
1630070142781,23.36
1630070142796,21.93
1630070142812,20.53
1630070142828,19.2
1630070142843,17.92
1630070142859,16.65
1630070142875,15.25
1630070142890,13.51
1630070142906,11.27
1630070142921,8.46
1630070142937,5.13
1630070142953,1.48
1630070142968,-2.27
1630070142984,-5.93
1630070143000,-9.37
1630070143015,-12.54
1630070143031,-15.44
1630070143046,-18.11
1630070143062,-20.69
1630070143078,-23.4
1630070143093,-26.51
1630070143109,-30.26
1630070143125,-34.74
1630070143140,-39.68
1630070143156,-44.44
1630070143171,-48.08
1630070143187,-49.55
1630070143203,-47.99
1630070143218,-43.03
1630070143234,-34.88
1630070143250,-24.41
1630070143265,-12.86
1630070143281,-1.56
1630070143296,8.43
1630070143312,16.5
1630070143328,22.57
1630070143343,26.92
1630070143359,29.89
1630070143375,31.75
1630070143390,32.55
1630070143406,32.3
1630070143421,31.04
1630070143437,28.98
1630070143453,26.52
1630070143468,24.08
1630070143484,22.02
1630070143500,20.49
1630070143515,19.45
1630070143531,18.74
1630070143546,18.13
1630070143562,17.41
1630070143578,16.44
1630070143593,15.08
1630070143609,13.35
1630070143625,11.27
1630070143640,8.95
1630070143656,6.45
1630070143671,3.79
1630070143687,0.95
1630070143703,-2.14
1630070143718,-5.45
1630070143734,-8.89
1630070143750,-12.28
1630070143765,-15.44
1630070143781,-18.23
1630070143796,-20.66
1630070143812,-22.85
1630070143828,-25.04
1630070143843,-27.47
1630070143859,-30.37
1630070143875,-33.87
1630070143890,-37.98
1630070143906,-42.54
1630070143921,-47.13
1630070143937,-51.05
1630070143953,-53.42
1630070143968,-53.4
1630070143984,-50.41
1630070144000,-44.43
1630070144015,-36.02
1630070144031,-26.18
1630070144046,-16.05
1630070144062,-6.59
1630070144078,1.63
1630070144093,8.4
1630070144109,13.76
1630070144125,17.78
1630070144140,20.45
1630070144156,21.77
1630070144171,21.8
1630070144187,20.81
1630070144203,19.29
1630070144218,17.81
1630070144234,16.82
1630070144250,16.53
1630070144265,16.83
1630070144281,17.39
1630070144296,17.85
1630070144312,17.95
1630070144328,17.66
1630070144343,17.07
1630070144359,16.33
1630070144375,15.54
1630070144390,14.65
1630070144406,13.45
1630070144421,11.71
1630070144437,9.24
1630070144453,6.05
1630070144468,2.4
1630070144484,-1.31
1630070144500,-4.64
1630070144515,-7.33
1630070144531,-9.4
1630070144546,-11.18
1630070144562,-13.15
1630070144578,-15.76
1630070144593,-19.27
1630070144609,-23.63
1630070144625,-28.49
1630070144640,-33.21
1630070144656,-36.95
1630070144671,-38.82
1630070144687,-38.05
1630070144703,-34.21
1630070144718,-27.41
1630070144734,-18.31
1630070144750,-7.97
1630070144765,2.42
1630070144781,11.83
1630070144796,19.64
1630070144812,25.68
1630070144828,30.07
1630070144843,33.06
1630070144859,34.89
1630070144875,35.67
1630070144890,35.44
1630070144906,34.23
1630070144921,32.18
1630070144937,29.56
1630070144953,26.72
1630070144968,24.0
1630070144984,21.64
1630070145000,19.71
1630070145015,18.13
1630070145031,16.77
1630070145046,15.51
1630070145062,14.29
1630070145078,13.11
1630070145093,11.92
1630070145109,10.58
1630070145125,8.85
1630070145140,6.49
1630070145156,3.37
1630070145171,-0.42
1630070145187,-4.59
1630070145203,-8.68
1630070145218,-12.26
1630070145234,-15.07
1630070145250,-17.1
1630070145265,-18.63
1630070145281,-20.11
1630070145296,-22.07
1630070145312,-24.98
1630070145328,-29.02
1630070145343,-34.02
1630070145359,-39.34
1630070145375,-43.99
1630070145390,-46.77
1630070145406,-46.63
1630070145421,-43.01
1630070145437,-36.0
1630070145453,-26.36
1630070145468,-15.31
1630070145484,-4.15
1630070145500,6.05
1630070145515,14.62
1630070145531,21.31
1630070145546,26.18
1630070145562,29.44
1630070145578,31.32
1630070145593,32.01
1630070145609,31.67
1630070145625,30.49
1630070145640,28.71
1630070145656,26.62
1630070145671,24.55
1630070145687,22.74
1630070145703,21.3
1630070145718,20.18
1630070145734,19.21
1630070145750,18.22
1630070145765,17.1
1630070145781,15.89
1630070145796,14.65
1630070145812,13.46
1630070145828,12.27
1630070145843,10.92
1630070145859,9.19
1630070145875,6.9
1630070145890,3.99
1630070145906,0.58
1630070145921,-3.07
1630070145937,-6.65
1630070145953,-9.85
1630070145968,-12.54
1630070145984,-14.73
1630070146000,-16.65
1630070146015,-18.64
1630070146031,-21.05
1630070146046,-24.13
1630070146062,-27.82
1630070146078,-31.74
1630070146093,-35.14
1630070146109,-37.13
1630070146125,-36.86
1630070146140,-33.78
1630070146156,-27.87
1630070146171,-19.63
1630070146187,-9.95
1630070146203,0.07
1630070146218,9.42
1630070146234,17.32
1630070146250,23.33
1630070146265,27.3
1630070146281,29.29
1630070146296,29.45
1630070146312,28.06
1630070146328,25.5
1630070146343,22.25
1630070146359,18.86
1630070146375,15.76
1630070146390,13.19
1630070146406,11.11
1630070146421,9.31
1630070146437,7.49
1630070146453,5.52
1630070146468,3.44
1630070146484,1.43
1630070146500,-0.38
1630070146515,-2.01
1630070146531,-3.7
1630070146546,-5.84
1630070146562,-8.72
1630070146578,-12.42
1630070146593,-16.71
1630070146609,-21.15
1630070146625,-25.19
1630070146640,-28.42
1630070146656,-30.69
1630070146671,-32.14
1630070146687,-33.11
1630070146703,-34.09
1630070146718,-35.45
1630070146734,-37.32
1630070146750,-39.51
1630070146765,-41.43
1630070146781,-42.27
1630070146796,-41.13
1630070146812,-37.38
1630070146828,-30.81
1630070146843,-21.76
1630070146859,-11.04
1630070146875,0.31
1630070146890,11.21
1630070146906,20.8
1630070146921,28.47
1630070146937,33.96
1630070146953,37.25
1630070146968,38.54
1630070146984,38.16
1630070147000,36.51
1630070147015,34.01
1630070147031,31.04
1630070147046,27.94
1630070147062,24.96
1630070147078,22.27
1630070147093,19.99
1630070147109,18.13
1630070147125,16.65
1630070147140,15.47
1630070147156,14.49
1630070147171,13.62
1630070147187,12.76
1630070147203,11.77
1630070147218,10.45
1630070147234,8.58
1630070147250,6.0
1630070147265,2.67
1630070147281,-1.21
1630070147296,-5.31
1630070147312,-9.29
1630070147328,-12.89
1630070147343,-16.07
1630070147359,-19.02
1630070147375,-22.07
1630070147390,-25.58
1630070147406,-29.7
1630070147421,-34.3
1630070147437,-38.81
1630070147453,-42.36
1630070147468,-43.91
1630070147484,-42.59
1630070147500,-37.98
1630070147515,-30.31
1630070147531,-20.35
1630070147546,-9.25
1630070147562,1.81
1630070147578,11.9
1630070147593,20.44
1630070147609,27.17
1630070147625,32.04
1630070147640,35.12
1630070147656,36.48
1630070147671,36.29
1630070147687,34.81
1630070147703,32.43
1630070147718,29.59
1630070147734,26.73
1630070147750,24.14
1630070147765,21.92
1630070147781,20.02
1630070147796,18.26
1630070147812,16.53
1630070147828,14.83
1630070147843,13.28
1630070147859,12.0
1630070147875,10.97
1630070147890,9.96
1630070147906,8.6
1630070147921,6.52
1630070147937,3.54
1630070147953,-0.19
1630070147968,-4.29
1630070147984,-8.26
1630070148000,-11.72
1630070148015,-14.53
1630070148031,-16.82
1630070148046,-18.91
1630070148062,-21.22
1630070148078,-24.12
1630070148093,-27.74
1630070148109,-31.88
1630070148125,-35.89
1630070148140,-38.84
1630070148156,-39.66
1630070148171,-37.53
1630070148187,-32.17
1630070148203,-23.95
1630070148218,-13.78
1630070148234,-2.84
1630070148250,7.75
1630070148265,17.14
1630070148281,24.88
1630070148296,30.79
1630070148312,34.87
1630070148328,37.2
1630070148343,37.9
1630070148359,37.2
1630070148375,35.41
1630070148390,32.97
1630070148406,30.26
1630070148421,27.64
1630070148437,25.32
1630070148453,23.31
1630070148468,21.49
1630070148484,19.68
1630070148500,17.7
1630070148515,15.53
1630070148531,13.25
1630070148546,11.01
1630070148562,8.9
1630070148578,6.88
1630070148593,4.78
1630070148609,2.36
1630070148625,-0.49
1630070148640,-3.73
1630070148656,-7.13
1630070148671,-10.42
1630070148687,-13.39
1630070148703,-16.0
1630070148718,-18.38
1630070148734,-20.8
1630070148750,-23.58
1630070148765,-27.02
1630070148781,-31.24
1630070148796,-36.1
1630070148812,-41.09
1630070148828,-45.32
1630070148843,-47.71
1630070148859,-47.27
1630070148875,-43.45
1630070148890,-36.34
1630070148906,-26.71
1630070148921,-15.75
1630070148937,-4.73
1630070148953,5.34
1630070148968,13.79
1630070148984,20.34
1630070149000,24.95
1630070149015,27.71
1630070149031,28.76
1630070149046,28.33
1630070149062,26.67
1630070149078,24.09
1630070149093,20.96
1630070149109,17.62
1630070149125,14.37
1630070149140,11.42
1630070149156,8.86
1630070149171,6.67
1630070149187,4.8
1630070149203,3.15
1630070149218,1.64
1630070149234,0.17
1630070149250,-1.39
1630070149265,-3.22
1630070149281,-5.56
1630070149296,-8.59
1630070149312,-12.3
1630070149328,-16.44
1630070149343,-20.54
1630070149359,-24.09
1630070149375,-26.71
1630070149390,-28.34
1630070149406,-29.24
1630070149421,-29.95
1630070149437,-31.03
1630070149453,-32.91
1630070149468,-35.6
1630070149484,-38.64
1630070149500,-41.11
1630070149515,-41.89
1630070149531,-39.97
1630070149546,-34.81
1630070149562,-26.54
1630070149578,-15.94
1630070149593,-4.2
1630070149609,7.44
1630070149625,17.95
1630070149640,26.71
1630070149656,33.39
1630070149671,37.87
1630070149687,40.15
1630070149703,40.33
1630070149718,38.71
1630070149734,35.77
1630070149750,32.22
1630070149765,28.68
1630070149781,25.6
1630070149796,23.09
1630070149812,21.05
1630070149828,19.24
1630070149843,17.52
1630070149859,15.92
1630070149875,14.57
1630070149890,13.54
1630070149906,12.74
1630070149921,11.91
1630070149937,10.68
1630070149953,8.72
1630070149968,5.96
1630070149984,2.55
1630070150000,-1.18
1630070150015,-4.84
1630070150031,-8.14
1630070150046,-10.97
1630070150062,-13.44
1630070150078,-15.82
1630070150093,-18.55
1630070150109,-22.01
1630070150125,-26.42
1630070150140,-31.63
1630070150156,-37.04
1630070150171,-41.6
1630070150187,-44.11
1630070150203,-43.48
1630070150218,-39.16
1630070150234,-31.33
1630070150250,-20.89
1630070150265,-9.22
1630070150281,2.28
1630070150296,12.51
1630070150312,20.9
1630070150328,27.35
1630070150343,32.03
1630070150359,35.21
1630070150375,37.09
1630070150390,37.77
1630070150406,37.33
1630070150421,35.92
1630070150437,33.78
1630070150453,31.21
1630070150468,28.47
1630070150484,25.73
1630070150500,23.11
1630070150515,20.64
1630070150531,18.39
1630070150546,16.42
1630070150562,14.83
1630070150578,13.61
1630070150593,12.65
1630070150609,11.7
1630070150625,10.4
1630070150640,8.43
1630070150656,5.61
1630070150671,2.0
1630070150687,-2.14
1630070150703,-6.36
1630070150718,-10.21
1630070150734,-13.38
1630070150750,-15.83
1630070150765,-17.82
1630070150781,-19.87
1630070150796,-22.56
1630070150812,-26.23
1630070150828,-30.78
1630070150843,-35.51
1630070150859,-39.24
1630070150875,-40.67
1630070150890,-38.81
1630070150906,-33.38
1630070150921,-24.89
1630070150937,-14.44
1630070150953,-3.34
1630070150968,7.29
1630070150984,16.64
1630070151000,24.32
1630070151015,30.17
1630070151031,34.21
1630070151046,36.5
1630070151062,37.2
1630070151078,36.55
1630070151093,34.87
1630070151109,32.51
1630070151125,29.84
1630070151140,27.17
1630070151156,24.68
1630070151171,22.45
1630070151187,20.43
1630070151203,18.46
1630070151218,16.48
1630070151234,14.48
1630070151250,12.58
1630070151265,10.89
1630070151281,9.45
1630070151296,8.06
1630070151312,6.4
1630070151328,4.12
1630070151343,1.02
1630070151359,-2.79
1630070151375,-6.98
1630070151390,-11.05
1630070151406,-14.58
1630070151421,-17.35
1630070151437,-19.46
1630070151453,-21.16
1630070151468,-22.85
1630070151484,-24.86
1630070151500,-27.44
1630070151515,-30.71
1630070151531,-34.56
1630070151546,-38.67
1630070151562,-42.35
1630070151578,-44.66
1630070151593,-44.54
1630070151609,-41.15
1630070151625,-34.27
1630070151640,-24.4
1630070151656,-12.77
1630070151671,-0.91
1630070151687,9.77
1630070151703,18.32
1630070151718,24.39
1630070151734,28.07
1630070151750,29.65
1630070151765,29.44
1630070151781,27.73
1630070151796,24.85
1630070151812,21.23
1630070151828,17.35
1630070151843,13.68
1630070151859,10.5
1630070151875,7.88
1630070151890,5.66
1630070151906,3.63
1630070151921,1.69
1630070151937,-0.21
1630070151953,-2.0
1630070151968,-3.62
1630070151984,-5.06
1630070152000,-6.39
1630070152015,-7.74
1630070152031,-9.19
1630070152046,-10.77
1630070152062,-12.44
1630070152078,-14.07
1630070152093,-15.51
1630070152109,-16.67
1630070152125,-17.54
1630070152140,-18.32
1630070152156,-19.31
1630070152171,-20.86
1630070152187,-23.23
1630070152203,-26.34
1630070152218,-29.68
1630070152234,-32.38
1630070152250,-33.37
1630070152265,-31.77
1630070152281,-27.16
1630070152296,-19.75
1630070152312,-10.3
1630070152328,0.06
1630070152343,10.22
1630070152359,19.3
1630070152375,26.72
1630070152390,32.24
1630070152406,35.8
1630070152421,37.48
1630070152437,37.47
1630070152453,36.05
1630070152468,33.64
1630070152484,30.7
1630070152500,27.68
1630070152515,24.94
1630070152531,22.69
1630070152546,21.01
1630070152562,19.83
1630070152578,18.95
1630070152593,18.15
1630070152609,17.2
1630070152625,15.93
1630070152640,14.25
1630070152656,12.14
1630070152671,9.6
1630070152687,6.63
1630070152703,3.19
1630070152718,-0.63
1630070152734,-4.68
1630070152750,-8.68
1630070152765,-12.34
1630070152781,-15.45
1630070152796,-18.07
1630070152812,-20.54
1630070152828,-23.33
1630070152843,-26.86
1630070152859,-31.26
1630070152875,-36.2
1630070152890,-40.91
1630070152906,-44.33
1630070152921,-45.37
1630070152937,-43.28
1630070152953,-37.83
1630070152968,-29.41
1630070152984,-18.91
1630070153000,-7.52
1630070153015,3.61
1630070153031,13.57
1630070153046,21.8
1630070153062,28.1
1630070153078,32.51
1630070153093,35.21
1630070153109,36.44
1630070153125,36.44
1630070153140,35.47
1630070153156,33.75
1630070153171,31.53
1630070153187,29.01
1630070153203,26.42
1630070153218,23.95
1630070153234,21.77
1630070153250,20.0
1630070153265,18.69
1630070153281,17.79
1630070153296,17.14
1630070153312,16.49
1630070153328,15.52
1630070153343,13.93
1630070153359,11.54
1630070153375,8.32
1630070153390,4.47
1630070153406,0.28
1630070153421,-3.9
1630070153437,-7.86
1630070153453,-11.5
1630070153468,-14.89
1630070153484,-18.23
1630070153500,-21.8
1630070153515,-25.86
1630070153531,-30.55
1630070153546,-35.73
1630070153562,-40.83
1630070153578,-44.92
1630070153593,-46.81
1630070153609,-45.5
1630070153625,-40.5
1630070153640,-32.11
1630070153656,-21.36
1630070153671,-9.68
1630070153687,1.5
1630070153703,11.16
1630070153718,18.85
1630070153734,24.59
1630070153750,28.63
1630070153765,31.25
1630070153781,32.61
1630070153796,32.76
1630070153812,31.8
1630070153828,29.92
1630070153843,27.52
1630070153859,25.01
1630070153875,22.75
1630070153890,20.87
1630070153906,19.28
1630070153921,17.82
1630070153937,16.34
1630070153953,14.83
1630070153968,13.38
1630070153984,12.11
1630070154000,10.96
1630070154015,9.75
1630070154031,8.18
1630070154046,6.0
1630070154062,3.13
1630070154078,-0.28
1630070154093,-3.92
1630070154109,-7.5
1630070154125,-10.83
1630070154140,-13.95
1630070154156,-17.08
1630070154171,-20.58
1630070154187,-24.74
1630070154203,-29.67
1630070154218,-35.21
1630070154234,-40.81
1630070154250,-45.62
1630070154265,-48.63
1630070154281,-48.98
1630070154296,-46.15
1630070154312,-40.2
1630070154328,-31.77
1630070154343,-21.92
1630070154359,-11.85
1630070154375,-2.67
1630070154390,4.87
1630070154406,10.4
1630070154421,13.94
1630070154437,15.72
1630070154453,16.08
1630070154468,15.37
1630070154484,13.94
1630070154500,12.12
1630070154515,10.24
1630070154531,8.62
1630070154546,7.44
1630070154562,6.8
1630070154578,6.6
1630070154593,6.69
1630070154609,6.92
1630070154625,7.19
1630070154640,7.49
1630070154656,7.77
1630070154671,7.93
1630070154687,7.7
1630070154703,6.82
1630070154718,5.11
1630070154734,2.6
1630070154750,-0.42
1630070154765,-3.56
1630070154781,-6.41
1630070154796,-8.81
1630070154812,-10.86
1630070154828,-12.96
1630070154843,-15.54
1630070154859,-18.93
1630070154875,-23.09
1630070154890,-27.48
1630070154906,-31.17
1630070154921,-33.06
1630070154937,-32.21
1630070154953,-28.17
1630070154968,-21.08
1630070154984,-11.7
1630070155000,-1.13
1630070155015,9.47
1630070155031,19.1
1630070155046,27.1
1630070155062,33.14
1630070155078,37.14
1630070155093,39.17
1630070155109,39.43
1630070155125,38.22
1630070155140,35.91
1630070155156,32.99
1630070155171,29.93
1630070155187,27.1
1630070155203,24.69
1630070155218,22.69
1630070155234,20.9
1630070155250,19.13
1630070155265,17.26
1630070155281,15.34
1630070155296,13.47
1630070155312,11.69
1630070155328,9.92
1630070155343,7.94
1630070155359,5.52
1630070155375,2.55
1630070155390,-0.89
1630070155406,-4.58
1630070155421,-8.27
1630070155437,-11.73
1630070155453,-14.9
1630070155468,-17.78
1630070155484,-20.46
1630070155500,-23.09
1630070155515,-25.88
1630070155531,-29.08
1630070155546,-32.92
1630070155562,-37.39
1630070155578,-42.08
1630070155593,-46.1
1630070155609,-48.31
1630070155625,-47.59
1630070155640,-43.29
1630070155656,-35.49
1630070155671,-25.03
1630070155687,-13.22
1630070155703,-1.48
1630070155718,9.11
1630070155734,17.94
1630070155750,24.89
1630070155765,30.12
1630070155781,33.82
1630070155796,36.12
1630070155812,37.11
1630070155828,36.89
1630070155843,35.67
1630070155859,33.8
1630070155875,31.66
1630070155890,29.54
1630070155906,27.55
1630070155921,25.65
1630070155937,23.69
1630070155953,21.59
1630070155968,19.36
1630070155984,17.15
1630070156000,15.13
1630070156015,13.38
1630070156031,11.81
1630070156046,10.21
1630070156062,8.25
1630070156078,5.68
1630070156093,2.41
1630070156109,-1.4
1630070156125,-5.38
1630070156140,-9.06
1630070156156,-12.07
1630070156171,-14.26
1630070156187,-15.8
1630070156203,-17.12
1630070156218,-18.77
1630070156234,-21.23
1630070156250,-24.72
1630070156265,-29.06
1630070156281,-33.64
1630070156296,-37.53
1630070156312,-39.65
1630070156328,-39.03
1630070156343,-35.15
1630070156359,-28.13
1630070156375,-18.7
1630070156390,-8.08
1630070156406,2.47
1630070156421,11.91
1630070156437,19.73
1630070156453,25.84
1630070156468,30.4
1630070156484,33.56
1630070156500,35.31
1630070156515,35.6
1630070156531,34.46
1630070156546,32.16
1630070156562,29.22
1630070156578,26.25
1630070156593,23.72
1630070156609,21.82
1630070156625,20.42
1630070156640,19.24
1630070156656,18.01
1630070156671,16.63
1630070156687,15.12
1630070156703,13.63
1630070156718,12.22
1630070156734,10.87
1630070156750,9.48
1630070156765,7.85
1630070156781,5.83
1630070156796,3.31
1630070156812,0.27
1630070156828,-3.2
1630070156843,-6.92
1630070156859,-10.61
1630070156875,-14.03
1630070156890,-16.99
1630070156906,-19.5
1630070156921,-21.71
1630070156937,-23.95
1630070156953,-26.59
1630070156968,-29.88
1630070156984,-33.9
1630070157000,-38.34
1630070157015,-42.58
1630070157031,-45.7
1630070157046,-46.73
1630070157062,-44.92
1630070157078,-40.0
1630070157093,-32.26
1630070157109,-22.6
1630070157125,-12.21
1630070157140,-2.32
1630070157156,6.12
1630070157171,12.56
1630070157187,16.88
1630070157203,19.22
1630070157218,19.85
1630070157234,19.06
1630070157250,17.13
1630070157265,14.37
1630070157281,11.14
1630070157296,7.87
1630070157312,4.93
1630070157328,2.56
1630070157343,0.82
1630070157359,-0.37
1630070157375,-1.16
1630070157390,-1.66
1630070157406,-1.88
1630070157421,-1.76
1630070157437,-1.31
1630070157453,-0.64
1630070157468,-0.01
1630070157484,0.17
1630070157500,-0.39
1630070157515,-1.87
1630070157531,-4.2
1630070157546,-7.09
1630070157562,-10.1
1630070157578,-12.84
1630070157593,-15.02
1630070157609,-16.54
1630070157625,-17.6
1630070157640,-18.61
1630070157656,-20.08
1630070157671,-22.48
1630070157687,-25.96
1630070157703,-30.14
1630070157718,-34.13
1630070157734,-36.69
1630070157750,-36.6
1630070157765,-33.07
1630070157781,-26.05
1630070157796,-16.29
1630070157812,-5.02
1630070157828,6.32
1630070157843,16.59
1630070157859,25.07
1630070157875,31.48
1630070157890,35.86
1630070157906,38.36
1630070157921,39.12
1630070157937,38.25
1630070157953,35.95
1630070157968,32.56
1630070157984,28.6
1630070158000,24.67
1630070158015,21.33
1630070158031,18.92
1630070158046,17.44
1630070158062,16.63
1630070158078,16.05
1630070158093,15.33
1630070158109,14.27
1630070158125,12.89
1630070158140,11.38
1630070158156,9.87
1630070158171,8.37
1630070158187,6.73
1630070158203,4.7
1630070158218,2.07
1630070158234,-1.18
1630070158250,-4.87
1630070158265,-8.67
1630070158281,-12.23
1630070158296,-15.33
1630070158312,-17.95
1630070158328,-20.28
1630070158343,-22.63
1630070158359,-25.3
1630070158375,-28.52
1630070158390,-32.39
1630070158406,-36.74
1630070158421,-41.1
1630070158437,-44.7
1630070158453,-46.57
1630070158468,-45.76
1630070158484,-41.65
1630070158500,-34.21
1630070158515,-24.06
1630070158531,-12.32
1630070158546,-0.37
1630070158562,10.59
1630070158578,19.76
1630070158593,26.88
1630070158609,32.05
1630070158625,35.57
1630070158640,37.72
1630070158656,38.63
1630070158671,38.35
1630070158687,36.95
1630070158703,34.69
1630070158718,31.94
1630070158734,29.19
1630070158750,26.81
1630070158765,24.95
1630070158781,23.5
1630070158796,22.25
1630070158812,20.97
1630070158828,19.64
1630070158843,18.36
1630070158859,17.28
1630070158875,16.44
1630070158890,15.69
1630070158906,14.68
1630070158921,13.02
1630070158937,10.48
1630070158953,7.07
1630070158968,3.05
1630070158984,-1.14
1630070159000,-5.08
1630070159015,-8.49
1630070159031,-11.28
1630070159046,-13.58
1630070159062,-15.68
1630070159078,-17.9
1630070159093,-20.62
1630070159109,-24.08
1630070159125,-28.36
1630070159140,-33.16
1630070159156,-37.84
1630070159171,-41.43
1630070159187,-42.9
1630070159203,-41.42
1630070159218,-36.64
1630070159234,-28.82
1630070159250,-18.79
1630070159265,-7.67
1630070159281,3.34
1630070159296,13.32
1630070159312,21.66
1630070159328,28.04
1630070159343,32.39
1630070159359,34.74
1630070159375,35.25
1630070159390,34.19
1630070159406,32.0
1630070159421,29.23
1630070159437,26.4
1630070159453,23.92
1630070159468,21.94
1630070159484,20.42
1630070159500,19.17
1630070159515,17.96
1630070159531,16.64
1630070159546,15.14
1630070159562,13.51
1630070159578,11.81
1630070159593,10.13
1630070159609,8.5
1630070159625,6.85
1630070159640,5.0
1630070159656,2.75
1630070159671,-0.04
1630070159687,-3.36
1630070159703,-7.04
1630070159718,-10.79
1630070159734,-14.35
1630070159750,-17.52
1630070159765,-20.24
1630070159781,-22.59
1630070159796,-24.79
1630070159812,-27.11
1630070159828,-29.91
1630070159843,-33.41
1630070159859,-37.57
1630070159875,-41.94
1630070159890,-45.67
1630070159906,-47.7
1630070159921,-47.07
1630070159937,-43.32
1630070159953,-36.61
1630070159968,-27.71
1630070159984,-17.74
1630070160000,-7.88
1630070160015,0.89
1630070160031,7.91
1630070160046,12.81
1630070160062,15.49
1630070160078,16.08
1630070160093,14.9
1630070160109,12.44
1630070160125,9.34
1630070160140,6.2
1630070160156,3.51
1630070160171,1.53
1630070160187,0.31
1630070160203,-0.29
1630070160218,-0.39
1630070160234,-0.07
1630070160250,0.65
1630070160265,1.76
1630070160281,3.17
1630070160296,4.62
1630070160312,5.74
1630070160328,6.2
1630070160343,5.74
1630070160359,4.32
1630070160375,2.14
1630070160390,-0.5
1630070160406,-3.23
1630070160421,-5.77
1630070160437,-8.01
1630070160453,-10.0
1630070160468,-11.98
1630070160484,-14.29
1630070160500,-17.27
1630070160515,-21.08
1630070160531,-25.59
1630070160546,-30.25
1630070160562,-34.1
1630070160578,-36.01
1630070160593,-34.96
1630070160609,-30.4
1630070160625,-22.49
1630070160640,-12.11
1630070160656,-0.59
1630070160671,10.63
1630070160687,20.41
1630070160703,28.08
1630070160718,33.42
1630070160734,36.54
1630070160750,37.68
1630070160765,37.12
1630070160781,35.15
1630070160796,32.17
1630070160812,28.62
1630070160828,25.0
1630070160843,21.73
1630070160859,19.05
1630070160875,16.98
1630070160890,15.4
1630070160906,14.1
1630070160921,12.95
1630070160937,11.83
1630070160953,10.69
1630070160968,9.47
1630070160984,8.11
1630070161000,6.5
1630070161015,4.49
1630070161031,1.99
1630070161046,-1.07
1630070161062,-4.58
1630070161078,-8.35
1630070161093,-12.07
1630070161109,-15.5
1630070161125,-18.51
1630070161140,-21.26
1630070161156,-24.13
1630070161171,-27.57
1630070161187,-31.86
1630070161203,-36.83
1630070161218,-41.79
1630070161234,-45.62
1630070161250,-47.01
1630070161265,-44.96
1630070161281,-39.1
1630070161296,-29.81
1630070161312,-18.22
1630070161328,-5.83
1630070161343,5.91
1630070161359,15.98
1630070161375,23.86
1630070161390,29.52
1630070161406,33.19
1630070161421,35.17
1630070161437,35.7
1630070161453,35.04
1630070161468,33.48
1630070161484,31.37
1630070161500,29.03
1630070161515,26.69
1630070161531,24.43
1630070161546,22.19
1630070161562,19.92
1630070161578,17.68
1630070161593,15.63
1630070161609,13.99
1630070161625,12.86
1630070161640,12.14
1630070161656,11.49
1630070161671,10.5
1630070161687,8.79
1630070161703,6.21
1630070161718,2.88
1630070161734,-0.91
1630070161750,-4.76
1630070161765,-8.37
1630070161781,-11.58
1630070161796,-14.42
1630070161812,-17.11
1630070161828,-19.96
1630070161843,-23.33
1630070161859,-27.39
1630070161875,-32.02
1630070161890,-36.64
1630070161906,-40.27
1630070161921,-41.72
1630070161937,-39.98
1630070161953,-34.6
1630070161968,-25.91
1630070161984,-14.96
1630070162000,-3.2
1630070162015,7.96
1630070162031,17.52
1630070162046,25.01
1630070162062,30.38
1630070162078,33.79
1630070162093,35.41
1630070162109,35.34
1630070162125,33.75
1630070162140,30.92
1630070162156,27.32
1630070162171,23.54
1630070162187,20.12
1630070162203,17.38
1630070162218,15.37
1630070162234,13.91
1630070162250,12.74
1630070162265,11.62
1630070162281,10.45
1630070162296,9.19
1630070162312,7.81
1630070162328,6.21
1630070162343,4.22
1630070162359,1.72
1630070162375,-1.34
1630070162390,-4.81
1630070162406,-8.4
1630070162421,-11.78
1630070162437,-14.69
1630070162453,-17.1
1630070162468,-19.17
1630070162484,-21.25
1630070162500,-23.77
1630070162515,-27.04
1630070162531,-31.16
1630070162546,-35.84
1630070162562,-40.37
1630070162578,-43.73
1630070162593,-44.76
1630070162609,-42.57
1630070162625,-36.8
1630070162640,-27.87
1630070162656,-16.84
1630070162671,-5.2
1630070162687,5.64
1630070162703,14.61
1630070162718,21.21
1630070162734,25.4
1630070162750,27.44
1630070162765,27.7
1630070162781,26.58
1630070162796,24.44
1630070162812,21.65
1630070162828,18.58
1630070162843,15.6
1630070162859,13.03
1630070162875,11.08
1630070162890,9.84
1630070162906,9.23
1630070162921,9.06
1630070162937,9.06
1630070162953,8.97
1630070162968,8.58
1630070162984,7.75
1630070163000,6.46
1630070163015,4.76
1630070163031,2.74
1630070163046,0.47
1630070163062,-1.97
1630070163078,-4.54
1630070163093,-7.19
1630070163109,-9.86
1630070163125,-12.54
1630070163140,-15.27
1630070163156,-18.25
1630070163171,-21.69
1630070163187,-25.68
1630070163203,-30.02
1630070163218,-34.0
1630070163234,-36.55
1630070163250,-36.48
1630070163265,-32.91
1630070163281,-25.62
1630070163296,-15.25
1630070163312,-3.11
1630070163328,9.22
1630070163343,20.32
1630070163359,29.27
1630070163375,35.73
1630070163390,39.77
1630070163406,41.73
1630070163421,41.95
1630070163437,40.72
1630070163453,38.35
1630070163468,35.2
1630070163484,31.68
1630070163500,28.16
1630070163515,24.92
1630070163531,22.07
1630070163546,19.59
1630070163562,17.37
1630070163578,15.37
1630070163593,13.59
1630070163609,12.06
1630070163625,10.78
1630070163640,9.57
1630070163656,8.14
1630070163671,6.16
1630070163687,3.37
1630070163703,-0.29
1630070163718,-4.6
1630070163734,-9.16
1630070163750,-13.5
1630070163765,-17.28
1630070163781,-20.4
1630070163796,-23.08
1630070163812,-25.75
1630070163828,-28.95
1630070163843,-33.03
1630070163859,-37.97
1630070163875,-43.17
1630070163890,-47.56
1630070163906,-49.81
1630070163921,-48.75
1630070163937,-43.79
1630070163953,-35.13
1630070163968,-23.76
1630070163984,-11.12
1630070164000,1.3
1630070164015,12.37
1630070164031,21.49
1630070164046,28.56
1630070164062,33.76
1630070164078,37.29
1630070164093,39.31
1630070164109,39.88
1630070164125,39.12
1630070164140,37.26
1630070164156,34.71
1630070164171,31.9
1630070164187,29.23
1630070164203,26.87
1630070164218,24.8
1630070164234,22.85
1630070164250,20.86
1630070164265,18.78
1630070164281,16.68
1630070164296,14.72
1630070164312,12.99
1630070164328,11.42
1630070164343,9.8
1630070164359,7.8
1630070164375,5.15
1630070164390,1.77
1630070164406,-2.19
1630070164421,-6.32
1630070164437,-10.18
1630070164453,-13.43
1630070164468,-16.01
1630070164484,-18.22
1630070164500,-20.59
1630070164515,-23.7
1630070164531,-27.9
1630070164546,-33.08
1630070164562,-38.64
1630070164578,-43.51
1630070164593,-46.44
1630070164609,-46.31
1630070164625,-42.49
1630070164640,-35.04
1630070164656,-24.68
1630070164671,-12.66
1630070164687,-0.39
1630070164703,10.91
1630070164718,20.42
1630070164734,27.78
1630070164750,33.02
1630070164765,36.38
1630070164781,38.16
1630070164796,38.58
1630070164812,37.83
1630070164828,36.09
1630070164843,33.66
1630070164859,30.88
1630070164875,28.17
1630070164890,25.82
1630070164906,23.95
1630070164921,22.42
1630070164937,20.95
1630070164953,19.31
1630070164968,17.39
1630070164984,15.32
1630070165000,13.36
1630070165015,11.64
1630070165031,10.14
1630070165046,8.53
1630070165062,6.41
1630070165078,3.41
1630070165093,-0.54
1630070165109,-5.19
1630070165125,-10.01
1630070165140,-14.36
1630070165156,-17.78
1630070165171,-20.12
1630070165187,-21.62
1630070165203,-22.81
1630070165218,-24.36
1630070165234,-26.85
1630070165250,-30.59
1630070165265,-35.46
1630070165281,-40.87
1630070165296,-45.77
1630070165312,-48.93
1630070165328,-49.2
1630070165343,-45.86
1630070165359,-38.9
1630070165375,-28.99
1630070165390,-17.37
1630070165406,-5.43
1630070165421,5.63
1630070165437,14.96
1630070165453,22.1
1630070165468,26.92
1630070165484,29.43
1630070165500,29.8
1630070165515,28.31
1630070165531,25.39
1630070165546,21.63
1630070165562,17.62
1630070165578,13.93
1630070165593,10.88
1630070165609,8.58
1630070165625,6.93
1630070165640,5.68
1630070165656,4.65
1630070165671,3.71
1630070165687,2.89
1630070165703,2.23
1630070165718,1.75
1630070165734,1.39
1630070165750,0.92
1630070165765,0.05
1630070165781,-1.41
1630070165796,-3.51
1630070165812,-6.08
1630070165828,-8.77
1630070165843,-11.16
1630070165859,-12.98
1630070165875,-14.15
1630070165890,-14.92
1630070165906,-15.7
1630070165921,-17.0
1630070165937,-19.23
1630070165953,-22.53
1630070165968,-26.68
1630070165984,-31.07
1630070166000,-34.77
1630070166015,-36.69
1630070166031,-35.85
1630070166046,-31.65
1630070166062,-24.12
1630070166078,-13.95
1630070166093,-2.31
1630070166109,9.45
1630070166125,20.17
1630070166140,29.08
1630070166156,35.87
1630070166171,40.5
1630070166187,43.07
1630070166203,43.73
1630070166218,42.68
1630070166234,40.27
1630070166250,37.01
1630070166265,33.5
1630070166281,30.25
1630070166296,27.54
1630070166312,25.35
1630070166328,23.44
1630070166343,21.56
1630070166359,19.54
1630070166375,17.44
1630070166390,15.44
1630070166406,13.69
1630070166421,12.18
1630070166437,10.72
1630070166453,8.95
1630070166468,6.54
1630070166484,3.28
1630070166500,-0.76
1630070166515,-5.34
1630070166531,-10.02
1630070166546,-14.37
1630070166562,-18.09
1630070166578,-21.14
1630070166593,-23.63
1630070166609,-25.89
1630070166625,-28.3
1630070166640,-31.21
1630070166656,-34.83
1630070166671,-39.11
1630070166687,-43.64
1630070166703,-47.63
1630070166718,-49.98
1630070166734,-49.55
1630070166750,-45.53
1630070166765,-37.72
1630070166781,-26.76
1630070166796,-13.91
1630070166812,-0.74
1630070166828,11.39
1630070166843,21.53
1630070166859,29.35
1630070166875,34.92
1630070166890,38.47
1630070166906,40.25
1630070166921,40.46
1630070166937,39.31
1630070166953,37.13
1630070166968,34.38
1630070166984,31.58
1630070167000,29.15
1630070167015,27.28
1630070167031,25.9
1630070167046,24.78
1630070167062,23.61
1630070167078,22.22
1630070167093,20.6
1630070167109,18.91
1630070167125,17.29
1630070167140,15.79
1630070167156,14.25
1630070167171,12.39
1630070167187,9.89
1630070167203,6.64
1630070167218,2.73
1630070167234,-1.5
1630070167250,-5.66
1630070167265,-9.41
1630070167281,-12.65
1630070167296,-15.5
1630070167312,-18.2
1630070167328,-21.09
1630070167343,-24.49
1630070167359,-28.58
1630070167375,-33.38
1630070167390,-38.58
1630070167406,-43.48
1630070167421,-47.04
1630070167437,-48.14
1630070167453,-45.91
1630070167468,-40.06
1630070167484,-31.08
1630070167500,-20.05
1630070167515,-8.36
1630070167531,2.74
1630070167546,12.41
1630070167562,20.27
1630070167578,26.27
1630070167593,30.52
1630070167609,33.11
1630070167625,34.1
1630070167640,33.66
1630070167656,32.04
1630070167671,29.65
1630070167687,26.96
1630070167703,24.32
1630070167718,21.91
1630070167734,19.72
1630070167750,17.62
1630070167765,15.52
1630070167781,13.41
1630070167796,11.43
1630070167812,9.76
1630070167828,8.52
1630070167843,7.65
1630070167859,6.87
1630070167875,5.73
1630070167890,3.8
1630070167906,0.81
1630070167921,-3.21
1630070167937,-7.89
1630070167953,-12.68
1630070167968,-17.07
1630070167984,-20.75
1630070168000,-23.71
1630070168015,-26.26
1630070168031,-28.8
1630070168046,-31.78
1630070168062,-35.49
1630070168078,-39.96
1630070168093,-44.87
1630070168109,-49.51
1630070168125,-52.89
1630070168140,-53.94
1630070168156,-51.86
1630070168171,-46.37
1630070168187,-37.84
1630070168203,-27.21
1630070168218,-15.72
1630070168234,-4.56
1630070168250,5.29
1630070168265,13.19
1630070168281,18.78
1630070168296,21.97
1630070168312,22.94
1630070168328,22.11
1630070168343,20.11
1630070168359,17.7
1630070168375,15.51
1630070168390,13.93
1630070168406,13.02
1630070168421,12.62
1630070168437,12.44
1630070168453,12.26
1630070168468,12.0
1630070168484,11.7
1630070168500,11.43
1630070168515,11.25
1630070168531,11.04
1630070168546,10.59
1630070168562,9.61
1630070168578,7.88
1630070168593,5.33
1630070168609,2.1
1630070168625,-1.48
1630070168640,-5.02
1630070168656,-8.21
1630070168671,-10.93
1630070168687,-13.31
1630070168703,-15.71
1630070168718,-18.57
1630070168734,-22.19
1630070168750,-26.62
1630070168765,-31.47
1630070168781,-35.93
1630070168796,-38.9
1630070168812,-39.33
1630070168828,-36.44
1630070168843,-30.06
1630070168859,-20.71
1630070168875,-9.46
1630070168890,2.3
1630070168906,13.3
1630070168921,22.57
1630070168937,29.6
1630070168953,34.28
1630070168968,36.77
1630070168984,37.42
1630070169000,36.62
1630070169015,34.8
1630070169031,32.42
1630070169046,29.88
1630070169062,27.44
1630070169078,25.18
1630070169093,23.04
1630070169109,20.86
1630070169125,18.56
1630070169140,16.18
1630070169156,13.91
1630070169171,11.98
1630070169187,10.52
1630070169203,9.48
1630070169218,8.54
1630070169234,7.31
1630070169250,5.42
1630070169265,2.69
1630070169281,-0.78
1630070169296,-4.69
1630070169312,-8.68
1630070169328,-12.4
1630070169343,-15.66
1630070169359,-18.44
1630070169375,-20.86
1630070169390,-23.24
1630070169406,-25.98
1630070169421,-29.44
1630070169437,-33.71
1630070169453,-38.43
1630070169468,-42.69
1630070169484,-45.23
1630070169500,-44.8
1630070169515,-40.66
1630070169531,-32.83
1630070169546,-22.16
1630070169562,-10.02
1630070169578,2.09
1630070169593,12.96
1630070169609,21.88
1630070169625,28.6
1630070169640,33.2
1630070169656,35.96
1630070169671,37.17
1630070169687,37.09
1630070169703,36.03
1630070169718,34.3
1630070169734,32.21
1630070169750,30.05
1630070169765,28.03
1630070169781,26.23
1630070169796,24.61
1630070169812,23.0
1630070169828,21.28
1630070169843,19.39
1630070169859,17.41
1630070169875,15.49
1630070169890,13.76
1630070169906,12.16
1630070169921,10.43
1630070169937,8.18
1630070169953,5.1
1630070169968,1.13
1630070169984,-3.39
1630070170000,-7.91
1630070170015,-11.84
1630070170031,-14.87
1630070170046,-17.07
1630070170062,-18.84
1630070170078,-20.77
1630070170093,-23.35
1630070170109,-26.89
1630070170125,-31.37
1630070170140,-36.37
1630070170156,-41.13
1630070170171,-44.56
1630070170187,-45.45
1630070170203,-42.84
1630070170218,-36.36
1630070170234,-26.44
1630070170250,-14.29
1630070170265,-1.55
1630070170281,10.22
1630070170296,19.94
1630070170312,27.15
1630070170328,31.92
1630070170343,34.54
1630070170359,35.33
1630070170375,34.5
1630070170390,32.3
1630070170406,29.07
1630070170421,25.33
1630070170437,21.68
1630070170453,18.6
1630070170468,16.33
1630070170484,14.76
1630070170500,13.6
1630070170515,12.51
1630070170531,11.29
1630070170546,9.93
1630070170562,8.54
1630070170578,7.18
1630070170593,5.8
1630070170609,4.19
1630070170625,2.08
1630070170640,-0.69
1630070170656,-4.11
1630070170671,-7.96
1630070170687,-11.93
1630070170703,-15.74
1630070170718,-19.25
1630070170734,-22.5
1630070170750,-25.61
1630070170765,-28.81
1630070170781,-32.38
1630070170796,-36.51
1630070170812,-41.23
1630070170828,-46.18
1630070170843,-50.61
1630070170859,-53.4
1630070170875,-53.43
1630070170890,-49.94
1630070170906,-42.87
1630070170921,-32.92
1630070170937,-21.33
1630070170953,-9.49
1630070170968,1.43
1630070170984,10.65
1630070171000,17.81
1630070171015,22.79
1630070171031,25.63
1630070171046,26.48
1630070171062,25.67
1630070171078,23.66
1630070171093,21.01
1630070171109,18.31
1630070171125,16.03
1630070171140,14.47
1630070171156,13.71
1630070171171,13.66
1630070171187,14.12
1630070171203,14.85
1630070171218,15.61
1630070171234,16.22
1630070171250,16.47
1630070171265,16.21
1630070171281,15.26
1630070171296,13.44
1630070171312,10.71
1630070171328,7.17
1630070171343,3.12
1630070171359,-1.03
1630070171375,-4.89
1630070171390,-8.25
1630070171406,-11.23
1630070171421,-14.17
1630070171437,-17.59
1630070171453,-21.85
1630070171468,-26.97
1630070171484,-32.44
1630070171500,-37.3
1630070171515,-40.29
1630070171531,-40.3
1630070171546,-36.64
1630070171562,-29.36
1630070171578,-19.21
1630070171593,-7.48
1630070171609,4.38
1630070171625,15.14
1630070171640,23.99
1630070171656,30.58
1630070171671,34.94
1630070171687,37.26
1630070171703,37.8
1630070171718,36.86
1630070171734,34.82
1630070171750,32.1
1630070171765,29.16
1630070171781,26.36
1630070171796,23.87
1630070171812,21.62
1630070171828,19.43
1630070171843,17.12
1630070171859,14.65
1630070171875,12.21
1630070171890,10.05
1630070171906,8.32
1630070171921,6.91
1630070171937,5.49
1630070171953,3.61
1630070171968,0.94
1630070171984,-2.56
1630070172000,-6.62
1630070172015,-10.75
1630070172031,-14.53
1630070172046,-17.72
1630070172062,-20.41
1630070172078,-22.91
1630070172093,-25.68
1630070172109,-29.1
1630070172125,-33.36
1630070172140,-38.29
1630070172156,-43.33
1630070172171,-47.49
1630070172187,-49.58
1630070172203,-48.49
1630070172218,-43.62
1630070172234,-35.04
1630070172250,-23.63
1630070172265,-10.76
1630070172281,2.09
1630070172296,13.66
1630070172312,23.2
1630070172328,30.48
1630070172343,35.57
1630070172359,38.72
1630070172375,40.21
1630070172390,40.3
1630070172406,39.29
1630070172421,37.51
1630070172437,35.29
1630070172453,32.93
1630070172468,30.59
1630070172484,28.34
1630070172500,26.14
1630070172515,23.95
1630070172531,21.76
1630070172546,19.64
1630070172562,17.73
1630070172578,16.08
1630070172593,14.63
1630070172609,13.18
1630070172625,11.44
1630070172640,9.16
1630070172656,6.23
1630070172671,2.74
1630070172687,-1.08
1630070172703,-4.89
1630070172718,-8.44
1630070172734,-11.62
1630070172750,-14.48
1630070172765,-17.25
1630070172781,-20.28
1630070172796,-23.9
1630070172812,-28.32
1630070172828,-33.39
1630070172843,-38.49
1630070172859,-42.57
1630070172875,-44.39
1630070172890,-42.87
1630070172906,-37.51
1630070172921,-28.61
1630070172937,-17.18
1630070172953,-4.72
1630070172968,7.27
1630070172984,17.65
1630070173000,25.82
1630070173015,31.69
1630070173031,35.41
1630070173046,37.23
1630070173062,37.35
1630070173078,35.97
1630070173093,33.42
1630070173109,30.2
1630070173125,26.88
1630070173140,23.99
1630070173156,21.8
1630070173171,20.24
1630070173187,19.0
1630070173203,17.69
1630070173218,16.04
1630070173234,14.06
1630070173250,11.98
1630070173265,10.08
1630070173281,8.5
1630070173296,7.11
1630070173312,5.58
1630070173328,3.46
1630070173343,0.47
1630070173359,-3.35
1630070173375,-7.67
1630070173390,-11.98
1630070173406,-15.8
1630070173421,-18.92
1630070173437,-21.43
1630070173453,-23.73
1630070173468,-26.28
1630070173484,-29.49
1630070173500,-33.56
1630070173515,-38.33
1630070173531,-43.29
1630070173546,-47.58
1630070173562,-50.16
1630070173578,-50.08
1630070173593,-46.74
1630070173609,-40.11
1630070173625,-30.84
1630070173640,-20.03
1630070173656,-9.0
1630070173671,1.06
1630070173687,9.32
1630070173703,15.31
1630070173718,18.96
1630070173734,20.41
1630070173750,19.96
1630070173765,18.06
1630070173781,15.27
1630070173796,12.19
1630070173812,9.38
1630070173828,7.24
1630070173843,5.9
1630070173859,5.31
1630070173875,5.26
1630070173890,5.53
1630070173906,5.93
1630070173921,6.35
1630070173937,6.73
1630070173953,6.97
1630070173968,6.92
1630070173984,6.38
1630070174000,5.18
1630070174015,3.28
1630070174031,0.76
1630070174046,-2.15
1630070174062,-5.14
1630070174078,-7.99
1630070174093,-10.62
1630070174109,-13.11
1630070174125,-15.68
1630070174140,-18.62
1630070174156,-22.19
1630070174171,-26.5
1630070174187,-31.35
1630070174203,-36.16
1630070174218,-39.96
1630070174234,-41.58
1630070174250,-40.02
1630070174265,-34.79
1630070174281,-26.12
1630070174296,-14.9
1630070174312,-2.52
1630070174328,9.64
1630070174343,20.45
1630070174359,29.18
1630070174375,35.58
1630070174390,39.63
1630070174406,41.51
1630070174421,41.46
1630070174437,39.82
1630070174453,37.04
1630070174468,33.61
1630070174484,30.01
1630070174500,26.64
1630070174515,23.74
1630070174531,21.34
1630070174546,19.31
1630070174562,17.5
1630070174578,15.81
1630070174593,14.24
1630070174609,12.89
1630070174625,11.73
1630070174640,10.63
1630070174656,9.23
1630070174671,7.12
1630070174687,4.02
1630070174703,-0.03
1630070174718,-4.69
1630070174734,-9.37
1630070174750,-13.54
1630070174765,-16.87
1630070174781,-19.41
1630070174796,-21.49
1630070174812,-23.59
1630070174828,-26.2
1630070174843,-29.64
1630070174859,-33.92
1630070174875,-38.65
1630070174890,-43.05
1630070174906,-46.01
1630070174921,-46.32
1630070174937,-43.09
1630070174953,-36.07
1630070174968,-25.75
1630070174984,-13.34
1630070175000,-0.34
1630070175015,11.86
1630070175031,22.28
1630070175046,30.49
1630070175062,36.43
1630070175078,40.26
1630070175093,42.15
1630070175109,42.27
1630070175125,40.86
1630070175140,38.29
1630070175156,35.13
1630070175171,32.0
1630070175187,29.35
1630070175203,27.4
1630070175218,25.98
1630070175234,24.76
1630070175250,23.38
1630070175265,21.65
1630070175281,19.69
1630070175296,17.75
1630070175312,16.06
1630070175328,14.62
1630070175343,13.12
1630070175359,11.13
1630070175375,8.23
1630070175390,4.35
1630070175406,-0.24
1630070175421,-5.01
1630070175437,-9.39
1630070175453,-13.07
1630070175468,-16.04
1630070175484,-18.63
1630070175500,-21.29
1630070175515,-24.49
1630070175531,-28.49
1630070175546,-33.31
1630070175562,-38.66
1630070175578,-43.9
1630070175593,-48.05
1630070175609,-49.95
1630070175625,-48.54
1630070175640,-43.22
1630070175656,-34.16
1630070175671,-22.33
1630070175687,-9.25
1630070175703,3.42
1630070175718,14.41
1630070175734,23.08
1630070175750,29.32
1630070175765,33.41
1630070175781,35.65
1630070175796,36.23
1630070175812,35.3
1630070175828,33.08
1630070175843,30.02
1630070175859,26.71
1630070175875,23.76
1630070175890,21.48
1630070175906,19.85
1630070175921,18.53
1630070175937,17.14
1630070175953,15.44
1630070175968,13.47
1630070175984,11.47
1630070176000,9.66
1630070176015,8.11
1630070176031,6.64
1630070176046,4.93
1630070176062,2.64
1630070176078,-0.39
1630070176093,-4.11
1630070176109,-8.29
1630070176125,-12.6
1630070176140,-16.73
1630070176156,-20.44
1630070176171,-23.66
1630070176187,-26.48
1630070176203,-29.13
1630070176218,-31.98
1630070176234,-35.36
1630070176250,-39.44
1630070176265,-44.0
1630070176281,-48.36
1630070176296,-51.44
1630070176312,-52.04
1630070176328,-49.19
1630070176343,-42.53
1630070176359,-32.49
1630070176375,-20.25
1630070176390,-7.35
1630070176406,4.69
1630070176421,14.83
1630070176437,22.59
1630070176453,28.05
1630070176468,31.5
1630070176484,33.26
1630070176500,33.59
1630070176515,32.66
1630070176531,30.73
1630070176546,28.18
1630070176562,25.49
1630070176578,23.12
1630070176593,21.32
1630070176609,20.08
1630070176625,19.19
1630070176640,18.41
1630070176656,17.61
1630070176671,16.8
1630070176687,16.09
1630070176703,15.45
1630070176718,14.66
1630070176734,13.31
1630070176750,11.01
1630070176765,7.55
1630070176781,3.13
1630070176796,-1.77
1630070176812,-6.51
1630070176828,-10.55
1630070176843,-13.66
1630070176859,-15.98
1630070176875,-17.9
1630070176890,-19.93
1630070176906,-22.55
1630070176921,-26.03
1630070176937,-30.36
1630070176953,-35.14
1630070176968,-39.57
1630070176984,-42.53
1630070177000,-42.89
1630070177015,-39.78
1630070177031,-32.95
1630070177046,-22.93
1630070177062,-10.87
1630070177078,1.77
1630070177093,13.61
1630070177109,23.66
1630070177125,31.4
1630070177140,36.73
1630070177156,39.81
1630070177171,40.88
1630070177187,40.22
1630070177203,38.21
1630070177218,35.31
1630070177234,32.03
1630070177250,28.87
1630070177265,26.15
1630070177281,23.95
1630070177296,22.19
1630070177312,20.62
1630070177328,19.03
1630070177343,17.33
1630070177359,15.57
1630070177375,13.87
1630070177390,12.34
1630070177406,10.94
1630070177421,9.44
1630070177437,7.54
1630070177453,4.92
1630070177468,1.42
1630070177484,-2.84
1630070177500,-7.52
1630070177515,-12.09
1630070177531,-16.07
1630070177546,-19.16
1630070177562,-21.41
1630070177578,-23.19
1630070177593,-25.11
1630070177609,-27.77
1630070177625,-31.49
1630070177640,-36.13
1630070177656,-41.01
1630070177671,-44.99
1630070177687,-46.83
1630070177703,-45.51
1630070177718,-40.58
1630070177734,-32.27
1630070177750,-21.45
1630070177765,-9.35
1630070177781,2.75
1630070177796,13.78
1630070177812,23.05
1630070177828,30.24
1630070177843,35.27
1630070177859,38.27
1630070177875,39.44
1630070177890,39.06
1630070177906,37.52
1630070177921,35.27
1630070177937,32.71
1630070177953,30.16
1630070177968,27.75
1630070177984,25.44
1630070178000,23.12
1630070178015,20.71
1630070178031,18.21
1630070178046,15.79
1630070178062,13.63
1630070178078,11.89
1630070178093,10.58
1630070178109,9.49
1630070178125,8.3
1630070178140,6.62
1630070178156,4.17
1630070178171,0.86
1630070178187,-3.08
1630070178203,-7.25
1630070178218,-11.18
1630070178234,-14.47
1630070178250,-17.05
1630070178265,-19.12
1630070178281,-21.09
1630070178296,-23.44
1630070178312,-26.52
1630070178328,-30.44
1630070178343,-35.03
1630070178359,-39.84
1630070178375,-44.13
1630070178390,-46.94
1630070178406,-47.26
1630070178421,-44.31
1630070178437,-37.76
1630070178453,-27.99
1630070178468,-16.1
1630070178484,-3.56
1630070178500,8.12
1630070178515,17.8
1630070178531,24.92
1630070178546,29.45
1630070178562,31.67
1630070178578,31.95
1630070178593,30.62
1630070178609,28.02
1630070178625,24.56
1630070178640,20.71
1630070178656,17.01
1630070178671,13.88
1630070178687,11.47
1630070178703,9.7
1630070178718,8.28
1630070178734,6.96
1630070178750,5.57
1630070178765,4.15
1630070178781,2.83
1630070178796,1.66
1630070178812,0.58
1630070178828,-0.71
1630070178843,-2.63
1630070178859,-5.56
1630070178875,-9.64
1630070178890,-14.64
1630070178906,-20.05
1630070178921,-25.17
1630070178937,-29.4
1630070178953,-32.49
1630070178968,-34.59
1630070178984,-36.23
1630070179000,-38.08
1630070179015,-40.67
1630070179031,-44.08
1630070179046,-47.87
1630070179062,-51.07
1630070179078,-52.48
1630070179093,-50.98
1630070179109,-45.87
1630070179125,-37.12
1630070179140,-25.42
1630070179156,-12.0
1630070179171,1.61
1630070179187,14.01
1630070179203,24.16
1630070179218,31.54
1630070179234,36.09
1630070179250,38.09
1630070179265,37.99
1630070179281,36.32
1630070179296,33.56
1630070179312,30.26
1630070179328,26.91
1630070179343,23.89
1630070179359,21.45
1630070179375,19.57
1630070179390,18.13
1630070179406,16.91
1630070179421,15.82
1630070179437,14.85
1630070179453,14.1
1630070179468,13.6
1630070179484,13.22
1630070179500,12.63
1630070179515,11.45
1630070179531,9.33
1630070179546,6.22
1630070179562,2.34
1630070179578,-1.82
1630070179593,-5.76
1630070179609,-9.12
1630070179625,-11.82
1630070179640,-14.13
1630070179656,-16.57
1630070179671,-19.66
1630070179687,-23.75
1630070179703,-28.78
1630070179718,-34.17
1630070179734,-38.86
1630070179750,-41.58
1630070179765,-41.21
1630070179781,-37.07
1630070179796,-29.23
1630070179812,-18.49
1630070179828,-6.13
1630070179843,6.4
1630070179859,17.81
1630070179875,27.23
1630070179890,34.2
1630070179906,38.64
1630070179921,40.72
1630070179937,40.74
1630070179953,39.18
1630070179968,36.54
1630070179984,33.37
1630070180000,30.11
1630070180015,27.08
1630070180031,24.46
1630070180046,22.27
1630070180062,20.42
1630070180078,18.73
1630070180093,17.07
1630070180109,15.33
1630070180125,13.51
1630070180140,11.68
1630070180156,9.87
1630070180171,8.02
1630070180187,5.97
1630070180203,3.43
1630070180218,0.23
1630070180234,-3.62
1630070180250,-7.86
1630070180265,-12.09
1630070180281,-15.9
1630070180296,-19.09
1630070180312,-21.76
1630070180328,-24.23
1630070180343,-26.98
1630070180359,-30.44
1630070180375,-34.8
1630070180390,-39.8
1630070180406,-44.67
1630070180421,-48.23
1630070180437,-49.12
1630070180453,-46.32
1630070180468,-39.47
1630070180484,-29.07
1630070180500,-16.44
1630070180515,-3.21
1630070180531,9.1
1630070180546,19.49
1630070180562,27.59
1630070180578,33.49
1630070180593,37.48
1630070180609,39.78
1630070180625,40.51
1630070180640,39.81
1630070180656,37.9
1630070180671,35.22
1630070180687,32.32
1630070180703,29.67
1630070180718,27.53
1630070180734,25.87
1630070180750,24.45
1630070180765,22.99
1630070180781,21.32
1630070180796,19.52
1630070180812,17.76
1630070180828,16.22
1630070180843,14.86
1630070180859,13.37
1630070180875,11.26
1630070180890,8.09
1630070180906,3.68
1630070180921,-1.73
1630070180937,-7.54
1630070180953,-13.01
1630070180968,-17.53
1630070180984,-20.87
1630070181000,-23.28
1630070181015,-25.28
1630070181031,-27.51
1630070181046,-30.52
1630070181062,-34.53
1630070181078,-39.36
1630070181093,-44.41
1630070181109,-48.71
1630070181125,-51.09
1630070181140,-50.45
1630070181156,-46.06
1630070181171,-37.86
1630070181187,-26.51
1630070181203,-13.33
1630070181218,0.12
1630070181234,12.4
1630070181250,22.53
1630070181265,30.05
1630070181281,34.99
1630070181296,37.62
1630070181312,38.3
1630070181328,37.39
1630070181343,35.27
1630070181359,32.37
1630070181375,29.13
1630070181390,26.0
1630070181406,23.27
1630070181421,21.04
1630070181437,19.3
1630070181453,17.92
1630070181468,16.81
1630070181484,15.9
1630070181500,15.1
1630070181515,14.33
1630070181531,13.45
1630070181546,12.27
1630070181562,10.56
1630070181578,8.15
1630070181593,4.95
1630070181609,1.01
1630070181625,-3.49
1630070181640,-8.23
1630070181656,-12.85
1630070181671,-17.04
1630070181687,-20.66
1630070181703,-23.83
1630070181718,-26.89
1630070181734,-30.33
1630070181750,-34.53
1630070181765,-39.6
1630070181781,-45.19
1630070181796,-50.46
1630070181812,-54.28
1630070181828,-55.48
1630070181843,-53.2
1630070181859,-47.23
1630070181875,-38.07
1630070181890,-26.83
1630070181906,-14.94
1630070181921,-3.76
1630070181937,5.71
1630070181953,12.95
1630070181968,17.85
1630070181984,20.6
1630070182000,21.51
1630070182015,20.95
1630070182031,19.33
1630070182046,17.08
1630070182062,14.68
1630070182078,12.56
1630070182093,11.0
1630070182109,10.16
1630070182125,9.97
1630070182140,10.25
1630070182156,10.79
1630070182171,11.37
1630070182187,11.82
1630070182203,11.93
1630070182218,11.48
1630070182234,10.29
1630070182250,8.3
1630070182265,5.61
1630070182281,2.51
1630070182296,-0.7
1630070182312,-3.73
1630070182328,-6.46
1630070182343,-8.91
1630070182359,-11.23
1630070182375,-13.64
1630070182390,-16.44
1630070182406,-19.91
1630070182421,-24.19
1630070182437,-29.11
1630070182453,-33.99
1630070182468,-37.73
1630070182484,-38.95
1630070182500,-36.57
1630070182515,-30.13
1630070182531,-20.11
1630070182546,-7.78
1630070182562,5.18
1630070182578,17.23
1630070182593,27.34
1630070182609,35.09
1630070182625,40.57
1630070182640,44.02
1630070182656,45.63
1630070182671,45.55
1630070182687,43.89
1630070182703,40.91
1630070182718,37.09
1630070182734,33.03
1630070182750,29.22
1630070182765,25.98
1630070182781,23.29
1630070182796,20.98
1630070182812,18.82
1630070182828,16.72
1630070182843,14.73
1630070182859,12.92
1630070182875,11.33
1630070182890,9.78
1630070182906,7.97
1630070182921,5.53
1630070182937,2.26
1630070182953,-1.81
1630070182968,-6.41
1630070182984,-11.09
1630070183000,-15.42
1630070183015,-19.16
1630070183031,-22.34
1630070183046,-25.25
1630070183062,-28.36
1630070183078,-32.1
1630070183093,-36.68
1630070183109,-41.87
1630070183125,-46.97
1630070183140,-50.87
1630070183156,-52.29
1630070183171,-50.17
1630070183187,-44.01
1630070183203,-34.15
1630070183218,-21.61
1630070183234,-7.92
1630070183250,5.36
1630070183265,16.98
1630070183281,26.23
1630070183296,32.95
1630070183312,37.33
1630070183328,39.71
1630070183343,40.49
1630070183359,39.99
1630070183375,38.55
1630070183390,36.49
1630070183406,34.15
1630070183421,31.83
1630070183437,29.77
1630070183453,28.05
1630070183468,26.62
1630070183484,25.27
1630070183500,23.86
1630070183515,22.3
1630070183531,20.6
1630070183546,18.82
1630070183562,16.97
1630070183578,14.94
1630070183593,12.5
1630070183609,9.46
1630070183625,5.71
1630070183640,1.42
1630070183656,-3.07
1630070183671,-7.31
1630070183687,-11.0
1630070183703,-14.07
1630070183718,-16.75
1630070183734,-19.52
1630070183750,-22.92
1630070183765,-27.34
1630070183781,-32.75
1630070183796,-38.64
1630070183812,-43.95
1630070183828,-47.37
1630070183843,-47.69
1630070183859,-44.18
1630070183875,-36.91
1630070183890,-26.69
1630070183906,-14.81
1630070183921,-2.66
1630070183937,8.57
1630070183953,18.16
1630070183968,25.77
1630070183984,31.34
1630070184000,34.95
1630070184015,36.67
1630070184031,36.67
1630070184046,35.21
1630070184062,32.71
1630070184078,29.7
1630070184093,26.72
1630070184109,24.13
1630070184125,22.03
1630070184140,20.28
1630070184156,18.65
1630070184171,16.95
1630070184187,15.2
1630070184203,13.57
1630070184218,12.25
1630070184234,11.3
1630070184250,10.51
1630070184265,9.44
1630070184281,7.62
1630070184296,4.77
1630070184312,0.89
1630070184328,-3.62
1630070184343,-8.18
1630070184359,-12.27
1630070184375,-15.55
1630070184390,-18.03
1630070184406,-20.02
1630070184421,-22.01
1630070184437,-24.53
1630070184453,-27.97
1630070184468,-32.42
1630070184484,-37.56
1630070184500,-42.61
1630070184515,-46.42
1630070184531,-47.76
1630070184546,-45.67
1630070184562,-39.78
1630070184578,-30.53
1630070184593,-19.06
1630070184609,-6.85
1630070184625,4.64
1630070184640,14.36
1630070184656,21.81
1630070184671,26.87
1630070184687,29.72
1630070184703,30.56
1630070184718,29.6
1630070184734,27.07
1630070184750,23.36
1630070184765,18.97
1630070184781,14.48
1630070184796,10.35
1630070184812,6.9
1630070184828,4.16
1630070184843,2.03
1630070184859,0.37
1630070184875,-0.93
1630070184890,-1.93
1630070184906,-2.73
1630070184921,-3.52
1630070184937,-4.57
1630070184953,-6.17
1630070184968,-8.43
1630070184984,-11.31
1630070185000,-14.52
1630070185015,-17.66
1630070185031,-20.37
1630070185046,-22.42
1630070185062,-23.8
1630070185078,-24.72
1630070185093,-25.62
1630070185109,-27.0
1630070185125,-29.28
1630070185140,-32.59
1630070185156,-36.55
1630070185171,-40.26
1630070185187,-42.45
1630070185203,-41.81
1630070185218,-37.46
1630070185234,-29.27
1630070185250,-17.97
1630070185265,-5.0
1630070185281,7.97
1630070185296,19.46
1630070185312,28.57
1630070185328,35.06
1630070185343,39.19
1630070185359,41.38
1630070185375,41.99
1630070185390,41.23
1630070185406,39.29
1630070185421,36.44
1630070185437,33.14
1630070185453,29.95
1630070185468,27.27
1630070185484,25.25
1630070185500,23.72
1630070185515,22.37
1630070185531,21.0
1630070185546,19.62
1630070185562,18.36
1630070185578,17.34
1630070185593,16.47
1630070185609,15.42
1630070185625,13.71
1630070185640,10.98
1630070185656,7.14
1630070185671,2.43
1630070185687,-2.67
1630070185703,-7.62
1630070185718,-12.01
1630070185734,-15.7
1630070185750,-18.89
1630070185765,-22.03
1630070185781,-25.68
1630070185796,-30.24
1630070185812,-35.66
1630070185828,-41.34
1630070185843,-46.14
1630070185859,-48.7
1630070185875,-47.81
1630070185890,-42.87
1630070185906,-34.13
1630070185921,-22.59
1630070185937,-9.71
1630070185953,3.01
1630070185968,14.41
1630070185984,23.81
1630070186000,30.98
1630070186015,35.97
1630070186031,38.92
1630070186046,39.97
1630070186062,39.33
1630070186078,37.27
1630070186093,34.25
1630070186109,30.81
1630070186125,27.48
1630070186140,24.59
1630070186156,22.24
1630070186171,20.32
1630070186187,18.63
1630070186203,17.03
1630070186218,15.53
1630070186234,14.18
1630070186250,13.07
1630070186265,12.04
1630070186281,10.79
1630070186296,8.9
1630070186312,6.07
1630070186328,2.29
1630070186343,-2.12
1630070186359,-6.63
1630070186375,-10.72
1630070186390,-14.1
1630070186406,-16.76
1630070186421,-18.98
1630070186437,-21.16
1630070186453,-23.65
1630070186468,-26.76
1630070186484,-30.6
1630070186500,-35.01
1630070186515,-39.52
1630070186531,-43.29
1630070186546,-45.2
1630070186562,-44.13
1630070186578,-39.34
1630070186593,-30.79
1630070186609,-19.27
1630070186625,-6.21
1630070186640,6.74
1630070186656,18.22
1630070186671,27.43
1630070186687,34.18
1630070186703,38.7
1630070186718,41.32
1630070186734,42.29
1630070186750,41.77
1630070186765,39.93
1630070186781,37.11
1630070186796,33.8
1630070186812,30.53
1630070186828,27.72
1630070186843,25.48
1630070186859,23.62
1630070186875,21.81
1630070186890,19.77
1630070186906,17.43
1630070186921,14.97
1630070186937,12.65
1630070186953,10.69
1630070186968,9.07
1630070186984,7.55
1630070187000,5.75
1630070187015,3.33
1630070187031,0.13
1630070187046,-3.71
1630070187062,-7.88
1630070187078,-11.94
1630070187093,-15.56
1630070187109,-18.56
1630070187125,-20.99
1630070187140,-23.13
1630070187156,-25.38
1630070187171,-28.18
1630070187187,-31.85
1630070187203,-36.41
1630070187218,-41.49
1630070187234,-46.3
1630070187250,-49.72
1630070187265,-50.6
1630070187281,-48.04
1630070187296,-41.78
1630070187312,-32.2
1630070187328,-20.31
1630070187343,-7.45
1630070187359,4.99
1630070187375,15.89
1630070187390,24.51
1630070187406,30.53
1630070187421,33.95
1630070187437,35.03
1630070187453,34.17
1630070187468,31.87
1630070187484,28.7
1630070187500,25.18
1630070187515,21.79
1630070187531,18.85
1630070187546,16.49
1630070187562,14.63
1630070187578,13.04
1630070187593,11.47
1630070187609,9.7
1630070187625,7.66
1630070187640,5.39
1630070187656,2.97
1630070187671,0.49
1630070187687,-2.09
1630070187703,-4.88
1630070187718,-8.02
1630070187734,-11.56
1630070187750,-15.42
1630070187765,-19.32
1630070187781,-22.89
1630070187796,-25.79
1630070187812,-27.85
1630070187828,-29.18
1630070187843,-30.15
1630070187859,-31.27
1630070187875,-33.02
1630070187890,-35.67
1630070187906,-39.08
1630070187921,-42.65
1630070187937,-45.44
1630070187953,-46.29
1630070187968,-44.18
1630070187984,-38.59
1630070188000,-29.67
1630070188015,-18.26
1630070188031,-5.69
1630070188046,6.57
1630070188062,17.38
1630070188078,26.03
1630070188093,32.33
1630070188109,36.42
1630070188125,38.54
1630070188140,38.95
1630070188156,37.87
1630070188171,35.61
