timestamp,bvp
1630674781593,5.49
1630674781609,5.7
1630674781625,5.49
1630674781640,4.9
1630674781656,4.04
1630674781671,3.02
1630674781687,2.02
1630674781703,1.2
1630674781718,0.7
1630674781734,0.56
1630674781750,0.73
1630674781765,1.07
1630674781781,1.44
1630674781796,1.7
1630674781812,1.85
1630674781828,1.89
1630674781843,1.83
1630674781859,1.61
1630674781875,1.2
1630674781890,0.6
1630674781906,-0.12
1630674781921,-0.77
1630674781937,-1.16
1630674781953,-1.12
1630674781968,-0.57
1630674781984,0.45
1630674782000,1.83
1630674782015,3.4
1630674782031,4.93
1630674782046,6.16
1630674782062,6.85
1630674782078,6.85
1630674782093,6.1
1630674782109,4.64
1630674782125,2.68
1630674782140,0.46
1630674782156,-1.68
1630674782171,-3.46
1630674782187,-4.64
1630674782203,-5.05
1630674782218,-4.64
1630674782234,-3.46
1630674782250,-1.63
1630674782265,0.63
1630674782281,3.12
1630674782296,5.63
1630674782312,7.97
1630674782328,9.92
1630674782343,11.33
1630674782359,12.05
1630674782375,12.05
1630674782390,11.41
1630674782406,10.33
1630674782421,9.1
1630674782437,7.94
1630674782453,6.98
1630674782468,6.22
1630674782484,5.49
1630674782500,4.61
1630674782515,3.45
1630674782531,2.07
1630674782546,0.69
1630674782562,-0.43
1630674782578,-1.06
1630674782593,-1.11
1630674782609,-0.64
1630674782625,0.15
1630674782640,1.07
1630674782656,1.96
1630674782671,2.77
1630674782687,3.53
1630674782703,4.28
1630674782718,5.09
1630674782734,5.95
1630674782750,6.81
1630674782765,7.51
1630674782781,7.81
1630674782796,7.37
1630674782812,5.9
1630674782828,3.28
1630674782843,-0.33
1630674782859,-4.45
1630674782875,-8.41
1630674782890,-11.51
1630674782906,-13.29
1630674782921,-13.62
1630674782937,-12.72
1630674782953,-11.04
1630674782968,-9.06
1630674782984,-7.16
1630674783000,-5.43
1630674783015,-3.77
1630674783031,-1.91
1630674783046,0.4
1630674783062,3.21
1630674783078,6.3
1630674783093,9.16
1630674783109,11.17
1630674783125,11.79
1630674783140,10.81
1630674783156,8.35
1630674783171,4.86
1630674783187,0.91
1630674783203,-2.92
1630674783218,-6.18
1630674783234,-8.57
1630674783250,-9.96
1630674783265,-10.43
1630674783281,-10.17
1630674783296,-9.48
1630674783312,-8.65
1630674783328,-7.91
1630674783343,-7.35
1630674783359,-6.97
1630674783375,-6.75
1630674783390,-6.65
1630674783406,-6.67
1630674783421,-6.79
1630674783437,-6.95
1630674783453,-7.07
1630674783468,-7.06
1630674783484,-6.93
1630674783500,-6.76
1630674783515,-6.68
1630674783531,-6.77
1630674783546,-7.03
1630674783562,-7.35
1630674783578,-7.55
1630674783593,-7.52
1630674783609,-7.27
1630674783625,-6.96
1630674783640,-6.81
1630674783656,-7.04
1630674783671,-7.67
1630674783687,-8.54
1630674783703,-9.29
1630674783718,-9.51
1630674783734,-8.94
1630674783750,-7.53
1630674783765,-5.53
1630674783781,-3.28
1630674783796,-1.1
1630674783812,0.85
1630674783828,2.58
1630674783843,4.15
1630674783859,5.6
1630674783875,6.86
1630674783890,7.84
1630674783906,8.43
1630674783921,8.62
1630674783937,8.5
1630674783953,8.16
1630674783968,7.69
1630674783984,7.12
1630674784000,6.48
1630674784015,5.81
1630674784031,5.21
1630674784046,4.78
1630674784062,4.54
1630674784078,4.46
1630674784093,4.44
1630674784109,4.38
1630674784125,4.18
1630674784140,3.84
1630674784156,3.32
1630674784171,2.66
1630674784187,1.9
1630674784203,1.08
1630674784218,0.27
1630674784234,-0.48
1630674784250,-1.14
1630674784265,-1.78
1630674784281,-2.43
1630674784296,-3.11
1630674784312,-3.78
1630674784328,-4.34
1630674784343,-4.69
1630674784359,-4.84
1630674784375,-4.85
1630674784390,-4.84
1630674784406,-4.92
1630674784421,-5.14
1630674784437,-5.49
1630674784453,-5.95
1630674784468,-6.5
1630674784484,-7.09
1630674784500,-7.63
1630674784515,-7.95
1630674784531,-7.86
1630674784546,-7.19
1630674784562,-5.93
1630674784578,-4.18
1630674784593,-2.17
1630674784609,-0.11
1630674784625,1.86
1630674784640,3.69
1630674784656,5.34
1630674784671,6.71
1630674784687,7.69
1630674784703,8.14
1630674784718,8.06
1630674784734,7.52
1630674784750,6.74
1630674784765,5.97
1630674784781,5.41
1630674784796,5.15
1630674784812,5.18
1630674784828,5.42
1630674784843,5.76
1630674784859,6.09
1630674784875,6.29
1630674784890,6.27
1630674784906,5.98
1630674784921,5.41
1630674784937,4.6
1630674784953,3.67
1630674784968,2.71
1630674784984,1.8
1630674785000,1.02
1630674785015,0.47
1630674785031,0.17
1630674785046,0.07
1630674785062,0.06
1630674785078,0.01
1630674785093,-0.21
1630674785109,-0.64
1630674785125,-1.24
1630674785140,-1.91
1630674785156,-2.56
1630674785171,-3.19
1630674785187,-3.86
1630674785203,-4.65
1630674785218,-5.58
1630674785234,-6.56
1630674785250,-7.37
1630674785265,-7.79
1630674785281,-7.65
1630674785296,-6.93
1630674785312,-5.77
1630674785328,-4.36
1630674785343,-2.94
1630674785359,-1.65
1630674785375,-0.54
1630674785390,0.4
1630674785406,1.23
1630674785421,2.04
1630674785437,2.81
1630674785453,3.51
1630674785468,4.11
1630674785484,4.58
1630674785500,4.94
1630674785515,5.26
1630674785531,5.58
1630674785546,5.96
1630674785562,6.34
1630674785578,6.68
1630674785593,6.85
1630674785609,6.84
1630674785625,6.62
1630674785640,6.27
1630674785656,5.91
1630674785671,5.6
1630674785687,5.39
1630674785703,5.2
1630674785718,4.96
1630674785734,4.55
1630674785750,3.93
1630674785765,3.09
1630674785781,2.1
1630674785796,1.07
1630674785812,0.09
1630674785828,-0.78
1630674785843,-1.54
1630674785859,-2.2
1630674785875,-2.83
1630674785890,-3.43
1630674785906,-4.04
1630674785921,-4.65
1630674785937,-5.28
1630674785953,-5.93
1630674785968,-6.64
1630674785984,-7.44
1630674786000,-8.27
1630674786015,-9.07
1630674786031,-9.62
1630674786046,-9.73
1630674786062,-9.23
1630674786078,-8.11
1630674786093,-6.48
1630674786109,-4.58
1630674786125,-2.63
1630674786140,-0.77
1630674786156,0.96
1630674786171,2.6
1630674786187,4.14
1630674786203,5.46
1630674786218,6.43
1630674786234,6.88
1630674786250,6.79
1630674786265,6.23
1630674786281,5.41
1630674786296,4.53
1630674786312,3.75
1630674786328,3.13
1630674786343,2.68
1630674786359,2.36
1630674786375,2.15
1630674786390,2.02
1630674786406,1.93
1630674786421,1.84
1630674786437,1.69
1630674786453,1.46
1630674786468,1.1
1630674786484,0.61
1630674786500,0.01
1630674786515,-0.65
1630674786531,-1.32
1630674786546,-1.92
1630674786562,-2.43
1630674786578,-2.84
1630674786593,-3.2
1630674786609,-3.61
1630674786625,-4.15
1630674786640,-4.86
1630674786656,-5.68
1630674786671,-6.49
1630674786687,-7.17
1630674786703,-7.6
1630674786718,-7.8
1630674786734,-7.85
1630674786750,-7.83
1630674786765,-7.81
1630674786781,-7.74
1630674786796,-7.51
1630674786812,-6.99
1630674786828,-6.16
1630674786843,-5.05
1630674786859,-3.76
1630674786875,-2.37
1630674786890,-0.9
1630674786906,0.64
1630674786921,2.23
1630674786937,3.81
1630674786953,5.26
1630674786968,6.47
1630674786984,7.35
1630674787000,7.87
1630674787015,8.09
1630674787031,8.06
1630674787046,7.85
1630674787062,7.53
1630674787078,7.17
1630674787093,6.86
1630674787109,6.67
1630674787125,6.65
1630674787140,6.74
1630674787156,6.84
1630674787171,6.84
1630674787187,6.66
1630674787203,6.32
1630674787218,5.88
1630674787234,5.42
1630674787250,4.99
1630674787265,4.55
1630674787281,4.04
1630674787296,3.37
1630674787312,2.49
1630674787328,1.41
1630674787343,0.19
1630674787359,-1.04
1630674787375,-2.18
1630674787390,-3.12
1630674787406,-3.83
1630674787421,-4.35
1630674787437,-4.78
1630674787453,-5.29
1630674787468,-6.0
1630674787484,-6.95
1630674787500,-8.01
1630674787515,-8.94
1630674787531,-9.42
1630674787546,-9.22
1630674787562,-8.3
1630674787578,-6.82
1630674787593,-5.05
1630674787609,-3.24
1630674787625,-1.54
1630674787640,0.09
1630674787656,1.71
1630674787671,3.36
1630674787687,4.95
1630674787703,6.26
1630674787718,7.15
1630674787734,7.57
1630674787750,7.67
1630674787765,7.7
1630674787781,7.89
1630674787796,8.32
1630674787812,8.87
1630674787828,9.37
1630674787843,9.63
1630674787859,9.65
1630674787875,9.46
1630674787890,9.12
1630674787906,8.64
1630674787921,7.99
1630674787937,7.14
1630674787953,6.15
1630674787968,5.16
1630674787984,4.27
1630674788000,3.53
1630674788015,2.88
1630674788031,2.16
1630674788046,1.27
1630674788062,0.2
1630674788078,-0.92
1630674788093,-1.98
1630674788109,-2.91
1630674788125,-3.79
1630674788140,-4.71
1630674788156,-5.75
1630674788171,-6.91
1630674788187,-8.04
1630674788203,-8.98
1630674788218,-9.63
1630674788234,-9.99
1630674788250,-10.14
1630674788265,-10.17
1630674788281,-10.12
1630674788296,-9.89
1630674788312,-9.37
1630674788328,-8.49
1630674788343,-7.26
1630674788359,-5.81
1630674788375,-4.33
1630674788390,-2.93
1630674788406,-1.66
1630674788421,-0.44
1630674788437,0.83
1630674788453,2.18
1630674788468,3.57
1630674788484,4.85
1630674788500,5.88
1630674788515,6.56
1630674788531,6.88
1630674788546,6.95
1630674788562,6.88
1630674788578,6.77
1630674788593,6.69
1630674788609,6.61
1630674788625,6.47
1630674788640,6.24
1630674788656,5.98
1630674788671,5.77
1630674788687,5.66
1630674788703,5.68
1630674788718,5.7
1630674788734,5.57
1630674788750,5.19
1630674788765,4.56
1630674788781,3.84
1630674788796,3.22
1630674788812,2.79
1630674788828,2.49
1630674788843,2.09
1630674788859,1.28
1630674788875,-0.13
1630674788890,-2.14
1630674788906,-4.54
1630674788921,-6.93
1630674788937,-8.95
1630674788953,-10.33
1630674788968,-11.0
1630674788984,-11.13
1630674789000,-11.09
1630674789015,-11.27
1630674789031,-12.0
1630674789046,-13.36
1630674789062,-15.07
1630674789078,-16.59
1630674789093,-17.2
1630674789109,-16.24
1630674789125,-13.27
1630674789140,-8.28
1630674789156,-1.63
1630674789171,5.99
1630674789187,13.73
1630674789203,20.85
1630674789218,26.8
1630674789234,31.41
1630674789250,34.77
1630674789265,37.11
1630674789281,38.72
1630674789296,39.77
1630674789312,40.31
1630674789328,40.28
1630674789343,39.55
1630674789359,37.93
1630674789375,35.26
1630674789390,31.46
1630674789406,26.65
1630674789421,21.22
1630674789437,15.78
1630674789453,11.07
1630674789468,7.59
1630674789484,5.49
1630674789500,4.49
1630674789515,4.06
1630674789531,3.72
1630674789546,3.21
1630674789562,2.49
1630674789578,1.65
1630674789593,0.68
1630674789609,-0.57
1630674789625,-2.28
1630674789640,-4.46
1630674789656,-6.89
1630674789671,-9.05
1630674789687,-10.38
1630674789703,-10.58
1630674789718,-9.7
1630674789734,-8.17
1630674789750,-6.64
1630674789765,-5.68
1630674789781,-5.53
1630674789796,-6.13
1630674789812,-7.09
1630674789828,-7.93
1630674789843,-8.2
1630674789859,-7.65
1630674789875,-6.3
1630674789890,-4.58
1630674789906,-3.27
1630674789921,-3.39
1630674789937,-5.88
1630674789953,-11.21
1630674789968,-19.06
1630674789984,-28.25
1630674790000,-36.98
1630674790015,-43.42
1630674790031,-46.25
1630674790046,-45.03
1630674790062,-40.25
1630674790078,-32.96
1630674790093,-24.43
1630674790109,-15.79
1630674790125,-7.84
1630674790140,-1.16
1630674790156,3.86
1630674790171,6.97
1630674790187,8.12
1630674790203,7.53
1630674790218,5.68
1630674790234,3.22
1630674790250,0.75
1630674790265,-1.28
1630674790281,-2.7
1630674790296,-3.55
1630674790312,-3.99
1630674790328,-4.21
1630674790343,-4.36
1630674790359,-4.52
1630674790375,-4.7
1630674790390,-4.82
1630674790406,-4.8
1630674790421,-4.59
1630674790437,-4.17
1630674790453,-3.62
1630674790468,-3.07
1630674790484,-2.65
1630674790500,-2.48
1630674790515,-2.62
1630674790531,-3.04
1630674790546,-3.63
1630674790562,-4.29
1630674790578,-4.86
1630674790593,-5.24
1630674790609,-5.41
1630674790625,-5.43
1630674790640,-5.38
1630674790656,-5.38
1630674790671,-5.51
1630674790687,-5.8
1630674790703,-6.28
1630674790718,-6.94
1630674790734,-7.72
1630674790750,-8.46
1630674790765,-8.98
1630674790781,-9.08
1630674790796,-8.62
1630674790812,-7.6
1630674790828,-6.13
1630674790843,-4.46
1630674790859,-2.85
1630674790875,-1.52
1630674790890,-0.55
1630674790906,0.11
1630674790921,0.56
1630674790937,0.96
1630674790953,1.38
1630674790968,1.83
1630674790984,2.23
1630674791000,2.54
1630674791015,2.73
1630674791031,2.9
1630674791046,3.15
1630674791062,3.55
1630674791078,4.07
1630674791093,4.58
1630674791109,4.93
1630674791125,5.04
1630674791140,4.94
1630674791156,4.79
1630674791171,4.69
1630674791187,4.72
1630674791203,4.8
1630674791218,4.78
1630674791234,4.55
1630674791250,4.1
1630674791265,3.57
1630674791281,3.12
1630674791296,2.89
1630674791312,2.82
1630674791328,2.74
1630674791343,2.44
1630674791359,1.82
1630674791375,0.92
1630674791390,-0.1
1630674791406,-1.03
1630674791421,-1.73
1630674791437,-2.19
1630674791453,-2.56
1630674791468,-2.98
1630674791484,-3.52
1630674791500,-4.21
1630674791515,-5.0
1630674791531,-5.86
1630674791546,-6.75
1630674791562,-7.6
1630674791578,-8.26
1630674791593,-8.55
1630674791609,-8.24
1630674791625,-7.25
1630674791640,-5.63
1630674791656,-3.58
1630674791671,-1.4
1630674791687,0.6
1630674791703,2.2
1630674791718,3.25
1630674791734,3.71
1630674791750,3.67
1630674791765,3.33
1630674791781,2.96
1630674791796,2.84
1630674791812,3.11
1630674791828,3.72
1630674791843,4.47
1630674791859,5.08
1630674791875,5.41
1630674791890,5.46
1630674791906,5.38
1630674791921,5.31
1630674791937,5.31
1630674791953,5.3
1630674791968,5.13
1630674791984,4.7
1630674792000,4.02
1630674792015,3.24
1630674792031,2.53
1630674792046,1.99
1630674792062,1.66
1630674792078,1.45
1630674792093,1.29
1630674792109,1.13
1630674792125,1.02
1630674792140,1.02
1630674792156,1.17
1630674792171,1.4
1630674792187,1.54
1630674792203,1.44
1630674792218,1.01
1630674792234,0.25
1630674792250,-0.7
1630674792265,-1.67
1630674792281,-2.57
1630674792296,-3.4
1630674792312,-4.24
1630674792328,-5.2
1630674792343,-6.27
1630674792359,-7.37
1630674792375,-8.34
1630674792390,-9.01
1630674792406,-9.23
1630674792421,-8.93
1630674792437,-8.08
1630674792453,-6.71
1630674792468,-4.91
1630674792484,-2.79
1630674792500,-0.51
1630674792515,1.72
1630674792531,3.73
1630674792546,5.36
1630674792562,6.5
1630674792578,7.1
1630674792593,7.17
1630674792609,6.79
1630674792625,6.12
1630674792640,5.35
1630674792656,4.68
1630674792671,4.24
1630674792687,4.06
1630674792703,4.09
1630674792718,4.23
1630674792734,4.37
1630674792750,4.46
1630674792765,4.49
1630674792781,4.45
1630674792796,4.36
1630674792812,4.18
1630674792828,3.85
1630674792843,3.36
1630674792859,2.74
1630674792875,2.09
1630674792890,1.51
1630674792906,1.1
1630674792921,0.91
1630674792937,0.91
1630674792953,1.03
1630674792968,1.15
1630674792984,1.12
1630674793000,0.83
1630674793015,0.24
1630674793031,-0.55
1630674793046,-1.41
1630674793062,-2.13
1630674793078,-2.59
1630674793093,-2.77
1630674793109,-2.78
1630674793125,-2.82
1630674793140,-3.05
1630674793156,-3.56
1630674793171,-4.33
1630674793187,-5.28
1630674793203,-6.31
1630674793218,-7.27
1630674793234,-7.99
1630674793250,-8.26
1630674793265,-7.89
1630674793281,-6.77
1630674793296,-5.01
1630674793312,-2.9
1630674793328,-0.84
1630674793343,0.83
1630674793359,2.0
1630674793375,2.72
1630674793390,3.14
1630674793406,3.43
1630674793421,3.62
1630674793437,3.63
1630674793453,3.37
1630674793468,2.82
1630674793484,2.06
1630674793500,1.28
1630674793515,0.64
1630674793531,0.26
1630674793546,0.15
1630674793562,0.24
1630674793578,0.46
1630674793593,0.76
1630674793609,1.12
1630674793625,1.5
1630674793640,1.92
1630674793656,2.34
1630674793671,2.68
1630674793687,2.87
1630674793703,2.83
1630674793718,2.57
1630674793734,2.16
1630674793750,1.72
1630674793765,1.38
1630674793781,1.15
1630674793796,0.99
1630674793812,0.75
1630674793828,0.37
1630674793843,-0.16
1630674793859,-0.73
1630674793875,-1.24
1630674793890,-1.62
1630674793906,-1.92
1630674793921,-2.2
1630674793937,-2.58
1630674793953,-3.04
1630674793968,-3.57
1630674793984,-4.13
1630674794000,-4.68
1630674794015,-5.2
1630674794031,-5.62
1630674794046,-5.83
1630674794062,-5.73
1630674794078,-5.29
1630674794093,-4.56
1630674794109,-3.71
1630674794125,-2.85
1630674794140,-2.05
1630674794156,-1.24
1630674794171,-0.32
1630674794187,0.75
1630674794203,1.91
1630674794218,2.98
1630674794234,3.77
1630674794250,4.2
1630674794265,4.27
1630674794281,4.11
1630674794296,3.87
1630674794312,3.63
1630674794328,3.46
1630674794343,3.34
1630674794359,3.3
1630674794375,3.38
1630674794390,3.64
1630674794406,4.09
1630674794421,4.68
1630674794437,5.29
1630674794453,5.78
1630674794468,6.03
1630674794484,5.94
1630674794500,5.49
1630674794515,4.7
1630674794531,3.6
1630674794546,2.33
1630674794562,1.07
1630674794578,0.03
1630674794593,-0.62
1630674794609,-0.85
1630674794625,-0.74
1630674794640,-0.49
1630674794656,-0.29
1630674794671,-0.26
1630674794687,-0.41
1630674794703,-0.65
1630674794718,-0.93
1630674794734,-1.21
1630674794750,-1.52
1630674794765,-1.91
1630674794781,-2.39
1630674794796,-2.92
1630674794812,-3.44
1630674794828,-3.93
1630674794843,-4.43
1630674794859,-5.05
1630674794875,-5.87
1630674794890,-6.86
1630674794906,-7.87
1630674794921,-8.58
1630674794937,-8.73
1630674794953,-8.17
1630674794968,-6.89
1630674794984,-5.08
1630674795000,-3.01
1630674795015,-0.94
1630674795031,0.95
1630674795046,2.56
1630674795062,3.88
1630674795078,4.86
1630674795093,5.51
1630674795109,5.85
1630674795125,5.93
1630674795140,5.84
1630674795156,5.7
1630674795171,5.62
1630674795187,5.62
1630674795203,5.71
1630674795218,5.82
1630674795234,5.93
1630674795250,5.97
1630674795265,5.91
1630674795281,5.73
1630674795296,5.41
1630674795312,4.95
1630674795328,4.38
1630674795343,3.8
1630674795359,3.3
1630674795375,2.96
1630674795390,2.82
1630674795406,2.85
1630674795421,2.97
1630674795437,3.05
1630674795453,2.99
1630674795468,2.71
1630674795484,2.19
1630674795500,1.44
1630674795515,0.51
1630674795531,-0.49
1630674795546,-1.47
1630674795562,-2.32
1630674795578,-2.95
1630674795593,-3.32
1630674795609,-3.41
1630674795625,-3.29
1630674795640,-3.03
1630674795656,-2.78
1630674795671,-2.61
1630674795687,-2.64
1630674795703,-2.9
1630674795718,-3.37
1630674795734,-4.0
1630674795750,-4.67
1630674795765,-5.22
1630674795781,-5.5
1630674795796,-5.43
1630674795812,-4.97
1630674795828,-4.23
1630674795843,-3.39
1630674795859,-2.61
1630674795875,-1.93
1630674795890,-1.33
1630674795906,-0.72
1630674795921,-0.04
1630674795937,0.64
1630674795953,1.22
1630674795968,1.58
1630674795984,1.71
1630674796000,1.71
1630674796015,1.7
1630674796031,1.79
1630674796046,2.04
1630674796062,2.4
1630674796078,2.81
1630674796093,3.19
1630674796109,3.51
1630674796125,3.72
1630674796140,3.78
1630674796156,3.65
1630674796171,3.31
1630674796187,2.8
1630674796203,2.16
1630674796218,1.48
1630674796234,0.8
1630674796250,0.17
1630674796265,-0.4
1630674796281,-0.84
1630674796296,-1.09
1630674796312,-1.08
1630674796328,-0.74
1630674796343,-0.14
1630674796359,0.58
1630674796375,1.18
1630674796390,1.46
1630674796406,1.27
1630674796421,0.6
1630674796437,-0.39
1630674796453,-1.48
1630674796468,-2.44
1630674796484,-3.12
1630674796500,-3.52
1630674796515,-3.73
1630674796531,-3.95
1630674796546,-4.34
1630674796562,-5.02
1630674796578,-5.95
1630674796593,-6.99
1630674796609,-7.9
1630674796625,-8.43
1630674796640,-8.39
1630674796656,-7.7
1630674796671,-6.38
1630674796687,-4.57
1630674796703,-2.44
1630674796718,-0.23
1630674796734,1.87
1630674796750,3.67
1630674796765,5.04
1630674796781,5.91
1630674796796,6.25
1630674796812,6.11
1630674796828,5.63
1630674796843,5.0
1630674796859,4.44
1630674796875,4.11
1630674796890,4.13
1630674796906,4.45
1630674796921,4.95
1630674796937,5.51
1630674796953,6.09
1630674796968,6.7
1630674796984,7.35
1630674797000,7.98
1630674797015,8.46
1630674797031,8.61
1630674797046,8.3
1630674797062,7.57
1630674797078,6.55
1630674797093,5.46
1630674797109,4.51
1630674797125,3.79
1630674797140,3.32
1630674797156,3.04
1630674797171,2.87
1630674797187,2.73
1630674797203,2.55
1630674797218,2.28
1630674797234,1.87
1630674797250,1.31
1630674797265,0.6
1630674797281,-0.23
1630674797296,-1.12
1630674797312,-1.98
1630674797328,-2.73
1630674797343,-3.31
1630674797359,-3.72
1630674797375,-4.02
1630674797390,-4.34
1630674797406,-4.81
1630674797421,-5.5
1630674797437,-6.37
1630674797453,-7.23
1630674797468,-7.81
1630674797484,-7.96
1630674797500,-7.54
1630674797515,-6.63
1630674797531,-5.4
1630674797546,-4.05
1630674797562,-2.75
1630674797578,-1.55
1630674797593,-0.43
1630674797609,0.65
1630674797625,1.69
1630674797640,2.6
1630674797656,3.29
1630674797671,3.7
1630674797687,3.84
1630674797703,3.8
1630674797718,3.65
1630674797734,3.47
1630674797750,3.28
1630674797765,3.06
1630674797781,2.85
1630674797796,2.71
1630674797812,2.7
1630674797828,2.83
1630674797843,3.03
1630674797859,3.22
1630674797875,3.3
1630674797890,3.27
1630674797906,3.21
1630674797921,3.16
1630674797937,3.14
1630674797953,3.11
1630674797968,2.97
1630674797984,2.67
1630674798000,2.24
1630674798015,1.72
1630674798031,1.21
1630674798046,0.67
1630674798062,0.06
1630674798078,-0.66
1630674798093,-1.48
1630674798109,-2.29
1630674798125,-2.94
1630674798140,-3.38
1630674798156,-3.66
1630674798171,-3.92
1630674798187,-4.32
1630674798203,-4.93
1630674798218,-5.69
1630674798234,-6.45
1630674798250,-7.07
1630674798265,-7.5
1630674798281,-7.74
1630674798296,-7.81
1630674798312,-7.67
1630674798328,-7.24
1630674798343,-6.39
1630674798359,-5.12
1630674798375,-3.54
1630674798390,-1.89
1630674798406,-0.46
1630674798421,0.58
1630674798437,1.19
1630674798453,1.56
1630674798468,1.91
1630674798484,2.44
1630674798500,3.18
1630674798515,4.0
1630674798531,4.72
1630674798546,5.18
1630674798562,5.36
1630674798578,5.33
1630674798593,5.24
1630674798609,5.2
1630674798625,5.21
1630674798640,5.21
1630674798656,5.08
1630674798671,4.82
1630674798687,4.43
1630674798703,4.02
1630674798718,3.62
1630674798734,3.21
1630674798750,2.76
1630674798765,2.24
1630674798781,1.74
1630674798796,1.36
1630674798812,1.23
1630674798828,1.35
1630674798843,1.64
1630674798859,1.89
1630674798875,1.9
1630674798890,1.53
1630674798906,0.77
1630674798921,-0.27
1630674798937,-1.42
1630674798953,-2.56
1630674798968,-3.63
1630674798984,-4.6
1630674799000,-5.48
1630674799015,-6.24
1630674799031,-6.87
1630674799046,-7.36
1630674799062,-7.7
1630674799078,-7.91
1630674799093,-8.0
1630674799109,-7.99
1630674799125,-7.84
1630674799140,-7.45
1630674799156,-6.72
1630674799171,-5.57
1630674799187,-4.04
1630674799203,-2.26
1630674799218,-0.42
1630674799234,1.26
1630674799250,2.62
1630674799265,3.62
1630674799281,4.29
1630674799296,4.71
1630674799312,4.93
1630674799328,5.01
1630674799343,4.93
1630674799359,4.68
1630674799375,4.29
1630674799390,3.8
1630674799406,3.31
1630674799421,2.91
1630674799437,2.72
1630674799453,2.79
1630674799468,3.13
1630674799484,3.68
1630674799500,4.29
1630674799515,4.77
1630674799531,4.91
1630674799546,4.61
1630674799562,3.9
1630674799578,2.95
1630674799593,1.99
1630674799609,1.21
1630674799625,0.69
1630674799640,0.32
1630674799656,-0.06
1630674799671,-0.61
1630674799687,-1.36
1630674799703,-2.19
1630674799718,-2.92
1630674799734,-3.39
1630674799750,-3.59
1630674799765,-3.67
1630674799781,-3.86
1630674799796,-4.27
1630674799812,-4.91
1630674799828,-5.66
1630674799843,-6.32
1630674799859,-6.8
1630674799875,-7.1
1630674799890,-7.31
1630674799906,-7.52
1630674799921,-7.68
1630674799937,-7.64
1630674799953,-7.22
1630674799968,-6.27
1630674799984,-4.83
1630674800000,-3.05
1630674800015,-1.16
1630674800031,0.66
1630674800046,2.23
1630674800062,3.5
1630674800078,4.39
1630674800093,4.87
1630674800109,4.92
1630674800125,4.6
1630674800140,4.06
1630674800156,3.49
1630674800171,3.11
1630674800187,2.98
1630674800203,3.11
1630674800218,3.36
1630674800234,3.6
1630674800250,3.74
1630674800265,3.8
1630674800281,3.8
1630674800296,3.77
1630674800312,3.73
1630674800328,3.59
1630674800343,3.28
1630674800359,2.76
1630674800375,2.06
1630674800390,1.25
1630674800406,0.43
1630674800421,-0.33
1630674800437,-0.97
1630674800453,-1.5
1630674800468,-1.91
1630674800484,-2.23
1630674800500,-2.5
1630674800515,-2.78
1630674800531,-3.11
1630674800546,-3.52
1630674800562,-3.98
1630674800578,-4.5
1630674800593,-5.06
1630674800609,-5.66
1630674800625,-6.34
1630674800640,-7.08
1630674800656,-7.77
1630674800671,-8.24
1630674800687,-8.31
1630674800703,-7.81
1630674800718,-6.74
1630674800734,-5.19
1630674800750,-3.37
1630674800765,-1.46
1630674800781,0.35
1630674800796,1.96
1630674800812,3.35
1630674800828,4.48
1630674800843,5.36
1630674800859,5.97
1630674800875,6.35
1630674800890,6.56
1630674800906,6.72
1630674800921,6.92
1630674800937,7.2
1630674800953,7.55
1630674800968,7.9
1630674800984,8.15
1630674801000,8.24
1630674801015,8.1
1630674801031,7.74
1630674801046,7.2
1630674801062,6.51
1630674801078,5.72
1630674801093,4.9
1630674801109,4.11
1630674801125,3.41
1630674801140,2.83
1630674801156,2.37
1630674801171,2.02
1630674801187,1.69
1630674801203,1.34
1630674801218,0.91
1630674801234,0.38
1630674801250,-0.21
1630674801265,-0.8
1630674801281,-1.33
1630674801296,-1.71
1630674801312,-1.95
1630674801328,-2.12
1630674801343,-2.34
1630674801359,-2.75
1630674801375,-3.49
1630674801390,-4.58
1630674801406,-5.97
1630674801421,-7.47
1630674801437,-8.86
1630674801453,-9.88
1630674801468,-10.34
1630674801484,-10.12
1630674801500,-9.18
1630674801515,-7.6
1630674801531,-5.54
1630674801546,-3.25
1630674801562,-1.02
1630674801578,0.86
1630674801593,2.23
1630674801609,3.07
1630674801625,3.51
1630674801640,3.73
1630674801656,3.91
1630674801671,4.1
1630674801687,4.3
1630674801703,4.44
1630674801718,4.46
1630674801734,4.37
1630674801750,4.22
1630674801765,4.08
1630674801781,3.95
1630674801796,3.85
1630674801812,3.75
1630674801828,3.63
1630674801843,3.51
1630674801859,3.42
1630674801875,3.34
1630674801890,3.25
1630674801906,3.1
1630674801921,2.88
1630674801937,2.57
1630674801953,2.22
1630674801968,1.88
1630674801984,1.58
1630674802000,1.29
1630674802015,0.94
1630674802031,0.46
1630674802046,-0.19
1630674802062,-1.01
1630674802078,-1.91
1630674802093,-2.8
1630674802109,-3.58
1630674802125,-4.24
1630674802140,-4.86
1630674802156,-5.52
1630674802171,-6.37
1630674802187,-7.41
1630674802203,-8.57
1630674802218,-9.67
1630674802234,-10.52
1630674802250,-10.93
1630674802265,-10.84
1630674802281,-10.24
1630674802296,-9.17
1630674802312,-7.7
1630674802328,-5.92
1630674802343,-3.98
1630674802359,-2.07
1630674802375,-0.36
1630674802390,0.99
1630674802406,1.98
1630674802421,2.66
1630674802437,3.13
1630674802453,3.5
1630674802468,3.82
1630674802484,4.11
1630674802500,4.39
1630674802515,4.71
1630674802531,5.08
1630674802546,5.48
1630674802562,5.84
1630674802578,6.05
1630674802593,6.04
1630674802609,5.81
1630674802625,5.38
1630674802640,4.8
1630674802656,4.14
1630674802671,3.48
1630674802687,2.89
1630674802703,2.47
1630674802718,2.27
1630674802734,2.19
1630674802750,2.09
1630674802765,1.82
1630674802781,1.26
1630674802796,0.46
1630674802812,-0.45
1630674802828,-1.28
1630674802843,-1.92
1630674802859,-2.4
1630674802875,-2.9
1630674802890,-3.58
1630674802906,-4.53
1630674802921,-5.67
1630674802937,-6.82
1630674802953,-7.77
1630674802968,-8.36
1630674802984,-8.51
1630674803000,-8.3
1630674803015,-7.84
1630674803031,-7.23
1630674803046,-6.51
1630674803062,-5.66
1630674803078,-4.61
1630674803093,-3.34
1630674803109,-1.91
1630674803125,-0.45
1630674803140,0.91
1630674803156,2.07
1630674803171,3.06
1630674803187,3.93
1630674803203,4.74
1630674803218,5.49
1630674803234,6.12
1630674803250,6.52
1630674803265,6.61
1630674803281,6.44
1630674803296,6.09
1630674803312,5.74
1630674803328,5.51
1630674803343,5.41
1630674803359,5.38
1630674803375,5.31
1630674803390,5.13
1630674803406,4.84
1630674803421,4.54
1630674803437,4.32
1630674803453,4.27
1630674803468,4.37
1630674803484,4.55
1630674803500,4.7
1630674803515,4.69
1630674803531,4.46
1630674803546,3.96
1630674803562,3.21
1630674803578,2.26
1630674803593,1.21
1630674803609,0.13
1630674803625,-0.91
1630674803640,-1.89
1630674803656,-2.86
1630674803671,-3.86
1630674803687,-4.93
1630674803703,-6.0
1630674803718,-6.98
1630674803734,-7.72
1630674803750,-8.13
1630674803765,-8.19
1630674803781,-7.89
1630674803796,-7.29
1630674803812,-6.43
1630674803828,-5.33
1630674803843,-4.03
1630674803859,-2.57
1630674803875,-1.05
1630674803890,0.48
1630674803906,1.93
1630674803921,3.21
1630674803937,4.23
1630674803953,4.87
1630674803968,5.08
1630674803984,4.89
1630674804000,4.44
1630674804015,3.97
1630674804031,3.65
1630674804046,3.57
1630674804062,3.68
1630674804078,3.85
1630674804093,3.99
1630674804109,4.04
1630674804125,4.01
1630674804140,3.91
1630674804156,3.75
1630674804171,3.47
1630674804187,3.04
1630674804203,2.5
1630674804218,1.95
1630674804234,1.51
1630674804250,1.27
1630674804265,1.2
1630674804281,1.17
1630674804296,1.03
1630674804312,0.67
1630674804328,0.05
1630674804343,-0.77
1630674804359,-1.66
1630674804375,-2.53
1630674804390,-3.29
1630674804406,-3.93
1630674804421,-4.44
1630674804437,-4.89
1630674804453,-5.35
1630674804468,-5.88
1630674804484,-6.55
1630674804500,-7.35
1630674804515,-8.24
1630674804531,-9.11
1630674804546,-9.76
1630674804562,-10.04
1630674804578,-9.81
1630674804593,-9.05
1630674804609,-7.8
1630674804625,-6.2
1630674804640,-4.39
1630674804656,-2.49
1630674804671,-0.57
1630674804687,1.31
1630674804703,3.09
1630674804718,4.69
1630674804734,6.01
1630674804750,6.99
1630674804765,7.54
1630674804781,7.63
1630674804796,7.28
1630674804812,6.6
1630674804828,5.81
1630674804843,5.09
1630674804859,4.64
1630674804875,4.46
1630674804890,4.48
1630674804906,4.48
1630674804921,4.34
1630674804937,4.02
1630674804953,3.62
1630674804968,3.29
1630674804984,3.09
1630674805000,3.02
1630674805015,2.96
1630674805031,2.82
1630674805046,2.55
1630674805062,2.19
1630674805078,1.79
1630674805093,1.38
1630674805109,0.88
1630674805125,0.23
1630674805140,-0.59
1630674805156,-1.58
1630674805171,-2.59
1630674805187,-3.49
1630674805203,-4.18
1630674805218,-4.66
1630674805234,-5.0
1630674805250,-5.32
1630674805265,-5.68
1630674805281,-6.06
1630674805296,-6.43
1630674805312,-6.73
1630674805328,-6.98
1630674805343,-7.19
1630674805359,-7.42
1630674805375,-7.63
1630674805390,-7.67
1630674805406,-7.32
1630674805421,-6.41
1630674805437,-4.9
1630674805453,-2.95
1630674805468,-0.88
1630674805484,0.97
1630674805500,2.33
1630674805515,3.08
1630674805531,3.23
1630674805546,2.91
1630674805562,2.28
1630674805578,1.52
1630674805593,0.81
1630674805609,0.31
1630674805625,0.15
1630674805640,0.37
1630674805656,0.88
1630674805671,1.55
1630674805687,2.14
1630674805703,2.51
1630674805718,2.6
1630674805734,2.44
1630674805750,2.15
1630674805765,1.82
1630674805781,1.51
1630674805796,1.27
1630674805812,1.14
1630674805828,1.12
1630674805843,1.27
1630674805859,1.56
1630674805875,1.93
1630674805890,2.25
1630674805906,2.4
1630674805921,2.3
1630674805937,1.99
1630674805953,1.62
1630674805968,1.35
1630674805984,1.31
1630674806000,1.43
1630674806015,1.57
1630674806031,1.52
1630674806046,1.14
1630674806062,0.37
1630674806078,-0.7
1630674806093,-1.94
1630674806109,-3.19
1630674806125,-4.31
1630674806140,-5.16
1630674806156,-5.61
1630674806171,-5.55
1630674806187,-4.97
1630674806203,-3.94
1630674806218,-2.62
1630674806234,-1.19
1630674806250,0.18
1630674806265,1.42
1630674806281,2.53
1630674806296,3.53
1630674806312,4.42
1630674806328,5.12
1630674806343,5.55
1630674806359,5.67
1630674806375,5.49
1630674806390,5.11
1630674806406,4.62
1630674806421,4.12
1630674806437,3.67
1630674806453,3.3
1630674806468,3.01
1630674806484,2.79
1630674806500,2.65
1630674806515,2.62
1630674806531,2.67
1630674806546,2.78
1630674806562,2.87
1630674806578,2.9
1630674806593,2.84
1630674806609,2.7
1630674806625,2.5
1630674806640,2.27
1630674806656,1.99
1630674806671,1.65
1630674806687,1.21
1630674806703,0.67
1630674806718,0.09
1630674806734,-0.47
1630674806750,-0.94
1630674806765,-1.34
1630674806781,-1.75
1630674806796,-2.26
1630674806812,-2.88
1630674806828,-3.54
1630674806843,-4.14
1630674806859,-4.58
1630674806875,-4.93
1630674806890,-5.31
1630674806906,-5.9
1630674806921,-6.77
1630674806937,-7.83
1630674806953,-8.8
1630674806968,-9.39
1630674806984,-9.33
1630674807000,-8.59
1630674807015,-7.26
1630674807031,-5.59
1630674807046,-3.86
1630674807062,-2.29
1630674807078,-1.01
1630674807093,-0.02
1630674807109,0.74
1630674807125,1.4
1630674807140,2.05
1630674807156,2.73
1630674807171,3.4
1630674807187,3.96
1630674807203,4.32
1630674807218,4.44
1630674807234,4.37
1630674807250,4.19
1630674807265,4.0
1630674807281,3.86
1630674807296,3.82
1630674807312,3.87
1630674807328,4.0
1630674807343,4.18
1630674807359,4.38
1630674807375,4.5
1630674807390,4.5
1630674807406,4.33
1630674807421,3.99
1630674807437,3.51
1630674807453,2.95
1630674807468,2.37
1630674807484,1.82
1630674807500,1.32
1630674807515,0.83
1630674807531,0.33
1630674807546,-0.22
1630674807562,-0.81
1630674807578,-1.41
1630674807593,-1.97
1630674807609,-2.46
1630674807625,-2.91
1630674807640,-3.42
1630674807656,-4.06
1630674807671,-4.83
1630674807687,-5.67
1630674807703,-6.51
1630674807718,-7.26
1630674807734,-7.91
1630674807750,-8.47
1630674807765,-8.92
1630674807781,-9.14
1630674807796,-8.94
1630674807812,-8.19
1630674807828,-6.87
1630674807843,-5.14
1630674807859,-3.28
1630674807875,-1.54
1630674807890,-0.11
1630674807906,0.96
1630674807921,1.72
1630674807937,2.24
1630674807953,2.58
1630674807968,2.79
1630674807984,2.95
1630674808000,3.14
1630674808015,3.44
1630674808031,3.87
1630674808046,4.41
1630674808062,4.96
1630674808078,5.38
1630674808093,5.57
1630674808109,5.5
1630674808125,5.21
1630674808140,4.77
1630674808156,4.34
1630674808171,4.01
1630674808187,3.83
1630674808203,3.75
1630674808218,3.69
1630674808234,3.55
1630674808250,3.26
1630674808265,2.82
1630674808281,2.31
1630674808296,1.8
1630674808312,1.35
1630674808328,0.99
1630674808343,0.7
1630674808359,0.47
1630674808375,0.32
1630674808390,0.2
1630674808406,0.07
1630674808421,-0.18
1630674808437,-0.68
1630674808453,-1.49
1630674808468,-2.6
1630674808484,-3.91
1630674808500,-5.29
1630674808515,-6.64
1630674808531,-7.91
1630674808546,-9.1
1630674808562,-10.2
1630674808578,-11.13
1630674808593,-11.76
1630674808609,-11.94
1630674808625,-11.51
1630674808640,-10.46
1630674808656,-8.83
1630674808671,-6.79
1630674808687,-4.58
1630674808703,-2.41
1630674808718,-0.47
1630674808734,1.13
1630674808750,2.33
1630674808765,3.1
1630674808781,3.46
1630674808796,3.5
1630674808812,3.31
1630674808828,3.02
1630674808843,2.79
1630674808859,2.69
1630674808875,2.73
1630674808890,2.85
1630674808906,2.9
1630674808921,2.79
1630674808937,2.51
1630674808953,2.16
1630674808968,1.87
1630674808984,1.77
1630674809000,1.88
1630674809015,2.11
1630674809031,2.26
1630674809046,2.19
1630674809062,1.81
1630674809078,1.19
1630674809093,0.44
1630674809109,-0.31
1630674809125,-0.97
1630674809140,-1.56
1630674809156,-2.14
1630674809171,-2.69
1630674809187,-3.21
1630674809203,-3.64
1630674809218,-3.92
1630674809234,-4.06
1630674809250,-4.06
1630674809265,-4.01
1630674809281,-3.96
1630674809296,-4.0
1630674809312,-4.15
1630674809328,-4.44
1630674809343,-4.84
1630674809359,-5.3
1630674809375,-5.72
1630674809390,-6.03
1630674809406,-6.13
1630674809421,-5.99
1630674809437,-5.57
1630674809453,-4.84
1630674809468,-3.78
1630674809484,-2.42
1630674809500,-0.84
1630674809515,0.81
1630674809531,2.35
1630674809546,3.64
1630674809562,4.63
1630674809578,5.33
1630674809593,5.85
1630674809609,6.27
1630674809625,6.62
1630674809640,6.92
1630674809656,7.16
1630674809671,7.36
1630674809687,7.57
1630674809703,7.86
1630674809718,8.22
1630674809734,8.56
1630674809750,8.71
1630674809765,8.48
1630674809781,7.78
1630674809796,6.63
1630674809812,5.21
1630674809828,3.77
1630674809843,2.54
1630674809859,1.64
1630674809875,1.05
1630674809890,0.65
1630674809906,0.25
1630674809921,-0.26
1630674809937,-0.95
1630674809953,-1.78
1630674809968,-2.67
1630674809984,-3.58
1630674810000,-4.46
1630674810015,-5.34
1630674810031,-6.23
1630674810046,-7.14
1630674810062,-8.06
1630674810078,-9.02
1630674810093,-10.04
1630674810109,-11.19
1630674810125,-12.53
1630674810140,-14.09
1630674810156,-15.88
1630674810171,-17.84
1630674810187,-19.83
1630674810203,-21.72
1630674810218,-23.38
1630674810234,-24.68
1630674810250,-25.45
1630674810265,-25.54
1630674810281,-24.81
1630674810296,-23.19
1630674810312,-20.7
1630674810328,-17.45
1630674810343,-13.59
1630674810359,-9.28
1630674810375,-4.64
1630674810390,0.2
1630674810406,5.08
1630674810421,9.82
1630674810437,14.19
1630674810453,17.96
1630674810468,20.99
1630674810484,23.16
1630674810500,24.46
1630674810515,24.91
1630674810531,24.61
1630674810546,23.72
1630674810562,22.46
1630674810578,21.06
1630674810593,19.69
1630674810609,18.43
1630674810625,17.26
1630674810640,16.11
1630674810656,14.92
1630674810671,13.63
1630674810687,12.29
1630674810703,10.95
1630674810718,9.66
1630674810734,8.44
1630674810750,7.31
1630674810765,6.24
1630674810781,5.24
1630674810796,4.29
1630674810812,3.37
1630674810828,2.43
1630674810843,1.43
1630674810859,0.34
1630674810875,-0.82
1630674810890,-1.99
1630674810906,-3.11
1630674810921,-4.2
1630674810937,-5.29
1630674810953,-6.4
1630674810968,-7.46
1630674810984,-8.35
1630674811000,-8.87
1630674811015,-8.9
1630674811031,-8.4
1630674811046,-7.45
1630674811062,-6.19
1630674811078,-4.73
1630674811093,-3.13
1630674811109,-1.36
1630674811125,0.54
1630674811140,2.46
1630674811156,4.22
1630674811171,5.57
1630674811187,6.36
1630674811203,6.58
1630674811218,6.35
1630674811234,5.88
1630674811250,5.38
1630674811265,5.0
1630674811281,4.8
1630674811296,4.78
1630674811312,4.89
1630674811328,5.07
1630674811343,5.25
1630674811359,5.33
1630674811375,5.23
1630674811390,4.88
1630674811406,4.29
1630674811421,3.53
1630674811437,2.72
1630674811453,1.98
1630674811468,1.37
1630674811484,0.89
1630674811500,0.51
1630674811515,0.17
1630674811531,-0.19
1630674811546,-0.57
1630674811562,-0.95
1630674811578,-1.31
1630674811593,-1.61
1630674811609,-1.89
1630674811625,-2.2
1630674811640,-2.64
1630674811656,-3.28
1630674811671,-4.16
1630674811687,-5.22
1630674811703,-6.36
1630674811718,-7.41
1630674811734,-8.31
1630674811750,-9.02
1630674811765,-9.57
1630674811781,-10.03
1630674811796,-10.38
1630674811812,-10.58
1630674811828,-10.54
1630674811843,-10.18
1630674811859,-9.5
1630674811875,-8.58
1630674811890,-7.48
1630674811906,-6.28
1630674811921,-4.99
1630674811937,-3.58
1630674811953,-2.08
1630674811968,-0.57
1630674811984,0.8
1630674812000,1.91
1630674812015,2.66
1630674812031,3.06
1630674812046,3.22
1630674812062,3.24
1630674812078,3.2
1630674812093,3.16
1630674812109,3.14
1630674812125,3.2
1630674812140,3.4
1630674812156,3.78
1630674812171,4.28
1630674812187,4.79
1630674812203,5.11
1630674812218,5.12
1630674812234,4.79
1630674812250,4.23
1630674812265,3.62
1630674812281,3.13
1630674812296,2.87
1630674812312,2.84
1630674812328,2.99
1630674812343,3.22
1630674812359,3.46
1630674812375,3.58
1630674812390,3.51
1630674812406,3.19
1630674812421,2.62
1630674812437,1.9
1630674812453,1.17
1630674812468,0.58
1630674812484,0.15
1630674812500,-0.15
1630674812515,-0.47
1630674812531,-0.94
1630674812546,-1.61
1630674812562,-2.48
1630674812578,-3.41
1630674812593,-4.24
1630674812609,-4.81
1630674812625,-5.0
1630674812640,-4.71
1630674812656,-3.93
1630674812671,-2.73
1630674812687,-1.24
1630674812703,0.39
1630674812718,2.01
1630674812734,3.48
1630674812750,4.72
1630674812765,5.66
1630674812781,6.27
1630674812796,6.6
1630674812812,6.72
1630674812828,6.75
1630674812843,6.77
1630674812859,6.77
1630674812875,6.71
1630674812890,6.5
1630674812906,6.14
1630674812921,5.66
1630674812937,5.22
1630674812953,4.89
1630674812968,4.73
1630674812984,4.67
1630674813000,4.63
1630674813015,4.52
1630674813031,4.32
1630674813046,4.06
1630674813062,3.74
1630674813078,3.38
1630674813093,2.91
1630674813109,2.32
1630674813125,1.59
1630674813140,0.8
1630674813156,0.02
1630674813171,-0.67
1630674813187,-1.23
1630674813203,-1.71
1630674813218,-2.16
1630674813234,-2.68
1630674813250,-3.31
1630674813265,-4.01
1630674813281,-4.77
1630674813296,-5.52
1630674813312,-6.29
1630674813328,-7.12
1630674813343,-8.01
1630674813359,-8.92
1630674813375,-9.7
1630674813390,-10.2
1630674813406,-10.23
1630674813421,-9.73
1630674813437,-8.77
1630674813453,-7.49
1630674813468,-6.07
1630674813484,-4.62
1630674813500,-3.2
1630674813515,-1.79
1630674813531,-0.4
1630674813546,0.96
1630674813562,2.23
1630674813578,3.35
1630674813593,4.27
1630674813609,4.94
1630674813625,5.39
1630674813640,5.65
1630674813656,5.75
1630674813671,5.73
1630674813687,5.59
1630674813703,5.33
1630674813718,4.99
1630674813734,4.6
1630674813750,4.27
1630674813765,4.08
1630674813781,4.06
1630674813796,4.17
1630674813812,4.33
1630674813828,4.43
1630674813843,4.41
1630674813859,4.25
1630674813875,3.97
1630674813890,3.54
1630674813906,2.89
1630674813921,1.96
1630674813937,0.74
1630674813953,-0.66
1630674813968,-2.02
1630674813984,-3.12
1630674814000,-3.8
1630674814015,-4.06
1630674814031,-4.03
1630674814046,-3.94
1630674814062,-3.93
1630674814078,-4.11
1630674814093,-4.48
1630674814109,-5.05
1630674814125,-5.84
1630674814140,-6.86
1630674814156,-8.08
1630674814171,-9.39
1630674814187,-10.57
1630674814203,-11.38
1630674814218,-11.58
1630674814234,-11.1
1630674814250,-9.97
1630674814265,-8.38
1630674814281,-6.54
1630674814296,-4.63
1630674814312,-2.79
1630674814328,-1.05
1630674814343,0.58
1630674814359,2.08
1630674814375,3.4
1630674814390,4.47
1630674814406,5.22
1630674814421,5.62
1630674814437,5.66
1630674814453,5.41
1630674814468,4.94
1630674814484,4.38
1630674814500,3.87
1630674814515,3.49
1630674814531,3.29
1630674814546,3.23
1630674814562,3.25
1630674814578,3.27
1630674814593,3.22
1630674814609,3.09
1630674814625,2.93
1630674814640,2.75
1630674814656,2.58
1630674814671,2.4
1630674814687,2.2
1630674814703,1.99
1630674814718,1.74
1630674814734,1.47
1630674814750,1.11
1630674814765,0.62
1630674814781,-0.05
1630674814796,-0.88
1630674814812,-1.83
1630674814828,-2.79
1630674814843,-3.68
1630674814859,-4.46
1630674814875,-5.13
1630674814890,-5.72
1630674814906,-6.29
1630674814921,-6.89
1630674814937,-7.62
1630674814953,-8.52
1630674814968,-9.55
1630674814984,-10.58
1630674815000,-11.35
1630674815015,-11.61
1630674815031,-11.17
1630674815046,-10.0
1630674815062,-8.21
1630674815078,-6.01
1630674815093,-3.64
1630674815109,-1.32
1630674815125,0.73
1630674815140,2.36
1630674815156,3.48
1630674815171,4.12
1630674815187,4.44
1630674815203,4.65
1630674815218,4.94
1630674815234,5.38
1630674815250,5.89
1630674815265,6.39
1630674815281,6.8
1630674815296,7.13
1630674815312,7.46
1630674815328,7.81
1630674815343,8.17
1630674815359,8.42
1630674815375,8.46
1630674815390,8.22
1630674815406,7.71
1630674815421,6.99
1630674815437,6.15
1630674815453,5.31
1630674815468,4.58
1630674815484,4.06
1630674815500,3.75
1630674815515,3.54
1630674815531,3.25
1630674815546,2.69
1630674815562,1.81
1630674815578,0.7
1630674815593,-0.39
1630674815609,-1.26
1630674815625,-1.8
1630674815640,-2.09
1630674815656,-2.36
1630674815671,-2.76
1630674815687,-3.41
1630674815703,-4.24
1630674815718,-5.16
1630674815734,-6.07
1630674815750,-6.92
1630674815765,-7.67
1630674815781,-8.21
1630674815796,-8.41
1630674815812,-8.1
1630674815828,-7.19
1630674815843,-5.67
1630674815859,-3.71
1630674815875,-1.53
1630674815890,0.62
1630674815906,2.55
1630674815921,4.16
1630674815937,5.38
1630674815953,6.22
1630674815968,6.72
1630674815984,6.96
1630674816000,7.02
1630674816015,7.0
1630674816031,6.95
1630674816046,6.9
1630674816062,6.81
1630674816078,6.66
1630674816093,6.45
1630674816109,6.18
1630674816125,5.87
1630674816140,5.47
1630674816156,4.96
1630674816171,4.31
1630674816187,3.56
1630674816203,2.84
1630674816218,2.24
1630674816234,1.8
1630674816250,1.48
1630674816265,1.12
1630674816281,0.63
1630674816296,-0.02
1630674816312,-0.75
1630674816328,-1.46
1630674816343,-2.1
1630674816359,-2.76
1630674816375,-3.54
1630674816390,-4.53
1630674816406,-5.68
1630674816421,-6.81
1630674816437,-7.75
1630674816453,-8.4
1630674816468,-8.82
1630674816484,-9.15
1630674816500,-9.51
1630674816515,-9.95
1630674816531,-10.38
1630674816546,-10.61
1630674816562,-10.45
1630674816578,-9.73
1630674816593,-8.39
1630674816609,-6.48
1630674816625,-4.11
1630674816640,-1.5
1630674816656,1.13
1630674816671,3.52
1630674816687,5.47
1630674816703,6.87
1630674816718,7.66
1630674816734,7.92
1630674816750,7.76
1630674816765,7.33
1630674816781,6.82
1630674816796,6.39
1630674816812,6.13
1630674816828,6.06
1630674816843,6.15
1630674816859,6.29
1630674816875,6.4
1630674816890,6.43
1630674816906,6.33
1630674816921,6.1
1630674816937,5.71
1630674816953,5.17
1630674816968,4.5
1630674816984,3.76
1630674817000,3.05
1630674817015,2.43
1630674817031,1.93
1630674817046,1.46
1630674817062,0.92
1630674817078,0.2
1630674817093,-0.74
1630674817109,-1.82
1630674817125,-2.9
1630674817140,-3.85
1630674817156,-4.63
1630674817171,-5.29
1630674817187,-5.96
1630674817203,-6.74
1630674817218,-7.66
1630674817234,-8.62
1630674817250,-9.53
1630674817265,-10.26
1630674817281,-10.77
1630674817296,-11.03
1630674817312,-11.01
1630674817328,-10.63
1630674817343,-9.76
1630674817359,-8.33
1630674817375,-6.41
1630674817390,-4.22
1630674817406,-2.04
1630674817421,-0.11
1630674817437,1.48
1630674817453,2.82
1630674817468,4.06
1630674817484,5.33
1630674817500,6.59
1630674817515,7.69
1630674817531,8.42
1630674817546,8.67
1630674817562,8.51
1630674817578,8.09
1630674817593,7.6
1630674817609,7.17
1630674817625,6.82
1630674817640,6.5
1630674817656,6.19
1630674817671,5.86
1630674817687,5.52
1630674817703,5.18
1630674817718,4.87
1630674817734,4.58
1630674817750,4.3
1630674817765,4.0
1630674817781,3.63
1630674817796,3.15
1630674817812,2.51
1630674817828,1.72
1630674817843,0.84
1630674817859,-0.07
1630674817875,-0.92
1630674817890,-1.68
1630674817906,-2.33
1630674817921,-2.92
1630674817937,-3.5
1630674817953,-4.1
1630674817968,-4.71
1630674817984,-5.34
1630674818000,-5.98
1630674818015,-6.63
1630674818031,-7.34
1630674818046,-8.13
1630674818062,-9.05
1630674818078,-10.03
1630674818093,-10.97
1630674818109,-11.67
1630674818125,-11.91
1630674818140,-11.54
1630674818156,-10.54
1630674818171,-8.99
1630674818187,-7.09
1630674818203,-5.03
1630674818218,-2.98
1630674818234,-0.99
1630674818250,0.93
1630674818265,2.77
1630674818281,4.48
1630674818296,5.97
1630674818312,7.14
1630674818328,7.93
1630674818343,8.34
1630674818359,8.46
1630674818375,8.4
1630674818390,8.23
1630674818406,8.0
1630674818421,7.69
1630674818437,7.35
1630674818453,7.02
1630674818468,6.83
1630674818484,6.84
1630674818500,7.03
1630674818515,7.27
1630674818531,7.37
1630674818546,7.2
1630674818562,6.77
1630674818578,6.23
1630674818593,5.76
1630674818609,5.48
1630674818625,5.38
1630674818640,5.27
1630674818656,4.92
1630674818671,4.18
1630674818687,3.05
1630674818703,1.69
1630674818718,0.33
1630674818734,-0.85
1630674818750,-1.77
1630674818765,-2.45
1630674818781,-3.02
1630674818796,-3.59
1630674818812,-4.24
1630674818828,-5.0
1630674818843,-5.86
1630674818859,-6.8
1630674818875,-7.81
1630674818890,-8.84
1630674818906,-9.79
1630674818921,-10.48
1630674818937,-10.7
1630674818953,-10.2
1630674818968,-8.87
1630674818984,-6.76
1630674819000,-4.15
1630674819015,-1.38
1630674819031,1.16
1630674819046,3.21
1630674819062,4.69
1630674819078,5.65
1630674819093,6.25
1630674819109,6.62
1630674819125,6.86
1630674819140,6.99
1630674819156,6.99
1630674819171,6.87
1630674819187,6.65
1630674819203,6.44
1630674819218,6.31
1630674819234,6.3
1630674819250,6.37
1630674819265,6.4
1630674819281,6.29
1630674819296,5.98
1630674819312,5.52
1630674819328,4.98
1630674819343,4.45
1630674819359,3.92
1630674819375,3.37
1630674819390,2.72
1630674819406,1.97
1630674819421,1.15
1630674819437,0.38
1630674819453,-0.24
1630674819468,-0.69
1630674819484,-1.02
1630674819500,-1.32
1630674819515,-1.7
1630674819531,-2.22
1630674819546,-2.86
1630674819562,-3.54
1630674819578,-4.21
1630674819593,-4.86
1630674819609,-5.52
1630674819625,-6.26
1630674819640,-7.17
1630674819656,-8.28
1630674819671,-9.55
1630674819687,-10.87
1630674819703,-12.01
1630674819718,-12.74
1630674819734,-12.81
1630674819750,-12.09
1630674819765,-10.59
1630674819781,-8.45
1630674819796,-5.91
1630674819812,-3.28
1630674819828,-0.84
1630674819843,1.21
1630674819859,2.78
1630674819875,3.89
1630674819890,4.63
1630674819906,5.1
1630674819921,5.4
1630674819937,5.6
1630674819953,5.73
1630674819968,5.83
1630674819984,5.95
1630674820000,6.15
1630674820015,6.43
1630674820031,6.73
1630674820046,6.94
1630674820062,6.97
1630674820078,6.76
1630674820093,6.36
1630674820109,5.91
1630674820125,5.5
1630674820140,5.17
1630674820156,4.84
1630674820171,4.37
1630674820187,3.66
1630674820203,2.77
1630674820218,1.83
1630674820234,1.03
1630674820250,0.47
1630674820265,0.07
1630674820281,-0.34
1630674820296,-0.96
1630674820312,-1.83
1630674820328,-2.88
1630674820343,-3.86
1630674820359,-4.6
1630674820375,-5.03
1630674820390,-5.26
1630674820406,-5.46
1630674820421,-5.75
1630674820437,-6.18
1630674820453,-6.73
1630674820468,-7.41
1630674820484,-8.29
1630674820500,-9.41
1630674820515,-10.72
1630674820531,-11.95
1630674820546,-12.75
1630674820562,-12.74
1630674820578,-11.79
1630674820593,-10.07
1630674820609,-7.94
1630674820625,-5.81
1630674820640,-3.91
1630674820656,-2.28
1630674820671,-0.82
1630674820687,0.56
1630674820703,1.86
1630674820718,2.97
1630674820734,3.78
1630674820750,4.25
1630674820765,4.4
1630674820781,4.35
1630674820796,4.2
1630674820812,4.06
1630674820828,3.97
1630674820843,3.99
1630674820859,4.13
1630674820875,4.37
1630674820890,4.63
1630674820906,4.8
1630674820921,4.79
1630674820937,4.56
1630674820953,4.18
1630674820968,3.8
1630674820984,3.61
1630674821000,3.66
1630674821015,3.91
1630674821031,4.18
1630674821046,4.24
1630674821062,3.95
1630674821078,3.27
1630674821093,2.31
1630674821109,1.28
1630674821125,0.36
1630674821140,-0.36
1630674821156,-0.94
1630674821171,-1.46
1630674821187,-1.99
1630674821203,-2.53
1630674821218,-3.01
1630674821234,-3.42
1630674821250,-3.77
1630674821265,-4.2
1630674821281,-4.8
1630674821296,-5.58
1630674821312,-6.39
1630674821328,-7.01
1630674821343,-7.21
1630674821359,-6.87
1630674821375,-6.03
1630674821390,-4.85
1630674821406,-3.5
1630674821421,-2.09
1630674821437,-0.6
1630674821453,1.01
1630674821468,2.74
1630674821484,4.5
1630674821500,6.06
1630674821515,7.18
1630674821531,7.72
1630674821546,7.69
1630674821562,7.32
1630674821578,6.89
1630674821593,6.63
1630674821609,6.6
1630674821625,6.71
1630674821640,6.8
1630674821656,6.76
1630674821671,6.61
1630674821687,6.46
1630674821703,6.36
1630674821718,6.29
1630674821734,6.09
1630674821750,5.6
1630674821765,4.77
1630674821781,3.66
1630674821796,2.46
1630674821812,1.35
1630674821828,0.44
1630674821843,-0.3
1630674821859,-0.93
1630674821875,-1.56
1630674821890,-2.2
1630674821906,-2.8
1630674821921,-3.32
1630674821937,-3.72
1630674821953,-4.05
1630674821968,-4.35
1630674821984,-4.73
1630674822000,-5.29
1630674822015,-6.1
1630674822031,-7.18
1630674822046,-8.43
1630674822062,-9.66
1630674822078,-10.64
1630674822093,-11.12
1630674822109,-11.0
1630674822125,-10.29
1630674822140,-9.15
1630674822156,-7.8
1630674822171,-6.43
1630674822187,-5.09
1630674822203,-3.77
1630674822218,-2.38
1630674822234,-0.85
1630674822250,0.81
1630674822265,2.49
1630674822281,4.0
1630674822296,5.17
1630674822312,5.9
1630674822328,6.2
1630674822343,6.19
1630674822359,6.03
1630674822375,5.83
1630674822390,5.66
1630674822406,5.51
1630674822421,5.36
1630674822437,5.2
1630674822453,5.04
1630674822468,4.9
1630674822484,4.83
1630674822500,4.86
1630674822515,4.95
1630674822531,5.03
1630674822546,4.98
1630674822562,4.69
1630674822578,4.08
1630674822593,3.17
1630674822609,2.04
1630674822625,0.84
1630674822640,-0.28
1630674822656,-1.21
1630674822671,-1.94
1630674822687,-2.49
1630674822703,-2.93
1630674822718,-3.32
1630674822734,-3.69
1630674822750,-4.06
1630674822765,-4.49
1630674822781,-5.04
1630674822796,-5.78
1630674822812,-6.74
1630674822828,-7.9
1630674822843,-9.13
1630674822859,-10.22
1630674822875,-10.97
1630674822890,-11.21
1630674822906,-10.84
1630674822921,-9.92
1630674822937,-8.54
1630674822953,-6.86
1630674822968,-5.0
1630674822984,-3.07
1630674823000,-1.13
1630674823015,0.7
1630674823031,2.32
1630674823046,3.59
1630674823062,4.44
1630674823078,4.88
1630674823093,5.01
1630674823109,4.98
1630674823125,4.88
1630674823140,4.75
1630674823156,4.53
1630674823171,4.19
1630674823187,3.72
1630674823203,3.22
1630674823218,2.83
1630674823234,2.64
1630674823250,2.66
1630674823265,2.84
1630674823281,3.05
1630674823296,3.15
1630674823312,3.06
1630674823328,2.76
1630674823343,2.31
1630674823359,1.79
1630674823375,1.33
1630674823390,0.98
1630674823406,0.76
1630674823421,0.59
1630674823437,0.35
1630674823453,-0.08
1630674823468,-0.75
1630674823484,-1.61
1630674823500,-2.56
1630674823515,-3.44
1630674823531,-4.12
1630674823546,-4.59
1630674823562,-4.88
1630674823578,-5.08
1630674823593,-5.32
1630674823609,-5.69
1630674823625,-6.21
1630674823640,-6.86
1630674823656,-7.54
1630674823671,-8.12
1630674823687,-8.44
1630674823703,-8.36
1630674823718,-7.78
1630674823734,-6.69
1630674823750,-5.17
1630674823765,-3.33
1630674823781,-1.37
1630674823796,0.54
1630674823812,2.21
1630674823828,3.53
1630674823843,4.48
1630674823859,5.1
1630674823875,5.52
1630674823890,5.87
1630674823906,6.26
1630674823921,6.73
1630674823937,7.25
1630674823953,7.78
1630674823968,8.22
1630674823984,8.53
1630674824000,8.66
1630674824015,8.6
1630674824031,8.34
1630674824046,7.88
1630674824062,7.23
1630674824078,6.43
1630674824093,5.56
1630674824109,4.7
1630674824125,3.94
1630674824140,3.37
1630674824156,2.99
1630674824171,2.77
1630674824187,2.59
1630674824203,2.37
1630674824218,2.05
1630674824234,1.6
1630674824250,1.03
1630674824265,0.38
1630674824281,-0.35
1630674824296,-1.14
1630674824312,-1.96
1630674824328,-2.79
1630674824343,-3.57
1630674824359,-4.32
1630674824375,-5.07
1630674824390,-5.85
1630674824406,-6.69
1630674824421,-7.52
1630674824437,-8.19
1630674824453,-8.52
1630674824468,-8.39
1630674824484,-7.78
1630674824500,-6.74
1630674824515,-5.37
1630674824531,-3.78
1630674824546,-2.08
1630674824562,-0.37
1630674824578,1.22
1630674824593,2.57
1630674824609,3.58
1630674824625,4.22
1630674824640,4.56
1630674824656,4.7
1630674824671,4.75
1630674824687,4.79
1630674824703,4.82
1630674824718,4.8
1630674824734,4.72
1630674824750,4.59
1630674824765,4.51
1630674824781,4.53
1630674824796,4.68
1630674824812,4.88
1630674824828,4.99
1630674824843,4.91
1630674824859,4.58
1630674824875,4.07
1630674824890,3.5
1630674824906,3.0
1630674824921,2.59
1630674824937,2.24
1630674824953,1.88
1630674824968,1.46
1630674824984,0.93
1630674825000,0.29
1630674825015,-0.43
1630674825031,-1.18
1630674825046,-1.87
1630674825062,-2.4
1630674825078,-2.69
1630674825093,-2.76
1630674825109,-2.73
1630674825125,-2.84
1630674825140,-3.3
1630674825156,-4.25
1630674825171,-5.7
1630674825187,-7.48
1630674825203,-9.32
1630674825218,-10.89
1630674825234,-11.89
1630674825250,-12.15
1630674825265,-11.63
1630674825281,-10.45
1630674825296,-8.81
1630674825312,-6.91
1630674825328,-4.9
1630674825343,-2.85
1630674825359,-0.77
1630674825375,1.21
1630674825390,2.94
1630674825406,4.21
1630674825421,4.9
1630674825437,5.0
1630674825453,4.68
1630674825468,4.16
1630674825484,3.65
1630674825500,3.26
1630674825515,3.02
1630674825531,2.91
1630674825546,2.93
1630674825562,3.1
1630674825578,3.37
1630674825593,3.69
1630674825609,3.96
1630674825625,4.08
1630674825640,4.01
1630674825656,3.78
1630674825671,3.44
1630674825687,3.03
1630674825703,2.57
1630674825718,2.02
1630674825734,1.36
1630674825750,0.66
1630674825765,-0.04
1630674825781,-0.67
1630674825796,-1.23
1630674825812,-1.76
1630674825828,-2.37
1630674825843,-3.12
1630674825859,-3.97
1630674825875,-4.87
1630674825890,-5.71
1630674825906,-6.44
1630674825921,-7.08
1630674825937,-7.73
1630674825953,-8.48
1630674825968,-9.36
1630674825984,-10.29
1630674826000,-11.15
1630674826015,-11.77
1630674826031,-11.99
1630674826046,-11.67
1630674826062,-10.74
1630674826078,-9.2
1630674826093,-7.13
1630674826109,-4.69
1630674826125,-2.15
1630674826140,0.2
1630674826156,2.12
1630674826171,3.45
1630674826187,4.21
1630674826203,4.53
1630674826218,4.62
1630674826234,4.63
1630674826250,4.7
1630674826265,4.81
1630674826281,4.96
1630674826296,5.08
1630674826312,5.14
1630674826328,5.16
1630674826343,5.16
1630674826359,5.19
1630674826375,5.27
1630674826390,5.41
1630674826406,5.59
1630674826421,5.82
1630674826437,6.09
1630674826453,6.37
1630674826468,6.63
1630674826484,6.79
1630674826500,6.77
1630674826515,6.51
1630674826531,6.0
1630674826546,5.24
1630674826562,4.27
1630674826578,3.16
1630674826593,2.0
1630674826609,0.85
1630674826625,-0.17
1630674826640,-1.01
1630674826656,-1.63
1630674826671,-2.07
1630674826687,-2.45
1630674826703,-2.86
1630674826718,-3.4
1630674826734,-4.07
1630674826750,-4.81
1630674826765,-5.54
1630674826781,-6.17
1630674826796,-6.68
1630674826812,-7.05
1630674826828,-7.22
1630674826843,-7.13
1630674826859,-6.66
1630674826875,-5.74
1630674826890,-4.35
1630674826906,-2.57
1630674826921,-0.59
1630674826937,1.36
1630674826953,3.08
1630674826968,4.43
1630674826984,5.39
1630674827000,6.01
1630674827015,6.32
1630674827031,6.36
1630674827046,6.13
1630674827062,5.66
1630674827078,5.04
1630674827093,4.47
1630674827109,4.12
1630674827125,4.09
1630674827140,4.34
1630674827156,4.7
1630674827171,4.98
1630674827187,5.06
1630674827203,4.96
1630674827218,4.82
1630674827234,4.76
1630674827250,4.82
1630674827265,4.9
1630674827281,4.83
1630674827296,4.47
1630674827312,3.8
1630674827328,2.95
1630674827343,2.11
1630674827359,1.41
1630674827375,0.89
1630674827390,0.44
1630674827406,-0.08
1630674827421,-0.78
1630674827437,-1.7
1630674827453,-2.74
1630674827468,-3.75
1630674827484,-4.61
1630674827500,-5.27
1630674827515,-5.75
1630674827531,-6.17
1630674827546,-6.63
1630674827562,-7.18
1630674827578,-7.82
1630674827593,-8.5
1630674827609,-9.1
1630674827625,-9.54
1630674827640,-9.7
1630674827656,-9.5
1630674827671,-8.86
1630674827687,-7.77
1630674827703,-6.29
1630674827718,-4.52
1630674827734,-2.63
1630674827750,-0.77
1630674827765,0.9
1630674827781,2.35
1630674827796,3.52
1630674827812,4.39
1630674827828,4.93
1630674827843,5.15
1630674827859,5.1
1630674827875,4.89
1630674827890,4.68
1630674827906,4.59
1630674827921,4.68
1630674827937,4.88
1630674827953,5.09
1630674827968,5.23
1630674827984,5.25
1630674828000,5.17
1630674828015,5.02
1630674828031,4.87
1630674828046,4.73
1630674828062,4.61
1630674828078,4.48
1630674828093,4.29
1630674828109,4.0
1630674828125,3.55
1630674828140,2.91
1630674828156,2.09
1630674828171,1.15
1630674828187,0.17
1630674828203,-0.78
1630674828218,-1.66
1630674828234,-2.47
1630674828250,-3.2
1630674828265,-3.87
1630674828281,-4.42
1630674828296,-4.82
1630674828312,-5.04
1630674828328,-5.1
1630674828343,-5.11
1630674828359,-5.17
1630674828375,-5.44
1630674828390,-6.0
1630674828406,-6.88
1630674828421,-7.97
1630674828437,-9.05
1630674828453,-9.82
1630674828468,-10.01
1630674828484,-9.45
1630674828500,-8.15
1630674828515,-6.3
1630674828531,-4.2
1630674828546,-2.14
1630674828562,-0.3
1630674828578,1.24
1630674828593,2.53
1630674828609,3.63
1630674828625,4.59
1630674828640,5.42
1630674828656,6.09
1630674828671,6.58
1630674828687,6.9
1630674828703,7.08
1630674828718,7.18
1630674828734,7.18
1630674828750,7.07
1630674828765,6.8
1630674828781,6.37
1630674828796,5.81
1630674828812,5.18
1630674828828,4.61
1630674828843,4.18
1630674828859,3.89
1630674828875,3.68
1630674828890,3.45
1630674828906,3.1
1630674828921,2.6
1630674828937,1.98
1630674828953,1.35
1630674828968,0.79
1630674828984,0.36
1630674829000,0.04
1630674829015,-0.24
1630674829031,-0.57
1630674829046,-1.02
1630674829062,-1.61
1630674829078,-2.3
1630674829093,-3.05
1630674829109,-3.8
1630674829125,-4.51
1630674829140,-5.18
1630674829156,-5.81
1630674829171,-6.41
1630674829187,-6.98
1630674829203,-7.49
1630674829218,-7.91
1630674829234,-8.21
1630674829250,-8.35
1630674829265,-8.28
1630674829281,-7.94
1630674829296,-7.29
1630674829312,-6.31
1630674829328,-5.04
1630674829343,-3.57
1630674829359,-2.06
1630674829375,-0.63
1630674829390,0.61
1630674829406,1.62
1630674829421,2.42
1630674829437,3.07
1630674829453,3.59
1630674829468,3.99
1630674829484,4.25
1630674829500,4.35
1630674829515,4.28
1630674829531,4.07
1630674829546,3.79
1630674829562,3.53
1630674829578,3.35
1630674829593,3.28
1630674829609,3.32
1630674829625,3.42
1630674829640,3.52
1630674829656,3.6
1630674829671,3.65
1630674829687,3.64
1630674829703,3.56
1630674829718,3.38
1630674829734,3.06
1630674829750,2.6
1630674829765,2.06
1630674829781,1.49
1630674829796,0.97
1630674829812,0.49
1630674829828,-0.0
1630674829843,-0.55
1630674829859,-1.21
1630674829875,-1.99
1630674829890,-2.85
1630674829906,-3.74
1630674829921,-4.63
1630674829937,-5.49
1630674829953,-6.28
1630674829968,-6.96
1630674829984,-7.5
1630674830000,-7.93
1630674830015,-8.33
1630674830031,-8.81
1630674830046,-9.4
1630674830062,-10.03
1630674830078,-10.47
1630674830093,-10.49
1630674830109,-9.87
1630674830125,-8.62
1630674830140,-6.84
1630674830156,-4.74
1630674830171,-2.47
1630674830187,-0.16
1630674830203,2.11
1630674830218,4.21
1630674830234,5.98
1630674830250,7.26
1630674830265,7.93
1630674830281,8.07
1630674830296,7.85
1630674830312,7.5
1630674830328,7.22
1630674830343,7.1
1630674830359,7.13
1630674830375,7.25
1630674830390,7.38
1630674830406,7.48
1630674830421,7.5
1630674830437,7.39
1630674830453,7.1
1630674830468,6.62
1630674830484,6.0
1630674830500,5.32
1630674830515,4.7
1630674830531,4.21
1630674830546,3.88
1630674830562,3.69
1630674830578,3.57
1630674830593,3.45
1630674830609,3.26
1630674830625,2.9
1630674830640,2.3
1630674830656,1.39
1630674830671,0.13
1630674830687,-1.41
1630674830703,-3.08
1630674830718,-4.63
1630674830734,-5.79
1630674830750,-6.37
1630674830765,-6.36
1630674830781,-5.99
1630674830796,-5.57
1630674830812,-5.49
1630674830828,-5.94
1630674830843,-6.9
1630674830859,-8.08
1630674830875,-9.08
1630674830890,-9.52
1630674830906,-9.18
1630674830921,-8.09
1630674830937,-6.44
1630674830953,-4.48
1630674830968,-2.46
1630674830984,-0.5
1630674831000,1.27
1630674831015,2.75
1630674831031,3.85
1630674831046,4.5
1630674831062,4.71
1630674831078,4.65
1630674831093,4.54
1630674831109,4.58
1630674831125,4.85
1630674831140,5.27
1630674831156,5.69
1630674831171,5.96
1630674831187,6.02
1630674831203,5.93
1630674831218,5.75
1630674831234,5.49
1630674831250,5.12
1630674831265,4.6
1630674831281,3.92
1630674831296,3.21
1630674831312,2.64
1630674831328,2.31
1630674831343,2.23
1630674831359,2.25
1630674831375,2.18
1630674831390,1.88
1630674831406,1.32
1630674831421,0.6
1630674831437,-0.13
1630674831453,-0.78
1630674831468,-1.39
1630674831484,-2.07
1630674831500,-2.9
1630674831515,-3.94
1630674831531,-5.08
1630674831546,-6.21
1630674831562,-7.21
1630674831578,-8.06
1630674831593,-8.78
1630674831609,-9.46
1630674831625,-10.12
1630674831640,-10.73
1630674831656,-11.18
1630674831671,-11.3
1630674831687,-10.95
1630674831703,-10.02
1630674831718,-8.51
1630674831734,-6.51
1630674831750,-4.25
1630674831765,-1.97
1630674831781,0.05
1630674831796,1.64
1630674831812,2.75
1630674831828,3.48
1630674831843,3.97
1630674831859,4.37
1630674831875,4.76
1630674831890,5.11
1630674831906,5.35
1630674831921,5.37
1630674831937,5.15
1630674831953,4.72
1630674831968,4.18
1630674831984,3.65
1630674832000,3.24
1630674832015,3.03
1630674832031,3.02
1630674832046,3.17
1630674832062,3.42
1630674832078,3.68
1630674832093,3.89
1630674832109,4.04
1630674832125,4.09
1630674832140,4.04
1630674832156,3.8
1630674832171,3.33
1630674832187,2.61
1630674832203,1.71
1630674832218,0.8
1630674832234,0.08
1630674832250,-0.38
1630674832265,-0.58
1630674832281,-0.7
1630674832296,-0.96
1630674832312,-1.5
1630674832328,-2.34
1630674832343,-3.4
1630674832359,-4.57
1630674832375,-5.74
1630674832390,-6.86
1630674832406,-7.87
1630674832421,-8.72
1630674832437,-9.27
1630674832453,-9.37
1630674832468,-8.87
1630674832484,-7.77
1630674832500,-6.17
1630674832515,-4.22
1630674832531,-2.13
1630674832546,-0.02
1630674832562,1.99
1630674832578,3.85
1630674832593,5.49
1630674832609,6.84
1630674832625,7.84
1630674832640,8.45
1630674832656,8.67
1630674832671,8.58
1630674832687,8.31
1630674832703,7.99
1630674832718,7.71
1630674832734,7.49
1630674832750,7.27
1630674832765,7.02
1630674832781,6.71
1630674832796,6.37
1630674832812,6.06
1630674832828,5.83
1630674832843,5.67
1630674832859,5.53
1630674832875,5.32
1630674832890,4.93
1630674832906,4.31
1630674832921,3.42
1630674832937,2.34
1630674832953,1.18
1630674832968,0.07
1630674832984,-0.82
1630674833000,-1.39
1630674833015,-1.66
1630674833031,-1.72
1630674833046,-1.76
1630674833062,-1.97
1630674833078,-2.47
1630674833093,-3.25
1630674833109,-4.2
1630674833125,-5.18
1630674833140,-6.1
1630674833156,-6.92
1630674833171,-7.63
1630674833187,-8.26
1630674833203,-8.79
1630674833218,-9.13
1630674833234,-9.21
1630674833250,-8.91
1630674833265,-8.22
1630674833281,-7.14
1630674833296,-5.75
1630674833312,-4.13
1630674833328,-2.37
1630674833343,-0.6
1630674833359,1.07
1630674833375,2.5
1630674833390,3.58
1630674833406,4.27
1630674833421,4.56
1630674833437,4.51
1630674833453,4.27
1630674833468,4.01
1630674833484,3.89
1630674833500,4.01
1630674833515,4.33
1630674833531,4.76
1630674833546,5.16
1630674833562,5.42
1630674833578,5.5
1630674833593,5.44
1630674833609,5.36
1630674833625,5.31
1630674833640,5.28
1630674833656,5.2
1630674833671,4.94
1630674833687,4.45
1630674833703,3.74
1630674833718,2.92
1630674833734,2.14
1630674833750,1.46
1630674833765,0.86
1630674833781,0.22
1630674833796,-0.6
1630674833812,-1.66
1630674833828,-2.85
1630674833843,-4.02
1630674833859,-4.99
1630674833875,-5.68
1630674833890,-6.13
1630674833906,-6.51
1630674833921,-7.0
1630674833937,-7.67
1630674833953,-8.51
1630674833968,-9.4
1630674833984,-10.23
1630674834000,-10.92
1630674834015,-11.44
1630674834031,-11.76
1630674834046,-11.8
1630674834062,-11.48
1630674834078,-10.7
1630674834093,-9.42
1630674834109,-7.62
1630674834125,-5.42
1630674834140,-3.01
1630674834156,-0.61
1630674834171,1.53
1630674834187,3.25
1630674834203,4.5
1630674834218,5.31
1630674834234,5.77
1630674834250,6.0
1630674834265,6.1
1630674834281,6.15
1630674834296,6.21
1630674834312,6.35
1630674834328,6.58
1630674834343,6.87
1630674834359,7.11
1630674834375,7.19
1630674834390,7.07
1630674834406,6.79
1630674834421,6.46
1630674834437,6.21
1630674834453,6.04
1630674834468,5.91
1630674834484,5.71
1630674834500,5.39
1630674834515,4.99
1630674834531,4.57
1630674834546,4.19
1630674834562,3.81
1630674834578,3.34
1630674834593,2.68
1630674834609,1.84
1630674834625,0.87
1630674834640,-0.08
1630674834656,-0.91
1630674834671,-1.61
1630674834687,-2.23
1630674834703,-2.86
1630674834718,-3.56
1630674834734,-4.35
1630674834750,-5.22
1630674834765,-6.15
1630674834781,-7.08
1630674834796,-7.95
1630674834812,-8.59
1630674834828,-8.77
1630674834843,-8.28
1630674834859,-7.03
1630674834875,-5.12
1630674834890,-2.87
1630674834906,-0.66
1630674834921,1.18
1630674834937,2.5
1630674834953,3.32
1630674834968,3.78
1630674834984,4.05
1630674835000,4.25
1630674835015,4.42
1630674835031,4.59
1630674835046,4.76
1630674835062,4.98
1630674835078,5.24
1630674835093,5.56
1630674835109,5.92
1630674835125,6.25
1630674835140,6.47
1630674835156,6.51
1630674835171,6.25
1630674835187,5.7
1630674835203,4.9
1630674835218,4.05
1630674835234,3.38
1630674835250,3.04
1630674835265,3.04
1630674835281,3.21
1630674835296,3.29
1630674835312,3.0
1630674835328,2.26
1630674835343,1.16
1630674835359,-0.09
1630674835375,-1.24
1630674835390,-2.13
1630674835406,-2.77
1630674835421,-3.25
1630674835437,-3.69
1630674835453,-4.15
1630674835468,-4.58
1630674835484,-4.91
1630674835500,-5.11
1630674835515,-5.29
1630674835531,-5.62
1630674835546,-6.32
1630674835562,-7.44
1630674835578,-8.87
1630674835593,-10.28
1630674835609,-11.31
1630674835625,-11.67
1630674835640,-11.26
1630674835656,-10.2
1630674835671,-8.7
1630674835687,-6.95
1630674835703,-5.09
1630674835718,-3.16
1630674835734,-1.21
1630674835750,0.69
1630674835765,2.42
1630674835781,3.84
1630674835796,4.92
1630674835812,5.66
1630674835828,6.14
1630674835843,6.44
1630674835859,6.65
1630674835875,6.76
1630674835890,6.77
1630674835906,6.69
1630674835921,6.58
1630674835937,6.52
1630674835953,6.55
1630674835968,6.63
1630674835984,6.64
1630674836000,6.49
1630674836015,6.1
1630674836031,5.49
1630674836046,4.75
1630674836062,3.97
1630674836078,3.2
1630674836093,2.41
1630674836109,1.59
1630674836125,0.72
1630674836140,-0.14
1630674836156,-0.91
1630674836171,-1.51
1630674836187,-1.91
1630674836203,-2.18
1630674836218,-2.42
1630674836234,-2.76
1630674836250,-3.27
1630674836265,-3.98
1630674836281,-4.83
1630674836296,-5.76
1630674836312,-6.71
1630674836328,-7.62
1630674836343,-8.51
1630674836359,-9.35
1630674836375,-10.13
1630674836390,-10.77
1630674836406,-11.17
1630674836421,-11.23
1630674836437,-10.88
1630674836453,-10.14
1630674836468,-9.07
1630674836484,-7.76
1630674836500,-6.29
1630674836515,-4.66
1630674836531,-2.88
1630674836546,-0.96
1630674836562,1.02
1630674836578,2.86
1630674836593,4.37
1630674836609,5.4
1630674836625,5.9
1630674836640,6.03
1630674836656,6.02
1630674836671,6.07
1630674836687,6.3
1630674836703,6.66
1630674836718,7.02
1630674836734,7.24
1630674836750,7.27
1630674836765,7.15
1630674836781,7.0
1630674836796,6.86
1630674836812,6.74
1630674836828,6.55
1630674836843,6.19
1630674836859,5.67
1630674836875,5.04
1630674836890,4.44
1630674836906,4.0
1630674836921,3.76
1630674836937,3.65
1630674836953,3.58
1630674836968,3.42
1630674836984,3.11
1630674837000,2.62
1630674837015,1.95
1630674837031,1.16
1630674837046,0.3
1630674837062,-0.6
1630674837078,-1.52
1630674837093,-2.49
1630674837109,-3.55
1630674837125,-4.72
1630674837140,-5.97
1630674837156,-7.21
1630674837171,-8.31
1630674837187,-9.12
1630674837203,-9.54
1630674837218,-9.5
1630674837234,-8.99
1630674837250,-8.02
1630674837265,-6.66
1630674837281,-4.99
1630674837296,-3.11
1630674837312,-1.15
1630674837328,0.78
1630674837343,2.57
1630674837359,4.15
1630674837375,5.44
1630674837390,6.35
1630674837406,6.83
1630674837421,6.84
1630674837437,6.49
1630674837453,5.91
1630674837468,5.31
1630674837484,4.83
1630674837500,4.55
1630674837515,4.46
1630674837531,4.5
1630674837546,4.64
1630674837562,4.87
1630674837578,5.15
1630674837593,5.42
1630674837609,5.58
1630674837625,5.54
1630674837640,5.25
1630674837656,4.77
1630674837671,4.19
1630674837687,3.62
1630674837703,3.11
1630674837718,2.62
1630674837734,2.1
1630674837750,1.5
1630674837765,0.86
1630674837781,0.25
1630674837796,-0.33
1630674837812,-0.89
1630674837828,-1.54
1630674837843,-2.36
1630674837859,-3.37
1630674837875,-4.49
1630674837890,-5.58
1630674837906,-6.52
1630674837921,-7.23
1630674837937,-7.73
1630674837953,-8.15
1630674837968,-8.64
1630674837984,-9.31
1630674838000,-10.12
1630674838015,-10.92
1630674838031,-11.47
1630674838046,-11.54
1630674838062,-10.99
1630674838078,-9.85
1630674838093,-8.3
1630674838109,-6.52
1630674838125,-4.68
1630674838140,-2.85
1630674838156,-1.07
1630674838171,0.62
1630674838187,2.11
1630674838203,3.29
1630674838218,4.1
1630674838234,4.62
1630674838250,5.02
1630674838265,5.48
1630674838281,6.09
1630674838296,6.77
1630674838312,7.33
1630674838328,7.58
1630674838343,7.45
1630674838359,7.06
1630674838375,6.6
1630674838390,6.31
1630674838406,6.29
1630674838421,6.53
1630674838437,6.9
1630674838453,7.2
1630674838468,7.28
1630674838484,7.05
1630674838500,6.53
1630674838515,5.8
1630674838531,4.96
1630674838546,4.05
1630674838562,3.11
1630674838578,2.16
1630674838593,1.23
1630674838609,0.35
1630674838625,-0.44
1630674838640,-1.11
1630674838656,-1.68
1630674838671,-2.24
1630674838687,-2.87
1630674838703,-3.61
1630674838718,-4.49
1630674838734,-5.39
1630674838750,-6.18
1630674838765,-6.75
1630674838781,-7.05
1630674838796,-7.14
1630674838812,-7.15
1630674838828,-7.24
1630674838843,-7.51
1630674838859,-7.99
1630674838875,-8.63
1630674838890,-9.32
1630674838906,-9.97
1630674838921,-10.49
1630674838937,-10.73
1630674838953,-10.55
1630674838968,-9.79
1630674838984,-8.39
1630674839000,-6.4
1630674839015,-4.07
1630674839031,-1.71
1630674839046,0.38
1630674839062,2.02
1630674839078,3.21
1630674839093,4.04
1630674839109,4.63
1630674839125,5.05
1630674839140,5.33
1630674839156,5.47
1630674839171,5.52
1630674839187,5.58
1630674839203,5.76
1630674839218,6.11
1630674839234,6.55
1630674839250,6.92
1630674839265,7.09
1630674839281,6.99
1630674839296,6.71
1630674839312,6.39
1630674839328,6.16
1630674839343,6.09
1630674839359,6.08
1630674839375,6.02
1630674839390,5.75
1630674839406,5.23
1630674839421,4.49
1630674839437,3.68
1630674839453,2.93
1630674839468,2.3
1630674839484,1.82
1630674839500,1.49
1630674839515,1.31
1630674839531,1.23
1630674839546,1.22
1630674839562,1.12
1630674839578,0.78
1630674839593,0.04
1630674839609,-1.14
1630674839625,-2.59
1630674839640,-4.03
1630674839656,-5.13
1630674839671,-5.73
1630674839687,-5.87
1630674839703,-5.84
1630674839718,-5.95
1630674839734,-6.37
1630674839750,-7.05
1630674839765,-7.76
1630674839781,-8.23
1630674839796,-8.28
1630674839812,-7.93
1630674839828,-7.24
1630674839843,-6.31
1630674839859,-5.18
1630674839875,-3.74
1630674839890,-1.96
1630674839906,0.09
1630674839921,2.19
1630674839937,4.04
1630674839953,5.43
1630674839968,6.3
1630674839984,6.8
1630674840000,7.14
1630674840015,7.49
1630674840031,7.85
1630674840046,8.09
1630674840062,8.06
1630674840078,7.73
1630674840093,7.21
1630674840109,6.72
1630674840125,6.39
1630674840140,6.22
1630674840156,6.12
1630674840171,5.93
1630674840187,5.58
1630674840203,5.13
1630674840218,4.7
1630674840234,4.33
1630674840250,3.99
1630674840265,3.54
1630674840281,2.85
1630674840296,1.94
1630674840312,0.94
1630674840328,0.05
1630674840343,-0.55
1630674840359,-0.84
1630674840375,-0.95
1630674840390,-1.06
1630674840406,-1.34
1630674840421,-1.86
1630674840437,-2.56
1630674840453,-3.27
1630674840468,-3.86
1630674840484,-4.23
1630674840500,-4.42
1630674840515,-4.51
1630674840531,-4.67
1630674840546,-5.04
1630674840562,-5.75
1630674840578,-6.81
1630674840593,-8.19
1630674840609,-9.77
1630674840625,-11.34
1630674840640,-12.66
1630674840656,-13.45
1630674840671,-13.47
1630674840687,-12.58
1630674840703,-10.81
1630674840718,-8.39
1630674840734,-5.69
1630674840750,-3.16
1630674840765,-1.12
1630674840781,0.3
1630674840796,1.21
1630674840812,1.86
1630674840828,2.51
1630674840843,3.26
1630674840859,4.08
1630674840875,4.86
1630674840890,5.51
1630674840906,6.04
1630674840921,6.55
1630674840937,7.08
1630674840953,7.6
1630674840968,7.98
1630674840984,8.05
1630674841000,7.72
1630674841015,7.07
1630674841031,6.3
1630674841046,5.63
1630674841062,5.21
1630674841078,5.05
1630674841093,5.02
1630674841109,4.97
1630674841125,4.77
1630674841140,4.37
1630674841156,3.79
1630674841171,3.08
1630674841187,2.24
1630674841203,1.3
1630674841218,0.31
1630674841234,-0.66
1630674841250,-1.5
1630674841265,-2.15
1630674841281,-2.6
1630674841296,-2.9
1630674841312,-3.16
1630674841328,-3.49
1630674841343,-3.94
1630674841359,-4.53
1630674841375,-5.2
1630674841390,-5.91
1630674841406,-6.63
1630674841421,-7.32
1630674841437,-7.99
1630674841453,-8.64
1630674841468,-9.28
1630674841484,-9.89
1630674841500,-10.41
1630674841515,-10.7
1630674841531,-10.6
1630674841546,-9.96
1630674841562,-8.7
1630674841578,-6.88
1630674841593,-4.7
1630674841609,-2.45
1630674841625,-0.45
1630674841640,1.07
1630674841656,2.04
1630674841671,2.56
1630674841687,2.84
1630674841703,3.04
1630674841718,3.25
1630674841734,3.44
1630674841750,3.55
1630674841765,3.52
1630674841781,3.39
1630674841796,3.25
1630674841812,3.22
1630674841828,3.31
1630674841843,3.48
1630674841859,3.61
1630674841875,3.65
1630674841890,3.63
1630674841906,3.64
1630674841921,3.77
1630674841937,4.03
1630674841953,4.27
1630674841968,4.33
1630674841984,4.08
1630674842000,3.53
1630674842015,2.82
1630674842031,2.15
1630674842046,1.65
1630674842062,1.34
1630674842078,1.1
1630674842093,0.79
1630674842109,0.33
1630674842125,-0.26
1630674842140,-0.89
1630674842156,-1.46
1630674842171,-1.89
1630674842187,-2.19
1630674842203,-2.39
1630674842218,-2.55
1630674842234,-2.73
1630674842250,-2.95
1630674842265,-3.28
1630674842281,-3.76
1630674842296,-4.43
1630674842312,-5.29
1630674842328,-6.23
1630674842343,-7.03
1630674842359,-7.42
1630674842375,-7.18
1630674842390,-6.19
1630674842406,-4.54
1630674842421,-2.47
1630674842437,-0.31
1630674842453,1.7
1630674842468,3.4
1630674842484,4.73
1630674842500,5.7
1630674842515,6.31
1630674842531,6.59
1630674842546,6.6
1630674842562,6.43
1630674842578,6.19
1630674842593,5.97
1630674842609,5.79
1630674842625,5.61
1630674842640,5.39
1630674842656,5.15
1630674842671,4.95
1630674842687,4.9
1630674842703,5.05
1630674842718,5.32
1630674842734,5.57
1630674842750,5.67
1630674842765,5.5
1630674842781,5.11
1630674842796,4.55
1630674842812,3.91
1630674842828,3.26
1630674842843,2.61
1630674842859,1.97
1630674842875,1.36
1630674842890,0.75
1630674842906,0.12
1630674842921,-0.61
1630674842937,-1.51
1630674842953,-2.56
1630674842968,-3.65
1630674842984,-4.62
1630674843000,-5.34
1630674843015,-5.77
1630674843031,-6.0
1630674843046,-6.23
1630674843062,-6.61
1630674843078,-7.2
1630674843093,-7.97
1630674843109,-8.79
1630674843125,-9.55
1630674843140,-10.15
1630674843156,-10.52
1630674843171,-10.56
1630674843187,-10.14
1630674843203,-9.18
1630674843218,-7.65
1630674843234,-5.71
1630674843250,-3.56
1630674843265,-1.46
1630674843281,0.44
1630674843296,2.15
1630674843312,3.69
1630674843328,5.12
1630674843343,6.37
1630674843359,7.33
1630674843375,7.86
1630674843390,7.95
1630674843406,7.69
1630674843421,7.25
1630674843437,6.77
1630674843453,6.3
1630674843468,5.83
1630674843484,5.33
1630674843500,4.82
1630674843515,4.34
1630674843531,3.97
1630674843546,3.74
1630674843562,3.61
1630674843578,3.51
1630674843593,3.36
1630674843609,3.15
1630674843625,2.86
1630674843640,2.46
1630674843656,1.94
1630674843671,1.25
1630674843687,0.37
1630674843703,-0.68
1630674843718,-1.81
1630674843734,-2.89
1630674843750,-3.81
1630674843765,-4.49
1630674843781,-4.95
1630674843796,-5.25
1630674843812,-5.49
1630674843828,-5.77
1630674843843,-6.12
1630674843859,-6.55
1630674843875,-7.05
1630674843890,-7.62
1630674843906,-8.28
1630674843921,-9.02
1630674843937,-9.81
1630674843953,-10.56
1630674843968,-11.07
1630674843984,-11.17
1630674844000,-10.69
1630674844015,-9.61
1630674844031,-8.0
1630674844046,-6.01
1630674844062,-3.87
1630674844078,-1.74
1630674844093,0.24
1630674844109,1.95
1630674844125,3.32
1630674844140,4.34
1630674844156,4.99
1630674844171,5.4
1630674844187,5.69
1630674844203,6.0
1630674844218,6.37
1630674844234,6.77
1630674844250,7.13
1630674844265,7.33
1630674844281,7.37
1630674844296,7.27
1630674844312,7.1
1630674844328,6.91
1630674844343,6.73
1630674844359,6.54
1630674844375,6.31
1630674844390,6.01
1630674844406,5.62
1630674844421,5.15
1630674844437,4.62
1630674844453,4.06
1630674844468,3.54
1630674844484,3.09
1630674844500,2.72
1630674844515,2.41
1630674844531,2.08
1630674844546,1.64
1630674844562,1.03
1630674844578,0.3
1630674844593,-0.45
1630674844609,-1.06
1630674844625,-1.46
1630674844640,-1.68
1630674844656,-1.89
1630674844671,-2.31
1630674844687,-3.09
1630674844703,-4.26
1630674844718,-5.72
1630674844734,-7.24
1630674844750,-8.61
1630674844765,-9.64
1630674844781,-10.19
1630674844796,-10.15
1630674844812,-9.43
1630674844828,-7.99
1630674844843,-5.91
1630674844859,-3.43
1630674844875,-0.88
1630674844890,1.35
1630674844906,3.05
1630674844921,4.14
1630674844937,4.75
1630674844953,5.11
1630674844968,5.4
1630674844984,5.72
1630674845000,6.03
1630674845015,6.26
1630674845031,6.34
1630674845046,6.27
1630674845062,6.1
1630674845078,5.93
1630674845093,5.79
1630674845109,5.68
1630674845125,5.51
1630674845140,5.21
1630674845156,4.77
1630674845171,4.23
1630674845187,3.72
1630674845203,3.35
1630674845218,3.19
1630674845234,3.18
1630674845250,3.22
1630674845265,3.12
1630674845281,2.74
1630674845296,2.07
1630674845312,1.15
1630674845328,0.13
1630674845343,-0.83
1630674845359,-1.67
1630674845375,-2.41
1630674845390,-3.1
1630674845406,-3.8
1630674845421,-4.49
1630674845437,-5.11
1630674845453,-5.59
1630674845468,-5.96
1630674845484,-6.3
1630674845500,-6.74
1630674845515,-7.4
1630674845531,-8.3
1630674845546,-9.33
1630674845562,-10.32
1630674845578,-11.07
1630674845593,-11.42
1630674845609,-11.25
1630674845625,-10.5
1630674845640,-9.18
1630674845656,-7.4
1630674845671,-5.3
1630674845687,-3.08
1630674845703,-0.92
1630674845718,1.03
1630674845734,2.65
1630674845750,3.89
1630674845765,4.74
1630674845781,5.27
1630674845796,5.6
1630674845812,5.85
1630674845828,6.12
1630674845843,6.43
1630674845859,6.72
1630674845875,6.93
1630674845890,6.97
1630674845906,6.85
1630674845921,6.61
1630674845937,6.35
1630674845953,6.16
1630674845968,6.04
1630674845984,5.95
1630674846000,5.78
1630674846015,5.45
1630674846031,4.92
1630674846046,4.26
1630674846062,3.55
1630674846078,2.91
1630674846093,2.4
1630674846109,2.01
1630674846125,1.67
1630674846140,1.34
1630674846156,0.96
1630674846171,0.51
1630674846187,0.01
1630674846203,-0.58
1630674846218,-1.25
1630674846234,-2.01
1630674846250,-2.85
1630674846265,-3.72
1630674846281,-4.57
1630674846296,-5.33
1630674846312,-6.0
1630674846328,-6.56
1630674846343,-7.09
1630674846359,-7.64
1630674846375,-8.28
1630674846390,-9.07
1630674846406,-9.93
1630674846421,-10.68
1630674846437,-11.05
1630674846453,-10.76
1630674846468,-9.65
1630674846484,-7.73
1630674846500,-5.2
1630674846515,-2.32
1630674846531,0.6
1630674846546,3.34
1630674846562,5.72
1630674846578,7.64
1630674846593,9.0
1630674846609,9.78
1630674846625,10.05
1630674846640,10.02
1630674846656,10.0
1630674846671,10.28
1630674846687,11.01
1630674846703,12.11
1630674846718,13.25
1630674846734,14.04
1630674846750,14.19
1630674846765,13.58
1630674846781,12.39
1630674846796,10.89
1630674846812,9.41
1630674846828,8.13
1630674846843,7.08
1630674846859,6.12
1630674846875,5.1
1630674846890,3.91
1630674846906,2.58
1630674846921,1.22
1630674846937,-0.02
1630674846953,-1.0
1630674846968,-1.72
1630674846984,-2.25
1630674847000,-2.76
1630674847015,-3.38
1630674847031,-4.18
1630674847046,-5.09
1630674847062,-5.97
1630674847078,-6.68
1630674847093,-7.07
1630674847109,-7.13
1630674847125,-6.89
1630674847140,-6.45
1630674847156,-5.93
1630674847171,-5.48
1630674847187,-5.27
1630674847203,-5.43
1630674847218,-6.01
1630674847234,-6.96
1630674847250,-8.09
1630674847265,-9.11
1630674847281,-9.68
1630674847296,-9.57
1630674847312,-8.72
1630674847328,-7.31
1630674847343,-5.7
1630674847359,-4.3
1630674847375,-3.42
1630674847390,-3.19
1630674847406,-3.47
1630674847421,-3.97
1630674847437,-4.38
1630674847453,-4.51
1630674847468,-4.31
1630674847484,-3.88
1630674847500,-3.35
1630674847515,-2.83
1630674847531,-2.38
1630674847546,-2.04
1630674847562,-1.78
1630674847578,-1.61
1630674847593,-1.5
1630674847609,-1.41
1630674847625,-1.25
1630674847640,-0.95
1630674847656,-0.44
1630674847671,0.24
1630674847687,0.98
1630674847703,1.64
1630674847718,2.1
1630674847734,2.31
1630674847750,2.27
1630674847765,2.07
1630674847781,1.79
1630674847796,1.51
1630674847812,1.19
1630674847828,0.81
1630674847843,0.32
1630674847859,-0.24
1630674847875,-0.82
1630674847890,-1.34
1630674847906,-1.76
1630674847921,-2.11
1630674847937,-2.48
1630674847953,-2.94
1630674847968,-3.52
1630674847984,-4.2
1630674848000,-4.9
1630674848015,-5.55
1630674848031,-6.11
1630674848046,-6.56
1630674848062,-6.87
1630674848078,-6.95
1630674848093,-6.69
1630674848109,-5.96
1630674848125,-4.71
1630674848140,-2.96
1630674848156,-0.84
1630674848171,1.48
1630674848187,3.8
1630674848203,5.94
1630674848218,7.72
1630674848234,9.02
1630674848250,9.78
1630674848265,10.02
1630674848281,9.86
1630674848296,9.49
1630674848312,9.15
1630674848328,9.01
1630674848343,9.11
1630674848359,9.36
1630674848375,9.58
1630674848390,9.55
1630674848406,9.17
1630674848421,8.5
1630674848437,7.72
1630674848453,7.01
1630674848468,6.53
1630674848484,6.23
1630674848500,5.96
1630674848515,5.54
1630674848531,4.89
1630674848546,4.08
1630674848562,3.26
1630674848578,2.57
1630674848593,2.01
1630674848609,1.45
1630674848625,0.73
1630674848640,-0.23
1630674848656,-1.38
1630674848671,-2.55
1630674848687,-3.57
1630674848703,-4.38
1630674848718,-5.0
1630674848734,-5.52
1630674848750,-5.99
1630674848765,-6.42
1630674848781,-6.79
1630674848796,-7.17
1630674848812,-7.68
1630674848828,-8.44
1630674848843,-9.48
1630674848859,-10.64
1630674848875,-11.56
1630674848890,-11.82
1630674848906,-11.13
1630674848921,-9.44
1630674848937,-6.96
1630674848953,-4.1
1630674848968,-1.28
1630674848984,1.23
1630674849000,3.3
1630674849015,4.94
1630674849031,6.23
1630674849046,7.18
1630674849062,7.79
1630674849078,8.04
1630674849093,7.99
1630674849109,7.73
1630674849125,7.4
1630674849140,7.15
1630674849156,7.03
1630674849171,7.01
1630674849187,7.02
1630674849203,6.96
1630674849218,6.79
1630674849234,6.47
1630674849250,6.01
1630674849265,5.46
1630674849281,4.83
1630674849296,4.17
1630674849312,3.47
1630674849328,2.72
1630674849343,1.88
1630674849359,0.91
1630674849375,-0.12
1630674849390,-1.09
1630674849406,-1.83
1630674849421,-2.22
1630674849437,-2.29
1630674849453,-2.22
1630674849468,-2.24
1630674849484,-2.57
1630674849500,-3.24
1630674849515,-4.11
1630674849531,-4.96
1630674849546,-5.63
1630674849562,-6.06
1630674849578,-6.35
1630674849593,-6.68
1630674849609,-7.22
1630674849625,-8.04
1630674849640,-9.08
1630674849656,-10.17
1630674849671,-11.01
1630674849687,-11.32
1630674849703,-10.92
1630674849718,-9.73
1630674849734,-7.89
1630674849750,-5.65
1630674849765,-3.3
1630674849781,-1.09
1630674849796,0.85
1630674849812,2.48
1630674849828,3.78
1630674849843,4.77
1630674849859,5.41
1630674849875,5.68
1630674849890,5.63
1630674849906,5.37
1630674849921,5.1
1630674849937,4.97
1630674849953,5.07
1630674849968,5.35
1630674849984,5.67
1630674850000,5.83
1630674850015,5.68
1630674850031,5.23
1630674850046,4.55
1630674850062,3.81
1630674850078,3.15
1630674850093,2.65
1630674850109,2.32
1630674850125,2.09
1630674850140,1.93
1630674850156,1.77
1630674850171,1.6
1630674850187,1.39
1630674850203,1.14
1630674850218,0.81
1630674850234,0.37
1630674850250,-0.18
1630674850265,-0.87
1630674850281,-1.68
1630674850296,-2.6
1630674850312,-3.56
1630674850328,-4.5
1630674850343,-5.4
1630674850359,-6.23
1630674850375,-7.04
1630674850390,-7.85
1630674850406,-8.68
1630674850421,-9.47
1630674850437,-10.14
1630674850453,-10.58
1630674850468,-10.66
1630674850484,-10.31
1630674850500,-9.47
1630674850515,-8.15
1630674850531,-6.43
1630674850546,-4.44
1630674850562,-2.31
1630674850578,-0.2
1630674850593,1.81
1630674850609,3.67
1630674850625,5.31
1630674850640,6.7
1630674850656,7.77
1630674850671,8.48
1630674850687,8.82
1630674850703,8.89
1630674850718,8.78
1630674850734,8.59
1630674850750,8.38
1630674850765,8.15
1630674850781,7.92
1630674850796,7.71
1630674850812,7.56
1630674850828,7.54
1630674850843,7.65
1630674850859,7.83
1630674850875,7.96
1630674850890,7.92
1630674850906,7.62
1630674850921,7.03
1630674850937,6.21
1630674850953,5.3
1630674850968,4.43
1630674850984,3.72
1630674851000,3.14
1630674851015,2.61
1630674851031,2.0
1630674851046,1.18
1630674851062,0.12
1630674851078,-1.13
1630674851093,-2.46
1630674851109,-3.76
1630674851125,-4.97
1630674851140,-6.06
1630674851156,-7.03
1630674851171,-7.83
1630674851187,-8.43
1630674851203,-8.79
1630674851218,-8.94
1630674851234,-9.0
1630674851250,-9.12
1630674851265,-9.37
1630674851281,-9.7
1630674851296,-9.9
1630674851312,-9.73
1630674851328,-9.0
1630674851343,-7.63
1630674851359,-5.74
1630674851375,-3.55
1630674851390,-1.29
1630674851406,0.87
1630674851421,2.8
1630674851437,4.5
1630674851453,5.96
1630674851468,7.19
1630674851484,8.15
1630674851500,8.72
1630674851515,8.82
1630674851531,8.42
1630674851546,7.63
1630674851562,6.67
1630674851578,5.78
1630674851593,5.19
1630674851609,4.98
1630674851625,5.06
1630674851640,5.27
1630674851656,5.46
1630674851671,5.54
1630674851687,5.49
1630674851703,5.29
1630674851718,4.9
1630674851734,4.29
1630674851750,3.44
1630674851765,2.39
1630674851781,1.27
1630674851796,0.27
1630674851812,-0.49
1630674851828,-0.97
1630674851843,-1.25
1630674851859,-1.53
1630674851875,-2.0
1630674851890,-2.76
1630674851906,-3.77
1630674851921,-4.82
1630674851937,-5.69
1630674851953,-6.28
1630674851968,-6.65
1630674851984,-6.98
1630674852000,-7.52
1630674852015,-8.38
1630674852031,-9.53
1630674852046,-10.74
1630674852062,-11.71
1630674852078,-12.17
1630674852093,-11.97
1630674852109,-11.08
1630674852125,-9.59
1630674852140,-7.66
1630674852156,-5.43
1630674852171,-3.05
1630674852187,-0.65
1630674852203,1.69
1630674852218,3.88
1630674852234,5.81
1630674852250,7.35
1630674852265,8.4
1630674852281,8.93
1630674852296,9.08
1630674852312,9.0
1630674852328,8.88
1630674852343,8.78
1630674852359,8.65
1630674852375,8.37
1630674852390,7.84
1630674852406,7.11
1630674852421,6.33
1630674852437,5.69
1630674852453,5.32
1630674852468,5.19
1630674852484,5.11
1630674852500,4.9
1630674852515,4.44
1630674852531,3.74
1630674852546,2.93
1630674852562,2.13
1630674852578,1.42
1630674852593,0.79
1630674852609,0.16
1630674852625,-0.5
1630674852640,-1.22
1630674852656,-2.0
1630674852671,-2.84
1630674852687,-3.76
1630674852703,-4.74
1630674852718,-5.76
1630674852734,-6.71
1630674852750,-7.51
1630674852765,-8.13
1630674852781,-8.67
1630674852796,-9.27
1630674852812,-10.04
1630674852828,-10.93
1630674852843,-11.73
1630674852859,-12.13
1630674852875,-11.89
1630674852890,-10.96
1630674852906,-9.48
1630674852921,-7.71
1630674852937,-5.9
1630674852953,-4.18
1630674852968,-2.52
1630674852984,-0.87
1630674853000,0.82
1630674853015,2.47
1630674853031,3.98
1630674853046,5.2
1630674853062,6.08
1630674853078,6.63
1630674853093,6.91
1630674853109,6.99
1630674853125,6.89
1630674853140,6.61
1630674853156,6.18
1630674853171,5.68
1630674853187,5.23
1630674853203,4.96
1630674853218,4.95
1630674853234,5.17
1630674853250,5.53
1630674853265,5.82
1630674853281,5.87
1630674853296,5.61
1630674853312,4.99
1630674853328,4.09
1630674853343,3.05
1630674853359,1.99
1630674853375,1.02
1630674853390,0.19
1630674853406,-0.47
1630674853421,-0.96
1630674853437,-1.32
1630674853453,-1.61
1630674853468,-1.89
1630674853484,-2.22
1630674853500,-2.61
1630674853515,-3.06
1630674853531,-3.54
1630674853546,-4.04
1630674853562,-4.58
1630674853578,-5.19
1630674853593,-5.93
1630674853609,-6.76
1630674853625,-7.61
1630674853640,-8.34
1630674853656,-8.82
1630674853671,-8.91
1630674853687,-8.5
1630674853703,-7.57
1630674853718,-6.12
1630674853734,-4.23
1630674853750,-2.04
1630674853765,0.24
1630674853781,2.4
1630674853796,4.34
1630674853812,6.0
1630674853828,7.39
1630674853843,8.56
1630674853859,9.5
1630674853875,10.2
1630674853890,10.57
1630674853906,10.6
1630674853921,10.29
1630674853937,9.69
1630674853953,8.89
1630674853968,7.99
1630674853984,7.09
1630674854000,6.29
1630674854015,5.69
1630674854031,5.31
1630674854046,5.15
1630674854062,5.12
1630674854078,5.12
1630674854093,4.99
1630674854109,4.64
1630674854125,4.01
1630674854140,3.11
1630674854156,2.05
1630674854171,0.97
1630674854187,0.07
1630674854203,-0.54
1630674854218,-0.8
1630674854234,-0.83
1630674854250,-0.82
1630674854265,-0.94
1630674854281,-1.32
1630674854296,-1.95
1630674854312,-2.77
1630674854328,-3.69
1630674854343,-4.68
1630674854359,-5.71
1630674854375,-6.77
1630674854390,-7.83
1630674854406,-8.87
1630674854421,-9.81
1630674854437,-10.55
1630674854453,-10.97
1630674854468,-10.92
1630674854484,-10.26
1630674854500,-8.96
1630674854515,-7.07
1630674854531,-4.82
1630674854546,-2.49
1630674854562,-0.31
1630674854578,1.57
1630674854593,3.13
1630674854609,4.39
1630674854625,5.41
1630674854640,6.21
1630674854656,6.82
1630674854671,7.26
1630674854687,7.55
1630674854703,7.72
1630674854718,7.77
1630674854734,7.7
1630674854750,7.5
1630674854765,7.17
1630674854781,6.74
1630674854796,6.24
1630674854812,5.69
1630674854828,5.11
1630674854843,4.5
1630674854859,3.87
1630674854875,3.21
1630674854890,2.51
1630674854906,1.77
1630674854921,0.99
1630674854937,0.22
1630674854953,-0.53
1630674854968,-1.2
1630674854984,-1.79
1630674855000,-2.3
1630674855015,-2.76
1630674855031,-3.15
1630674855046,-3.42
1630674855062,-3.55
1630674855078,-3.52
1630674855093,-3.4
1630674855109,-3.3
1630674855125,-3.36
1630674855140,-3.7
1630674855156,-4.39
1630674855171,-5.43
1630674855187,-6.75
1630674855203,-8.2
1630674855218,-9.54
1630674855234,-10.5
1630674855250,-10.85
1630674855265,-10.42
1630674855281,-9.26
1630674855296,-7.54
1630674855312,-5.52
1630674855328,-3.43
1630674855343,-1.45
1630674855359,0.34
1630674855375,1.91
1630674855390,3.28
1630674855406,4.4
1630674855421,5.25
1630674855437,5.81
1630674855453,6.12
1630674855468,6.23
1630674855484,6.2
1630674855500,6.07
1630674855515,5.86
1630674855531,5.57
1630674855546,5.26
1630674855562,4.99
1630674855578,4.82
1630674855593,4.78
1630674855609,4.84
1630674855625,4.88
1630674855640,4.83
1630674855656,4.63
1630674855671,4.3
1630674855687,3.88
1630674855703,3.45
1630674855718,3.04
1630674855734,2.64
1630674855750,2.25
1630674855765,1.82
1630674855781,1.29
1630674855796,0.65
1630674855812,-0.15
1630674855828,-1.09
1630674855843,-2.15
1630674855859,-3.25
1630674855875,-4.29
1630674855890,-5.19
1630674855906,-5.87
1630674855921,-6.36
1630674855937,-6.75
1630674855953,-7.19
1630674855968,-7.83
1630674855984,-8.77
1630674856000,-9.96
1630674856015,-11.18
1630674856031,-12.07
1630674856046,-12.26
1630674856062,-11.49
1630674856078,-9.75
1630674856093,-7.29
1630674856109,-4.49
1630674856125,-1.76
1630674856140,0.61
1630674856156,2.49
1630674856171,3.88
1630674856187,4.81
1630674856203,5.35
1630674856218,5.54
1630674856234,5.49
1630674856250,5.37
1630674856265,5.38
1630674856281,5.63
1630674856296,6.08
1630674856312,6.53
1630674856328,6.75
1630674856343,6.58
1630674856359,6.02
1630674856375,5.24
1630674856390,4.45
1630674856406,3.84
1630674856421,3.44
1630674856437,3.21
1630674856453,3.06
1630674856468,2.92
1630674856484,2.72
1630674856500,2.44
1630674856515,1.99
1630674856531,1.32
1630674856546,0.4
1630674856562,-0.75
1630674856578,-2.0
1630674856593,-3.24
1630674856609,-4.36
1630674856625,-5.32
1630674856640,-6.14
1630674856656,-6.88
1630674856671,-7.57
1630674856687,-8.2
1630674856703,-8.72
1630674856718,-9.09
1630674856734,-9.23
1630674856750,-9.11
1630674856765,-8.7
1630674856781,-8.0
1630674856796,-7.01
1630674856812,-5.7
1630674856828,-4.07
1630674856843,-2.16
1630674856859,-0.1
1630674856875,1.87
1630674856890,3.47
1630674856906,4.51
1630674856921,4.89
1630674856937,4.72
1630674856953,4.24
1630674856968,3.74
1630674856984,3.46
1630674857000,3.47
1630674857015,3.69
1630674857031,3.89
1630674857046,3.87
1630674857062,3.51
1630674857078,2.83
1630674857093,1.99
1630674857109,1.16
1630674857125,0.46
1630674857140,-0.08
1630674857156,-0.49
1630674857171,-0.81
1630674857187,-1.05
1630674857203,-1.16
1630674857218,-1.12
1630674857234,-0.99
1630674857250,-0.9
1630674857265,-1.02
1630674857281,-1.42
1630674857296,-2.05
1630674857312,-2.71
1630674857328,-3.2
1630674857343,-3.42
1630674857359,-3.41
1630674857375,-3.34
1630674857390,-3.38
1630674857406,-3.59
1630674857421,-3.86
1630674857437,-3.98
1630674857453,-3.72
1630674857468,-2.94
1630674857484,-1.67
1630674857500,-0.08
1630674857515,1.61
1630674857531,3.26
1630674857546,4.76
1630674857562,6.07
1630674857578,7.18
1630674857593,8.03
1630674857609,8.52
1630674857625,8.55
1630674857640,8.1
1630674857656,7.24
1630674857671,6.19
1630674857687,5.21
1630674857703,4.53
1630674857718,4.27
1630674857734,4.35
1630674857750,4.59
1630674857765,4.76
1630674857781,4.66
1630674857796,4.21
1630674857812,3.44
1630674857828,2.5
1630674857843,1.51
1630674857859,0.62
1630674857875,-0.13
1630674857890,-0.76
1630674857906,-1.31
1630674857921,-1.8
1630674857937,-2.21
1630674857953,-2.52
1630674857968,-2.7
1630674857984,-2.83
1630674858000,-3.06
1630674858015,-3.58
1630674858031,-4.51
1630674858046,-5.8
1630674858062,-7.21
1630674858078,-8.39
1630674858093,-9.02
1630674858109,-8.9
1630674858125,-8.08
1630674858140,-6.75
1630674858156,-5.16
1630674858171,-3.5
1630674858187,-1.86
1630674858203,-0.22
1630674858218,1.44
1630674858234,3.1
1630674858250,4.63
1630674858265,5.84
1630674858281,6.54
1630674858296,6.68
1630674858312,6.33
1630674858328,5.73
1630674858343,5.1
1630674858359,4.58
1630674858375,4.23
1630674858390,3.99
1630674858406,3.76
1630674858421,3.51
1630674858437,3.29
1630674858453,3.15
1630674858468,3.16
1630674858484,3.24
1630674858500,3.23
1630674858515,2.98
1630674858531,2.41
1630674858546,1.6
1630674858562,0.77
1630674858578,0.17
1630674858593,-0.13
1630674858609,-0.14
1630674858625,-0.1
1630674858640,-0.25
1630674858656,-0.76
1630674858671,-1.64
1630674858687,-2.75
1630674858703,-3.88
1630674858718,-4.9
1630674858734,-5.81
1630674858750,-6.66
1630674858765,-7.51
1630674858781,-8.29
1630674858796,-8.82
1630674858812,-8.87
1630674858828,-8.27
1630674858843,-6.99
1630674858859,-5.19
1630674858875,-3.15
1630674858890,-1.15
1630674858906,0.58
1630674858921,1.96
1630674858937,3.02
1630674858953,3.8
1630674858968,4.38
1630674858984,4.79
1630674859000,5.03
1630674859015,5.15
1630674859031,5.2
1630674859046,5.28
1630674859062,5.47
1630674859078,5.81
1630674859093,6.2
1630674859109,6.5
1630674859125,6.56
1630674859140,6.28
1630674859156,5.66
1630674859171,4.8
1630674859187,3.88
1630674859203,3.05
1630674859218,2.38
1630674859234,1.84
1630674859250,1.33
1630674859265,0.76
1630674859281,0.05
1630674859296,-0.84
1630674859312,-1.87
1630674859328,-3.02
1630674859343,-4.21
1630674859359,-5.32
1630674859375,-6.25
1630674859390,-6.9
1630674859406,-7.25
1630674859421,-7.32
1630674859437,-7.25
1630674859453,-7.16
1630674859468,-7.13
1630674859484,-7.14
1630674859500,-7.08
1630674859515,-6.82
1630674859531,-6.28
1630674859546,-5.45
1630674859562,-4.3
1630674859578,-2.89
1630674859593,-1.22
1630674859609,0.6
1630674859625,2.41
1630674859640,4.01
1630674859656,5.21
1630674859671,5.95
1630674859687,6.27
1630674859703,6.33
1630674859718,6.29
1630674859734,6.2
1630674859750,6.03
1630674859765,5.69
1630674859781,5.14
1630674859796,4.46
1630674859812,3.82
1630674859828,3.42
1630674859843,3.35
1630674859859,3.55
1630674859875,3.83
1630674859890,3.97
1630674859906,3.85
1630674859921,3.5
1630674859937,3.1
1630674859953,2.78
1630674859968,2.63
1630674859984,2.55
1630674860000,2.36
1630674860015,1.87
1630674860031,1.05
1630674860046,-0.03
1630674860062,-1.16
1630674860078,-2.16
1630674860093,-2.98
1630674860109,-3.67
1630674860125,-4.37
1630674860140,-5.19
1630674860156,-6.14
1630674860171,-7.13
1630674860187,-8.0
1630674860203,-8.63
1630674860218,-9.0
1630674860234,-9.15
1630674860250,-9.15
1630674860265,-9.04
1630674860281,-8.77
1630674860296,-8.26
1630674860312,-7.44
1630674860328,-6.31
1630674860343,-4.94
1630674860359,-3.44
1630674860375,-1.91
1630674860390,-0.41
1630674860406,1.01
1630674860421,2.28
1630674860437,3.34
1630674860453,4.11
1630674860468,4.57
1630674860484,4.77
1630674860500,4.81
1630674860515,4.83
1630674860531,4.93
1630674860546,5.11
1630674860562,5.34
1630674860578,5.53
1630674860593,5.62
1630674860609,5.55
1630674860625,5.32
1630674860640,4.9
1630674860656,4.31
1630674860671,3.61
1630674860687,2.83
1630674860703,2.06
1630674860718,1.36
1630674860734,0.75
1630674860750,0.2
1630674860765,-0.31
1630674860781,-0.8
1630674860796,-1.28
1630674860812,-1.76
1630674860828,-2.22
1630674860843,-2.67
1630674860859,-3.07
1630674860875,-3.4
1630674860890,-3.59
1630674860906,-3.64
1630674860921,-3.56
1630674860937,-3.39
1630674860953,-3.24
1630674860968,-3.19
1630674860984,-3.32
1630674861000,-3.72
1630674861015,-4.39
1630674861031,-5.28
1630674861046,-6.21
1630674861062,-6.94
1630674861078,-7.18
1630674861093,-6.74
1630674861109,-5.55
1630674861125,-3.74
1630674861140,-1.58
1630674861156,0.62
1630674861171,2.55
1630674861187,4.03
1630674861203,4.95
1630674861218,5.34
1630674861234,5.28
1630674861250,4.9
1630674861265,4.34
1630674861281,3.73
1630674861296,3.21
1630674861312,2.87
1630674861328,2.83
1630674861343,3.16
1630674861359,3.83
1630674861375,4.66
1630674861390,5.43
1630674861406,5.85
1630674861421,5.78
1630674861437,5.21
1630674861453,4.35
1630674861468,3.48
1630674861484,2.84
1630674861500,2.51
1630674861515,2.41
1630674861531,2.39
1630674861546,2.28
1630674861562,1.98
1630674861578,1.51
1630674861593,0.98
1630674861609,0.52
1630674861625,0.18
1630674861640,-0.12
1630674861656,-0.46
1630674861671,-0.98
1630674861687,-1.66
1630674861703,-2.38
1630674861718,-2.93
1630674861734,-3.24
1630674861750,-3.38
1630674861765,-3.56
1630674861781,-4.06
1630674861796,-5.0
1630674861812,-6.26
1630674861828,-7.54
1630674861843,-8.48
1630674861859,-8.83
1630674861875,-8.51
1630674861890,-7.6
1630674861906,-6.22
1630674861921,-4.47
1630674861937,-2.45
1630674861953,-0.32
1630674861968,1.74
1630674861984,3.47
1630674862000,4.66
1630674862015,5.21
1630674862031,5.19
1630674862046,4.82
1630674862062,4.33
1630674862078,3.96
1630674862093,3.81
1630674862109,3.89
1630674862125,4.12
1630674862140,4.4
1630674862156,4.62
1630674862171,4.71
1630674862187,4.64
1630674862203,4.38
1630674862218,3.98
1630674862234,3.46
1630674862250,2.83
1630674862265,2.15
1630674862281,1.46
1630674862296,0.83
1630674862312,0.35
1630674862328,0.11
1630674862343,0.12
1630674862359,0.28
1630674862375,0.4
1630674862390,0.23
1630674862406,-0.34
1630674862421,-1.28
1630674862437,-2.39
1630674862453,-3.41
1630674862468,-4.1
1630674862484,-4.4
1630674862500,-4.42
1630674862515,-4.34
1630674862531,-4.39
1630674862546,-4.71
1630674862562,-5.35
1630674862578,-6.28
1630674862593,-7.37
1630674862609,-8.49
1630674862625,-9.42
1630674862640,-9.93
1630674862656,-9.83
1630674862671,-9.01
1630674862687,-7.51
1630674862703,-5.51
1630674862718,-3.27
1630674862734,-1.11
1630674862750,0.72
1630674862765,2.08
1630674862781,2.94
1630674862796,3.43
1630674862812,3.75
1630674862828,4.1
1630674862843,4.56
1630674862859,5.08
1630674862875,5.48
1630674862890,5.56
1630674862906,5.22
1630674862921,4.48
1630674862937,3.57
1630674862953,2.74
1630674862968,2.24
1630674862984,2.16
1630674863000,2.4
1630674863015,2.74
1630674863031,2.9
1630674863046,2.75
1630674863062,2.26
1630674863078,1.61
1630674863093,1.01
1630674863109,0.66
1630674863125,0.56
1630674863140,0.62
1630674863156,0.59
1630674863171,0.29
1630674863187,-0.34
1630674863203,-1.19
1630674863218,-2.08
1630674863234,-2.85
1630674863250,-3.47
1630674863265,-4.02
1630674863281,-4.65
1630674863296,-5.49
1630674863312,-6.57
1630674863328,-7.76
1630674863343,-8.86
1630674863359,-9.66
1630674863375,-10.0
1630674863390,-9.8
1630674863406,-9.09
1630674863421,-7.95
1630674863437,-6.46
1630674863453,-4.72
1630674863468,-2.83
1630674863484,-0.87
1630674863500,1.03
1630674863515,2.75
1630674863531,4.15
1630674863546,5.14
1630674863562,5.67
1630674863578,5.81
1630674863593,5.69
1630674863609,5.49
1630674863625,5.34
1630674863640,5.34
1630674863656,5.54
1630674863671,5.86
1630674863687,6.21
1630674863703,6.47
1630674863718,6.57
1630674863734,6.49
1630674863750,6.26
1630674863765,5.91
1630674863781,5.48
1630674863796,4.95
1630674863812,4.33
1630674863828,3.64
1630674863843,2.88
1630674863859,2.1
1630674863875,1.32
1630674863890,0.58
1630674863906,-0.1
1630674863921,-0.75
1630674863937,-1.37
1630674863953,-1.99
1630674863968,-2.58
1630674863984,-3.12
1630674864000,-3.6
1630674864015,-4.01
1630674864031,-4.41
1630674864046,-4.89
1630674864062,-5.55
1630674864078,-6.39
1630674864093,-7.32
1630674864109,-8.13
1630674864125,-8.56
1630674864140,-8.46
1630674864156,-7.78
1630674864171,-6.62
1630674864187,-5.13
1630674864203,-3.43
1630674864218,-1.56
1630674864234,0.42
1630674864250,2.43
1630674864265,4.25
1630674864281,5.63
1630674864296,6.33
1630674864312,6.35
1630674864328,5.85
1630674864343,5.19
1630674864359,4.69
1630674864375,4.49
1630674864390,4.56
1630674864406,4.71
1630674864421,4.78
1630674864437,4.68
1630674864453,4.46
1630674864468,4.21
1630674864484,3.98
1630674864500,3.78
1630674864515,3.55
1630674864531,3.21
1630674864546,2.74
1630674864562,2.15
1630674864578,1.47
1630674864593,0.73
1630674864609,-0.08
1630674864625,-0.95
1630674864640,-1.81
1630674864656,-2.59
1630674864671,-3.2
1630674864687,-3.59
1630674864703,-3.83
1630674864718,-4.03
1630674864734,-4.31
1630674864750,-4.82
1630674864765,-5.62
1630674864781,-6.64
1630674864796,-7.77
1630674864812,-8.81
1630674864828,-9.56
1630674864843,-9.87
1630674864859,-9.61
1630674864875,-8.71
1630674864890,-7.18
1630674864906,-5.16
1630674864921,-2.84
1630674864937,-0.47
1630674864953,1.69
1630674864968,3.51
1630674864984,4.94
1630674865000,5.96
1630674865015,6.59
1630674865031,6.84
1630674865046,6.7
1630674865062,6.26
1630674865078,5.67
1630674865093,5.12
1630674865109,4.73
1630674865125,4.55
1630674865140,4.46
1630674865156,4.35
1630674865171,4.13
1630674865187,3.83
1630674865203,3.52
1630674865218,3.31
1630674865234,3.23
1630674865250,3.25
1630674865265,3.24
1630674865281,3.07
1630674865296,2.69
1630674865312,2.07
1630674865328,1.25
1630674865343,0.28
1630674865359,-0.77
1630674865375,-1.84
1630674865390,-2.83
1630674865406,-3.68
1630674865421,-4.3
1630674865437,-4.62
1630674865453,-4.7
1630674865468,-4.68
1630674865484,-4.77
1630674865500,-5.2
1630674865515,-6.06
1630674865531,-7.26
1630674865546,-8.55
1630674865562,-9.59
1630674865578,-10.08
1630674865593,-9.88
1630674865609,-8.96
1630674865625,-7.46
1630674865640,-5.57
1630674865656,-3.44
1630674865671,-1.25
1630674865687,0.86
1630674865703,2.72
1630674865718,4.17
1630674865734,5.13
1630674865750,5.61
1630674865765,5.68
1630674865781,5.43
1630674865796,4.99
1630674865812,4.45
1630674865828,3.89
1630674865843,3.4
1630674865859,3.08
1630674865875,2.96
1630674865890,3.03
1630674865906,3.18
1630674865921,3.27
1630674865937,3.23
1630674865953,3.02
1630674865968,2.72
1630674865984,2.46
1630674866000,2.3
1630674866015,2.23
1630674866031,2.11
1630674866046,1.78
1630674866062,1.13
1630674866078,0.2
1630674866093,-0.85
1630674866109,-1.82
1630674866125,-2.55
1630674866140,-3.06
1630674866156,-3.47
1630674866171,-3.93
1630674866187,-4.54
1630674866203,-5.29
1630674866218,-6.06
1630674866234,-6.75
1630674866250,-7.23
1630674866265,-7.42
1630674866281,-7.22
1630674866296,-6.55
1630674866312,-5.32
1630674866328,-3.57
1630674866343,-1.46
1630674866359,0.79
1630674866375,2.93
1630674866390,4.83
1630674866406,6.43
1630674866421,7.73
1630674866437,8.74
1630674866453,9.42
1630674866468,9.75
1630674866484,9.69
1630674866500,9.31
1630674866515,8.7
1630674866531,7.98
1630674866546,7.27
1630674866562,6.66
1630674866578,6.17
1630674866593,5.82
1630674866609,5.57
1630674866625,5.36
1630674866640,5.15
1630674866656,4.87
1630674866671,4.49
1630674866687,4.03
1630674866703,3.51
1630674866718,2.97
1630674866734,2.42
1630674866750,1.81
1630674866765,1.07
1630674866781,0.16
1630674866796,-0.95
1630674866812,-2.17
1630674866828,-3.32
1630674866843,-4.22
1630674866859,-4.76
1630674866875,-4.97
1630674866890,-5.06
1630674866906,-5.33
1630674866921,-6.0
1630674866937,-7.09
1630674866953,-8.41
1630674866968,-9.55
1630674866984,-10.16
1630674867000,-10.0
1630674867015,-9.1
1630674867031,-7.64
1630674867046,-5.88
1630674867062,-3.98
1630674867078,-2.02
1630674867093,-0.06
1630674867109,1.83
1630674867125,3.49
1630674867140,4.76
1630674867156,5.52
1630674867171,5.77
1630674867187,5.6
1630674867203,5.21
1630674867218,4.76
1630674867234,4.4
1630674867250,4.2
1630674867265,4.16
1630674867281,4.24
1630674867296,4.36
1630674867312,4.41
1630674867328,4.34
1630674867343,4.16
1630674867359,3.94
1630674867375,3.77
1630674867390,3.67
1630674867406,3.56
1630674867421,3.34
1630674867437,2.89
1630674867453,2.19
1630674867468,1.32
1630674867484,0.42
1630674867500,-0.4
1630674867515,-1.12
1630674867531,-1.79
1630674867546,-2.51
1630674867562,-3.34
1630674867578,-4.21
1630674867593,-5.03
1630674867609,-5.72
1630674867625,-6.27
1630674867640,-6.79
1630674867656,-7.44
1630674867671,-8.27
1630674867687,-9.19
1630674867703,-9.95
1630674867718,-10.23
1630674867734,-9.8
1630674867750,-8.61
1630674867765,-6.84
1630674867781,-4.81
1630674867796,-2.88
1630674867812,-1.33
1630674867828,-0.27
1630674867843,0.36
1630674867859,0.72
1630674867875,0.99
1630674867890,1.31
1630674867906,1.7
1630674867921,2.15
1630674867937,2.6
1630674867953,3.03
1630674867968,3.48
1630674867984,3.96
1630674868000,4.48
1630674868015,4.96
1630674868031,5.3
1630674868046,5.39
1630674868062,5.19
1630674868078,4.79
1630674868093,4.39
1630674868109,4.21
1630674868125,4.38
1630674868140,4.85
1630674868156,5.41
1630674868171,5.72
1630674868187,5.55
1630674868203,4.85
1630674868218,3.79
1630674868234,2.66
1630674868250,1.74
1630674868265,1.12
1630674868281,0.69
1630674868296,0.27
1630674868312,-0.27
1630674868328,-0.93
1630674868343,-1.59
1630674868359,-2.13
1630674868375,-2.57
1630674868390,-3.02
1630674868406,-3.67
1630674868421,-4.55
1630674868437,-5.52
1630674868453,-6.27
1630674868468,-6.51
1630674868484,-6.06
1630674868500,-4.95
1630674868515,-3.34
1630674868531,-1.48
1630674868546,0.45
1630674868562,2.32
1630674868578,4.06
1630674868593,5.54
1630674868609,6.64
1630674868625,7.21
1630674868640,7.22
1630674868656,6.76
1630674868671,6.06
1630674868687,5.42
1630674868703,5.03
1630674868718,4.97
1630674868734,5.17
1630674868750,5.48
1630674868765,5.72
1630674868781,5.79
1630674868796,5.67
1630674868812,5.4
1630674868828,5.06
1630674868843,4.7
1630674868859,4.3
1630674868875,3.84
1630674868890,3.27
1630674868906,2.56
1630674868921,1.73
1630674868937,0.85
1630674868953,-0.01
1630674868968,-0.75
1630674868984,-1.36
1630674869000,-1.86
1630674869015,-2.34
1630674869031,-2.9
1630674869046,-3.61
1630674869062,-4.44
1630674869078,-5.35
1630674869093,-6.24
1630674869109,-7.07
1630674869125,-7.85
1630674869140,-8.59
1630674869156,-9.32
1630674869171,-9.97
1630674869187,-10.38
1630674869203,-10.33
1630674869218,-9.62
1630674869234,-8.17
1630674869250,-6.07
1630674869265,-3.6
1630674869281,-1.13
1630674869296,1.01
1630674869312,2.6
1630674869328,3.64
1630674869343,4.28
1630674869359,4.77
1630674869375,5.28
1630674869390,5.87
1630674869406,6.46
1630674869421,6.87
1630674869437,6.96
1630674869453,6.74
1630674869468,6.3
1630674869484,5.8
1630674869500,5.36
1630674869515,5.05
1630674869531,4.86
1630674869546,4.73
1630674869562,4.62
1630674869578,4.55
1630674869593,4.51
1630674869609,4.5
1630674869625,4.48
1630674869640,4.38
1630674869656,4.13
1630674869671,3.67
1630674869687,2.99
1630674869703,2.12
1630674869718,1.19
1630674869734,0.31
1630674869750,-0.45
1630674869765,-1.08
1630674869781,-1.68
1630674869796,-2.36
1630674869812,-3.25
1630674869828,-4.33
1630674869843,-5.53
1630674869859,-6.68
1630674869875,-7.72
1630674869890,-8.64
1630674869906,-9.48
1630674869921,-10.31
1630674869937,-11.1
1630674869953,-11.75
1630674869968,-12.08
1630674869984,-11.96
1630674870000,-11.31
1630674870015,-10.16
1630674870031,-8.58
1630674870046,-6.68
1630674870062,-4.63
1630674870078,-2.57
1630674870093,-0.65
1630674870109,1.01
1630674870125,2.33
1630674870140,3.29
1630674870156,3.93
1630674870171,4.32
1630674870187,4.57
1630674870203,4.76
1630674870218,4.97
1630674870234,5.28
1630674870250,5.68
1630674870265,6.11
1630674870281,6.42
1630674870296,6.45
1630674870312,6.12
1630674870328,5.47
1630674870343,4.64
1630674870359,3.87
1630674870375,3.33
1630674870390,3.1
1630674870406,3.09
1630674870421,3.17
1630674870437,3.17
1630674870453,2.99
1630674870468,2.59
1630674870484,1.97
1630674870500,1.16
1630674870515,0.17
1630674870531,-0.93
1630674870546,-2.07
1630674870562,-3.16
1630674870578,-4.07
1630674870593,-4.75
1630674870609,-5.16
1630674870625,-5.38
1630674870640,-5.48
1630674870656,-5.58
1630674870671,-5.79
1630674870687,-6.18
1630674870703,-6.77
1630674870718,-7.49
1630674870734,-8.17
1630674870750,-8.63
1630674870765,-8.68
1630674870781,-8.18
1630674870796,-7.13
1630674870812,-5.6
1630674870828,-3.73
1630674870843,-1.63
1630674870859,0.57
1630674870875,2.78
1630674870890,4.87
1630674870906,6.71
1630674870921,8.16
1630674870937,9.17
1630674870953,9.77
1630674870968,10.08
1630674870984,10.18
1630674871000,10.17
1630674871015,10.05
1630674871031,9.76
1630674871046,9.3
1630674871062,8.68
1630674871078,7.99
1630674871093,7.32
1630674871109,6.77
1630674871125,6.32
1630674871140,5.94
1630674871156,5.55
1630674871171,5.1
1630674871187,4.58
1630674871203,3.99
1630674871218,3.36
1630674871234,2.72
1630674871250,2.06
1630674871265,1.36
1630674871281,0.62
1630674871296,-0.12
1630674871312,-0.83
1630674871328,-1.45
1630674871343,-1.97
1630674871359,-2.41
1630674871375,-2.84
1630674871390,-3.31
1630674871406,-3.89
1630674871421,-4.63
1630674871437,-5.51
1630674871453,-6.47
1630674871468,-7.4
1630674871484,-8.21
1630674871500,-8.85
1630674871515,-9.33
1630674871531,-9.7
1630674871546,-9.98
1630674871562,-10.08
1630674871578,-9.87
1630674871593,-9.2
1630674871609,-7.98
1630674871625,-6.24
1630674871640,-4.16
1630674871656,-1.95
1630674871671,0.19
1630674871687,2.13
1630674871703,3.8
1630674871718,5.17
1630674871734,6.22
1630674871750,6.87
1630674871765,7.05
1630674871781,6.73
1630674871796,5.97
1630674871812,4.98
1630674871828,4.04
1630674871843,3.43
1630674871859,3.33
1630674871875,3.73
1630674871890,4.4
1630674871906,5.05
1630674871921,5.36
1630674871937,5.21
1630674871953,4.57
1630674871968,3.62
1630674871984,2.57
1630674872000,1.63
1630674872015,0.97
1630674872031,0.66
1630674872046,0.65
1630674872062,0.81
1630674872078,0.93
1630674872093,0.84
1630674872109,0.43
1630674872125,-0.28
1630674872140,-1.23
1630674872156,-2.3
1630674872171,-3.43
1630674872187,-4.55
1630674872203,-5.62
1630674872218,-6.51
1630674872234,-7.14
1630674872250,-7.43
1630674872265,-7.46
1630674872281,-7.4
1630674872296,-7.41
1630674872312,-7.57
1630674872328,-7.77
1630674872343,-7.8
1630674872359,-7.48
1630674872375,-6.69
1630674872390,-5.49
1630674872406,-4.04
1630674872421,-2.53
1630674872437,-1.05
1630674872453,0.36
1630674872468,1.68
1630674872484,2.87
1630674872500,3.87
1630674872515,4.58
1630674872531,4.96
1630674872546,5.02
1630674872562,4.87
1630674872578,4.61
1630674872593,4.34
1630674872609,4.13
1630674872625,3.96
1630674872640,3.77
1630674872656,3.47
1630674872671,3.02
1630674872687,2.43
1630674872703,1.78
1630674872718,1.16
1630674872734,0.66
1630674872750,0.24
1630674872765,-0.15
1630674872781,-0.55
1630674872796,-0.97
1630674872812,-1.34
1630674872828,-1.58
1630674872843,-1.65
1630674872859,-1.63
1630674872875,-1.68
1630674872890,-1.96
1630674872906,-2.55
1630674872921,-3.4
1630674872937,-4.41
1630674872953,-5.42
1630674872968,-6.27
1630674872984,-6.89
1630674873000,-7.25
1630674873015,-7.41
1630674873031,-7.49
1630674873046,-7.61
1630674873062,-7.84
1630674873078,-8.12
1630674873093,-8.32
1630674873109,-8.22
1630674873125,-7.66
1630674873140,-6.54
1630674873156,-4.91
1630674873171,-2.93
1630674873187,-0.81
1630674873203,1.25
1630674873218,3.12
1630674873234,4.7
1630674873250,5.97
1630674873265,6.92
1630674873281,7.6
1630674873296,8.06
1630674873312,8.4
1630674873328,8.7
1630674873343,9.01
1630674873359,9.3
1630674873375,9.51
1630674873390,9.53
1630674873406,9.28
1630674873421,8.71
1630674873437,7.86
1630674873453,6.83
1630674873468,5.75
1630674873484,4.76
1630674873500,3.95
1630674873515,3.37
1630674873531,2.98
1630674873546,2.75
1630674873562,2.56
1630674873578,2.28
1630674873593,1.78
1630674873609,0.98
1630674873625,-0.12
1630674873640,-1.37
1630674873656,-2.53
1630674873671,-3.43
1630674873687,-3.94
1630674873703,-4.13
1630674873718,-4.18
1630674873734,-4.33
1630674873750,-4.72
1630674873765,-5.42
1630674873781,-6.38
1630674873796,-7.47
1630674873812,-8.61
1630674873828,-9.68
1630674873843,-10.56
1630674873859,-11.05
1630674873875,-10.96
1630674873890,-10.14
1630674873906,-8.56
1630674873921,-6.36
1630674873937,-3.82
1630674873953,-1.24
1630674873968,1.13
1630674873984,3.13
1630674874000,4.72
1630674874015,5.93
1630674874031,6.78
1630674874046,7.28
1630674874062,7.4
1630674874078,7.16
1630674874093,6.65
1630674874109,6.02
1630674874125,5.45
1630674874140,5.05
1630674874156,4.83
1630674874171,4.71
1630674874187,4.58
1630674874203,4.34
1630674874218,3.98
1630674874234,3.54
1630674874250,3.09
1630674874265,2.63
1630674874281,2.14
1630674874296,1.58
1630674874312,0.94
1630674874328,0.3
1630674874343,-0.23
1630674874359,-0.53
1630674874375,-0.65
1630674874390,-0.69
1630674874406,-0.87
1630674874421,-1.33
1630674874437,-2.13
1630674874453,-3.19
1630674874468,-4.33
1630674874484,-5.38
1630674874500,-6.24
1630674874515,-6.88
1630674874531,-7.35
1630674874546,-7.73
1630674874562,-8.1
1630674874578,-8.53
1630674874593,-9.04
1630674874609,-9.52
1630674874625,-9.76
1630674874640,-9.47
1630674874656,-8.46
1630674874671,-6.71
1630674874687,-4.44
1630674874703,-2.03
1630674874718,0.19
1630674874734,2.05
1630674874750,3.56
1630674874765,4.87
1630674874781,6.05
1630674874796,7.04
1630674874812,7.72
1630674874828,7.97
1630674874843,7.85
1630674874859,7.59
1630674874875,7.42
1630674874890,7.44
1630674874906,7.59
1630674874921,7.63
1630674874937,7.4
1630674874953,6.85
1630674874968,6.11
1630674874984,5.42
1630674875000,4.97
1630674875015,4.79
1630674875031,4.75
1630674875046,4.67
1630674875062,4.37
1630674875078,3.81
1630674875093,3.01
1630674875109,2.05
1630674875125,0.98
1630674875140,-0.18
1630674875156,-1.44
1630674875171,-2.73
1630674875187,-3.94
1630674875203,-4.92
1630674875218,-5.55
1630674875234,-5.84
1630674875250,-5.92
1630674875265,-6.02
1630674875281,-6.31
1630674875296,-6.89
1630674875312,-7.69
1630674875328,-8.58
1630674875343,-9.4
1630674875359,-10.0
1630674875375,-10.27
1630674875390,-10.11
1630674875406,-9.45
1630674875421,-8.27
1630674875437,-6.62
1630674875453,-4.66
1630674875468,-2.59
1630674875484,-0.62
1630674875500,1.09
1630674875515,2.47
1630674875531,3.49
1630674875546,4.17
1630674875562,4.52
1630674875578,4.63
1630674875593,4.6
1630674875609,4.58
1630674875625,4.64
1630674875640,4.76
1630674875656,4.82
1630674875671,4.67
1630674875687,4.22
1630674875703,3.47
1630674875718,2.58
1630674875734,1.69
1630674875750,1.01
1630674875765,0.61
1630674875781,0.52
1630674875796,0.65
1630674875812,0.93
1630674875828,1.26
1630674875843,1.55
1630674875859,1.78
1630674875875,1.93
1630674875890,2.0
1630674875906,1.95
1630674875921,1.64
1630674875937,0.98
1630674875953,-0.06
1630674875968,-1.4
1630674875984,-2.84
1630674876000,-4.16
1630674876015,-5.19
1630674876031,-5.88
1630674876046,-6.33
1630674876062,-6.68
1630674876078,-7.03
1630674876093,-7.43
1630674876109,-7.81
1630674876125,-8.07
1630674876140,-8.09
1630674876156,-7.79
1630674876171,-7.13
1630674876187,-6.07
1630674876203,-4.6
1630674876218,-2.75
1630674876234,-0.6
1630674876250,1.7
1630674876265,3.94
1630674876281,5.94
1630674876296,7.53
1630674876312,8.63
1630674876328,9.26
1630674876343,9.46
1630674876359,9.34
1630674876375,8.99
1630674876390,8.5
1630674876406,7.98
1630674876421,7.53
1630674876437,7.2
1630674876453,7.04
1630674876468,6.99
1630674876484,6.99
1630674876500,6.95
1630674876515,6.79
1630674876531,6.5
1630674876546,6.1
1630674876562,5.6
1630674876578,5.04
1630674876593,4.43
1630674876609,3.77
1630674876625,3.09
1630674876640,2.41
1630674876656,1.76
1630674876671,1.12
1630674876687,0.45
1630674876703,-0.31
1630674876718,-1.16
1630674876734,-2.06
1630674876750,-2.96
1630674876765,-3.81
1630674876781,-4.64
1630674876796,-5.52
1630674876812,-6.56
1630674876828,-7.79
1630674876843,-9.15
1630674876859,-10.48
1630674876875,-11.53
1630674876890,-12.05
1630674876906,-11.83
1630674876921,-10.83
1630674876937,-9.12
1630674876953,-6.92
1630674876968,-4.5
1630674876984,-2.13
1630674877000,-0.01
1630674877015,1.79
1630674877031,3.29
1630674877046,4.52
1630674877062,5.53
1630674877078,6.3
1630674877093,6.84
1630674877109,7.13
1630674877125,7.24
1630674877140,7.21
1630674877156,7.09
1630674877171,6.9
1630674877187,6.61
1630674877203,6.18
1630674877218,5.59
1630674877234,4.86
1630674877250,4.08
1630674877265,3.38
1630674877281,2.9
1630674877296,2.72
1630674877312,2.82
1630674877328,3.05
1630674877343,3.19
1630674877359,3.0
1630674877375,2.34
1630674877390,1.22
1630674877406,-0.19
1630674877421,-1.63
1630674877437,-2.86
1630674877453,-3.74
1630674877468,-4.28
1630674877484,-4.57
1630674877500,-4.8
1630674877515,-5.1
1630674877531,-5.61
1630674877546,-6.37
1630674877562,-7.39
1630674877578,-8.6
1630674877593,-9.87
1630674877609,-10.98
1630674877625,-11.65
1630674877640,-11.65
1630674877656,-10.82
1630674877671,-9.15
1630674877687,-6.8
1630674877703,-4.08
1630674877718,-1.33
1630674877734,1.15
1630674877750,3.23
1630674877765,4.88
1630674877781,6.2
1630674877796,7.25
1630674877812,8.03
1630674877828,8.49
1630674877843,8.65
1630674877859,8.57
1630674877875,8.39
1630674877890,8.27
1630674877906,8.26
1630674877921,8.29
1630674877937,8.22
1630674877953,7.89
1630674877968,7.26
1630674877984,6.36
1630674878000,5.29
1630674878015,4.11
1630674878031,2.9
1630674878046,1.69
1630674878062,0.6
1630674878078,-0.22
1630674878093,-0.68
1630674878109,-0.8
1630674878125,-0.71
1630674878140,-0.63
1630674878156,-0.76
1630674878171,-1.18
1630674878187,-1.84
1630674878203,-2.6
