timestamp,bvp
1630932113000,-2.24
1630932113015,-3.36
1630932113031,-4.31
1630932113046,-5.17
1630932113062,-6.14
1630932113078,-7.36
1630932113093,-8.86
1630932113109,-10.56
1630932113125,-12.25
1630932113140,-13.72
1630932113156,-14.88
1630932113171,-15.77
1630932113187,-16.58
1630932113203,-17.52
1630932113218,-18.76
1630932113234,-20.29
1630932113250,-21.88
1630932113265,-23.12
1630932113281,-23.53
1630932113296,-22.65
1630932113312,-20.24
1630932113328,-16.33
1630932113343,-11.19
1630932113359,-5.29
1630932113375,0.79
1630932113390,6.49
1630932113406,11.32
1630932113421,14.87
1630932113437,16.9
1630932113453,17.43
1630932113468,16.65
1630932113484,14.99
1630932113500,12.95
1630932113515,10.96
1630932113531,9.31
1630932113546,8.13
1630932113562,7.4
1630932113578,7.07
1630932113593,7.11
1630932113609,7.47
1630932113625,8.08
1630932113640,8.79
1630932113656,9.43
1630932113671,9.84
1630932113687,9.97
1630932113703,9.85
1630932113718,9.61
1630932113734,9.41
1630932113750,9.33
1630932113765,9.35
1630932113781,9.32
1630932113796,9.05
1630932113812,8.42
1630932113828,7.43
1630932113843,6.19
1630932113859,4.9
1630932113875,3.72
1630932113890,2.66
1630932113906,1.67
1630932113921,0.62
1630932113937,-0.53
1630932113953,-1.76
1630932113968,-3.02
1630932113984,-4.28
1630932114000,-5.56
1630932114015,-6.96
1630932114031,-8.53
1630932114046,-10.21
1630932114062,-11.88
1630932114078,-13.41
1630932114093,-14.7
1630932114109,-15.82
1630932114125,-16.82
1630932114140,-17.84
1630932114156,-18.94
1630932114171,-20.21
1630932114187,-21.66
1630932114203,-23.24
1630932114218,-24.72
1630932114234,-25.63
1630932114250,-25.44
1630932114265,-23.67
1630932114281,-20.17
1630932114296,-15.21
1630932114312,-9.42
1630932114328,-3.53
1630932114343,1.86
1630932114359,6.41
1630932114375,10.07
1630932114390,12.95
1630932114406,15.15
1630932114421,16.72
1630932114437,17.63
1630932114453,17.9
1630932114468,17.58
1630932114484,16.84
1630932114500,15.89
1630932114515,14.91
1630932114531,14.01
1630932114546,13.24
1630932114562,12.57
1630932114578,11.96
1630932114593,11.46
1630932114609,11.14
1630932114625,11.11
1630932114640,11.4
1630932114656,11.97
1630932114671,12.65
1630932114687,13.16
1630932114703,13.3
1630932114718,12.94
1630932114734,12.12
1630932114750,11.01
1630932114765,9.86
1630932114781,8.86
1630932114796,8.14
1630932114812,7.72
1630932114828,7.57
1630932114843,7.62
1630932114859,7.76
1630932114875,7.9
1630932114890,7.96
1630932114906,7.89
1630932114921,7.76
1630932114937,7.67
1630932114953,7.78
1630932114968,8.16
1630932114984,8.74
1630932115000,9.38
1630932115015,9.91
1630932115031,10.28
1630932115046,10.63
1630932115062,11.19
1630932115078,12.15
1630932115093,13.57
1630932115109,15.23
1630932115125,16.84
1630932115140,18.1
1630932115156,18.9
1630932115171,19.33
1630932115187,19.59
1630932115203,19.91
1630932115218,20.44
1630932115234,21.34
1630932115250,22.82
1630932115265,25.14
1630932115281,28.51
1630932115296,32.88
1630932115312,37.69
1630932115328,41.94
1630932115343,44.36
1630932115359,43.87
1630932115375,39.9
1630932115390,32.56
1630932115406,22.54
1630932115421,10.77
1630932115437,-1.78
1630932115453,-14.25
1630932115468,-25.91
1630932115484,-36.12
1630932115500,-44.39
1630932115515,-50.48
1630932115531,-54.53
1630932115546,-57.02
1630932115562,-58.59
1630932115578,-59.76
1630932115593,-60.76
1630932115609,-61.42
1630932115625,-61.39
1630932115640,-60.31
1630932115656,-58.15
1630932115671,-55.23
1630932115687,-52.18
1630932115703,-49.72
1630932115718,-48.3
1630932115734,-47.95
1630932115750,-48.18
1630932115765,-48.19
1630932115781,-47.16
1630932115796,-44.62
1630932115812,-40.58
1630932115828,-35.57
1630932115843,-30.34
1630932115859,-25.66
1630932115875,-22.17
1630932115890,-20.33
1630932115906,-20.44
1630932115921,-22.58
1630932115937,-26.46
1630932115953,-31.27
1630932115968,-35.69
1630932115984,-38.16
1630932116000,-37.42
1630932116015,-32.94
1630932116031,-25.21
1630932116046,-15.56
1630932116062,-5.74
1630932116078,2.65
1630932116093,8.65
1630932116109,12.14
1630932116125,13.75
1630932116140,14.47
1630932116156,15.24
1630932116171,16.62
1630932116187,18.52
1630932116203,20.26
1630932116218,20.79
1630932116234,18.98
1630932116250,14.07
1630932116265,6.03
1630932116281,-4.15
1630932116296,-14.44
1630932116312,-22.05
1630932116328,-24.11
1630932116343,-18.64
1630932116359,-5.38
1630932116375,13.78
1630932116390,35.14
1630932116406,54.17
1630932116421,66.77
1630932116437,70.33
1630932116453,64.26
1630932116468,50.03
1630932116484,30.55
1630932116500,9.45
1630932116515,-9.75
1630932116531,-24.34
1630932116546,-32.92
1630932116562,-35.44
1630932116578,-32.87
1630932116593,-26.61
1630932116609,-18.1
1630932116625,-8.74
1630932116640,-0.1
1630932116656,6.02
1630932116671,8.02
1630932116687,5.15
1630932116703,-1.75
1630932116718,-10.22
1630932116734,-16.96
1630932116750,-19.16
1630932116765,-15.65
1630932116781,-7.09
1630932116796,4.71
1630932116812,17.98
1630932116828,31.86
1630932116843,46.4
1630932116859,61.89
1630932116875,77.87
1630932116890,92.74
1630932116906,104.12
1630932116921,109.71
1630932116937,108.23
1630932116953,99.93
1630932116968,86.4
1630932116984,70.03
1630932117000,53.17
1630932117015,37.61
1630932117031,24.38
1630932117046,13.88
1630932117062,6.09
1630932117078,0.82
1630932117093,-2.34
1630932117109,-4.03
1630932117125,-5.18
1630932117140,-6.86
1630932117156,-9.95
1630932117171,-14.8
1630932117187,-21.03
1630932117203,-27.63
1630932117218,-33.33
1630932117234,-37.18
1630932117250,-38.84
1630932117265,-38.6
1630932117281,-37.14
1630932117296,-35.11
1630932117312,-32.86
1630932117328,-30.41
1630932117343,-27.63
1630932117359,-24.42
1630932117375,-20.82
1630932117390,-17.0
1630932117406,-13.13
1630932117421,-9.33
1630932117437,-5.7
1630932117453,-2.33
1630932117468,0.61
1630932117484,2.97
1630932117500,4.68
1630932117515,5.86
1630932117531,6.74
1630932117546,7.62
1630932117562,8.73
1630932117578,10.12
1630932117593,11.67
1630932117609,13.15
1630932117625,14.39
1630932117640,15.32
1630932117656,16.05
1630932117671,16.74
1630932117687,17.45
1630932117703,17.97
1630932117718,17.92
1630932117734,16.78
1630932117750,14.21
1630932117765,10.18
1630932117781,5.04
1630932117796,-0.69
1630932117812,-6.44
1630932117828,-11.81
1630932117843,-16.65
1630932117859,-21.04
1630932117875,-25.14
1630932117890,-29.17
1630932117906,-33.26
1630932117921,-37.38
1630932117937,-41.41
1630932117953,-45.11
1630932117968,-48.31
1630932117984,-50.93
1630932118000,-53.02
1630932118015,-54.56
1630932118031,-55.33
1630932118046,-54.82
1630932118062,-52.37
1630932118078,-47.55
1630932118093,-40.32
1630932118109,-31.18
1630932118125,-21.01
1630932118140,-10.84
1630932118156,-1.7
1630932118171,5.42
1630932118187,9.67
1630932118203,10.46
1630932118218,7.72
1630932118234,2.15
1630932118250,-4.77
1630932118265,-11.11
1630932118281,-15.09
1630932118296,-15.61
1630932118312,-12.52
1630932118328,-6.47
1630932118343,1.48
1630932118359,10.19
1630932118375,18.66
1630932118390,26.04
1630932118406,31.63
1630932118421,34.96
1630932118437,35.94
1630932118453,34.97
1630932118468,32.82
1630932118484,30.34
1630932118500,28.14
1630932118515,26.4
1630932118531,24.9
1630932118546,23.33
1630932118562,21.53
1630932118578,19.59
1630932118593,17.82
1630932118609,16.45
1630932118625,15.5
1630932118640,14.7
1630932118656,13.65
1630932118671,11.94
1630932118687,9.4
1630932118703,6.08
1630932118718,2.2
1630932118734,-1.97
1630932118750,-6.22
1630932118765,-10.37
1630932118781,-14.31
1630932118796,-17.9
1630932118812,-21.0
1630932118828,-23.44
1630932118843,-25.08
1630932118859,-25.85
1630932118875,-25.79
1630932118890,-24.98
1630932118906,-23.46
1630932118921,-21.25
1630932118937,-18.28
1630932118953,-14.57
1630932118968,-10.32
1630932118984,-5.89
1630932119000,-1.76
1630932119015,1.65
1630932119031,4.09
1630932119046,5.6
1630932119062,6.39
1630932119078,6.74
1630932119093,6.86
1630932119109,6.85
1630932119125,6.73
1630932119140,6.5
1630932119156,6.2
1630932119171,5.89
1630932119187,5.65
1630932119203,5.49
1630932119218,5.41
1630932119234,5.36
1630932119250,5.32
1630932119265,5.33
1630932119281,5.42
1630932119296,5.65
1630932119312,6.03
1630932119328,6.53
1630932119343,7.06
1630932119359,7.51
1630932119375,7.76
1630932119390,7.72
1630932119406,7.34
1630932119421,6.64
1630932119437,5.65
1630932119453,4.48
1630932119468,3.23
1630932119484,2.01
1630932119500,0.92
1630932119515,-0.0
1630932119531,-0.79
1630932119546,-1.5
1630932119562,-2.25
1630932119578,-3.1
1630932119593,-4.04
1630932119609,-5.02
1630932119625,-6.01
1630932119640,-7.05
1630932119656,-8.27
1630932119671,-9.83
1630932119687,-11.8
1630932119703,-14.09
1630932119718,-16.4
1630932119734,-18.31
1630932119750,-19.4
1630932119765,-19.36
1630932119781,-18.09
1630932119796,-15.65
1630932119812,-12.3
1630932119828,-8.4
1630932119843,-4.34
1630932119859,-0.45
1630932119875,3.01
1630932119890,5.93
1630932119906,8.33
1630932119921,10.27
1630932119937,11.82
1630932119953,12.96
1630932119968,13.62
1630932119984,13.78
1630932120000,13.44
1630932120015,12.68
1630932120031,11.62
1630932120046,10.37
1630932120062,9.0
1630932120078,7.61
1630932120093,6.33
1630932120109,5.3
1630932120125,4.68
1630932120140,4.56
1630932120156,4.91
1630932120171,5.64
1630932120187,6.56
1630932120203,7.53
1630932120218,8.41
1630932120234,9.13
1630932120250,9.7
1630932120265,10.09
1630932120281,10.38
1630932120296,10.59
1630932120312,10.76
1630932120328,10.82
1630932120343,10.65
1630932120359,10.01
1630932120375,8.72
1630932120390,6.71
1630932120406,4.12
1630932120421,1.27
1630932120437,-1.42
1630932120453,-3.61
1630932120468,-5.19
1630932120484,-6.25
1630932120500,-7.07
1630932120515,-7.96
1630932120531,-9.22
1630932120546,-10.97
1630932120562,-13.27
1630932120578,-16.0
1630932120593,-18.95
1630932120609,-21.82
1630932120625,-24.2
1630932120640,-25.65
1630932120656,-25.77
1630932120671,-24.34
1630932120687,-21.35
1630932120703,-17.07
1630932120718,-11.95
1630932120734,-6.54
1630932120750,-1.37
1630932120765,3.1
1630932120781,6.56
1630932120796,8.77
1630932120812,9.55
1630932120828,8.84
1630932120843,6.73
1630932120859,3.53
1630932120875,-0.1
1630932120890,-3.31
1630932120906,-5.27
1630932120921,-5.52
1630932120937,-4.17
1630932120953,-1.93
1630932120968,0.22
1630932120984,1.52
1630932121000,1.78
1630932121015,1.47
1630932121031,1.43
1630932121046,2.43
1630932121062,4.81
1630932121078,8.38
1630932121093,12.63
1630932121109,17.0
1630932121125,21.15
1630932121140,24.93
1630932121156,28.27
1630932121171,31.08
1630932121187,33.17
1630932121203,34.38
1630932121218,34.69
1630932121234,34.25
1630932121250,33.36
1630932121265,32.27
1630932121281,31.09
1630932121296,29.81
1630932121312,28.26
1630932121328,26.32
1630932121343,23.94
1630932121359,21.16
1630932121375,18.12
1630932121390,15.0
1630932121406,11.89
1630932121421,8.83
1630932121437,5.78
1630932121453,2.68
1630932121468,-0.53
1630932121484,-3.86
1630932121500,-7.21
1630932121515,-10.45
1630932121531,-13.42
1630932121546,-15.99
1630932121562,-18.07
1630932121578,-19.65
1630932121593,-20.77
1630932121609,-21.54
1630932121625,-22.09
1630932121640,-22.58
1630932121656,-23.11
1630932121671,-23.71
1630932121687,-24.25
1630932121703,-24.44
1630932121718,-23.93
1630932121734,-22.39
1630932121750,-19.77
1630932121765,-16.41
1630932121781,-12.92
1630932121796,-10.09
1630932121812,-8.49
1630932121828,-8.27
1630932121843,-9.13
1630932121859,-10.37
1630932121875,-11.22
1630932121890,-11.05
1630932121906,-9.57
1630932121921,-6.89
1630932121937,-3.37
1630932121953,0.46
1630932121968,4.02
1630932121984,6.79
1630932122000,8.4
1630932122015,8.73
1630932122031,7.87
1630932122046,6.14
1630932122062,3.99
1630932122078,1.86
1630932122093,0.14
1630932122109,-0.93
1630932122125,-1.28
1630932122140,-1.0
1630932122156,-0.38
1630932122171,0.23
1630932122187,0.48
1630932122203,0.17
1630932122218,-0.66
1630932122234,-1.78
1630932122250,-2.81
1630932122265,-3.41
1630932122281,-3.3
1630932122296,-2.35
1630932122312,-0.47
1630932122328,2.35
1630932122343,6.1
1630932122359,10.69
1630932122375,15.87
1630932122390,21.29
1630932122406,26.5
1630932122421,31.03
1630932122437,34.47
1630932122453,36.52
1630932122468,37.05
1630932122484,36.17
1630932122500,34.28
1630932122515,31.98
1630932122531,30.04
1630932122546,29.12
1630932122562,29.55
1630932122578,31.26
1630932122593,33.8
1630932122609,36.53
1630932122625,38.94
1630932122640,40.87
1630932122656,42.57
1630932122671,44.58
1630932122687,47.43
1630932122703,51.25
1630932122718,55.63
1630932122734,59.68
1630932122750,62.41
1630932122765,63.22
1630932122781,62.37
1630932122796,60.79
1630932122812,59.64
1630932122828,59.48
1630932122843,59.79
1630932122859,58.85
1630932122875,54.37
1630932122890,44.26
1630932122906,27.38
1630932122921,3.95
1630932122937,-24.63
1630932122953,-56.0
1630932122968,-87.17
1630932122984,-114.91
1630932123000,-136.12
1630932123015,-148.52
1630932123031,-151.24
1630932123046,-145.18
1630932123062,-132.69
1630932123078,-116.82
1630932123093,-100.33
1630932123109,-85.03
1630932123125,-71.7
1630932123140,-60.69
1630932123156,-52.7
1630932123171,-49.34
1630932123187,-52.97
1630932123203,-65.68
1630932123218,-87.81
1630932123234,-116.75
1630932123250,-146.75
1630932123265,-170.16
1630932123281,-179.85
1630932123296,-171.85
1630932123312,-147.02
1630932123328,-110.78
1630932123343,-71.11
1630932123359,-35.51
1630932123375,-8.46
1630932123390,9.44
1630932123406,20.52
1630932123421,28.02
1630932123437,34.28
1630932123453,39.97
1630932123468,44.61
1630932123484,47.65
1630932123500,49.33
1630932123515,50.68
1630932123531,52.8
1630932123546,55.98
1630932123562,59.31
1630932123578,61.05
1630932123593,59.61
1630932123609,54.49
1630932123625,46.71
1630932123640,38.37
1630932123656,31.73
1630932123671,28.16
1630932123687,27.6
1630932123703,28.7
1630932123718,29.49
1630932123734,28.23
1630932123750,24.1
1630932123765,17.45
1630932123781,9.63
1630932123796,2.4
1630932123812,-2.68
1630932123828,-4.73
1630932123843,-3.79
1630932123859,-0.64
1630932123875,3.58
1630932123890,7.78
1630932123906,11.35
1630932123921,14.18
1630932123937,16.53
1630932123953,18.72
1630932123968,20.86
1630932123984,22.85
1630932124000,24.4
1630932124015,25.31
1630932124031,25.54
1630932124046,25.27
1630932124062,24.74
1630932124078,24.17
1630932124093,23.64
1630932124109,23.09
1630932124125,22.43
1630932124140,21.56
1630932124156,20.49
1630932124171,19.26
1630932124187,18.01
1630932124203,16.85
1630932124218,15.84
1630932124234,14.96
1630932124250,14.1
1630932124265,13.13
1630932124281,11.92
1630932124296,10.44
1630932124312,8.69
1630932124328,6.76
1630932124343,4.74
1630932124359,2.75
1630932124375,0.93
1630932124390,-0.58
1630932124406,-1.7
1630932124421,-2.5
1630932124437,-3.16
1630932124453,-3.95
1630932124468,-5.08
1630932124484,-6.63
1630932124500,-8.53
1630932124515,-10.61
1630932124531,-12.71
1630932124546,-14.68
1630932124562,-16.41
1630932124578,-17.68
1630932124593,-18.26
1630932124609,-17.86
1630932124625,-16.34
1630932124640,-13.76
1630932124656,-10.36
1630932124671,-6.52
1630932124687,-2.64
1630932124703,0.94
1630932124718,4.02
1630932124734,6.49
1630932124750,8.38
1630932124765,9.8
1630932124781,10.89
1630932124796,11.74
1630932124812,12.28
1630932124828,12.38
1630932124843,11.9
1630932124859,10.87
1630932124875,9.48
1630932124890,8.08
1630932124906,6.98
1630932124921,6.29
1630932124937,5.94
1630932124953,5.71
1630932124968,5.41
1630932124984,5.0
1630932125000,4.54
1630932125015,4.1
1630932125031,3.68
1630932125046,3.15
1630932125062,2.38
1630932125078,1.27
1630932125093,-0.16
1630932125109,-1.78
1630932125125,-3.38
1630932125140,-4.76
1630932125156,-5.77
1630932125171,-6.36
1630932125187,-6.58
1630932125203,-6.59
1630932125218,-6.64
1630932125234,-6.95
1630932125250,-7.72
1630932125265,-9.0
1630932125281,-10.73
1630932125296,-12.78
1630932125312,-14.92
1630932125328,-16.86
1630932125343,-18.32
1630932125359,-19.01
1630932125375,-18.76
1630932125390,-17.51
1630932125406,-15.34
1630932125421,-12.41
1630932125437,-8.95
1630932125453,-5.18
1630932125468,-1.36
1630932125484,2.27
1630932125500,5.44
1630932125515,7.91
1630932125531,9.49
1630932125546,10.15
1630932125562,10.07
1630932125578,9.58
1630932125593,9.12
1630932125609,9.09
1630932125625,9.7
1630932125640,10.85
1630932125656,12.21
1630932125671,13.31
1630932125687,13.81
1630932125703,13.62
1630932125718,12.9
1630932125734,11.96
1630932125750,11.05
1630932125765,10.25
1630932125781,9.47
1630932125796,8.59
1630932125812,7.55
1630932125828,6.4
1630932125843,5.24
1630932125859,4.15
1630932125875,3.11
1630932125890,1.98
1630932125906,0.7
1630932125921,-0.75
1630932125937,-2.23
1630932125953,-3.56
1630932125968,-4.59
1630932125984,-5.3
1630932126000,-5.77
1630932126015,-6.22
1630932126031,-6.91
1630932126046,-8.05
1630932126062,-9.69
1630932126078,-11.67
1630932126093,-13.57
1630932126109,-14.85
1630932126125,-14.99
1630932126140,-13.7
1630932126156,-11.03
1630932126171,-7.35
1630932126187,-3.22
1630932126203,0.87
1630932126218,4.5
1630932126234,7.46
1630932126250,9.64
1630932126265,10.99
1630932126281,11.56
1630932126296,11.46
1630932126312,10.91
1630932126328,10.13
1630932126343,9.3
1630932126359,8.5
1630932126375,7.73
1630932126390,6.97
1630932126406,6.25
1630932126421,5.65
1630932126437,5.25
1630932126453,5.06
1630932126468,5.02
1630932126484,5.02
1630932126500,4.94
1630932126515,4.76
1630932126531,4.52
1630932126546,4.27
1630932126562,4.05
1630932126578,3.85
1630932126593,3.55
1630932126609,2.99
1630932126625,2.04
1630932126640,0.66
1630932126656,-1.06
1630932126671,-2.87
1630932126687,-4.48
1630932126703,-5.7
1630932126718,-6.53
1630932126734,-7.17
1630932126750,-7.92
1630932126765,-8.98
1630932126781,-10.32
1630932126796,-11.69
1630932126812,-12.72
1630932126828,-13.1
1630932126843,-12.69
1630932126859,-11.5
1630932126875,-9.67
1630932126890,-7.28
1630932126906,-4.39
1630932126921,-1.04
1630932126937,2.56
1630932126953,6.08
1630932126968,9.07
1630932126984,11.17
1630932127000,12.26
1630932127015,12.5
1630932127031,12.23
1630932127046,11.78
1630932127062,11.35
1630932127078,10.92
1630932127093,10.36
1630932127109,9.57
1630932127125,8.58
1630932127140,7.53
1630932127156,6.58
1630932127171,5.85
1630932127187,5.33
1630932127203,4.91
1630932127218,4.51
1630932127234,4.1
1630932127250,3.71
1630932127265,3.39
1630932127281,3.21
1630932127296,3.13
1630932127312,3.04
1630932127328,2.77
1630932127343,2.19
1630932127359,1.22
1630932127375,-0.07
1630932127390,-1.5
1630932127406,-2.87
1630932127421,-3.99
1630932127437,-4.82
1630932127453,-5.46
1630932127468,-6.07
1630932127484,-6.85
1630932127500,-7.89
1630932127515,-9.16
1630932127531,-10.59
1630932127546,-12.07
1630932127562,-13.51
1630932127578,-14.79
1630932127593,-15.7
1630932127609,-15.97
1630932127625,-15.34
1630932127640,-13.64
1630932127656,-10.91
1630932127671,-7.42
1630932127687,-3.6
1630932127703,0.15
1630932127718,3.49
1630932127734,6.28
1630932127750,8.47
1630932127765,10.05
1630932127781,11.05
1630932127796,11.5
1630932127812,11.46
1630932127828,11.04
1630932127843,10.38
1630932127859,9.58
1630932127875,8.74
1630932127890,7.88
1630932127906,7.06
1630932127921,6.32
1630932127937,5.72
1630932127953,5.27
1630932127968,4.97
1630932127984,4.79
1630932128000,4.68
1630932128015,4.63
1630932128031,4.62
1630932128046,4.63
1630932128062,4.6
1630932128078,4.42
1630932128093,4.01
1630932128109,3.34
1630932128125,2.49
1630932128140,1.58
1630932128156,0.73
1630932128171,0.0
1630932128187,-0.59
1630932128203,-1.1
1630932128218,-1.61
1630932128234,-2.19
1630932128250,-2.91
1630932128265,-3.87
1630932128281,-5.13
1630932128296,-6.76
1630932128312,-8.71
1630932128328,-10.85
1630932128343,-12.91
1630932128359,-14.59
1630932128375,-15.57
1630932128390,-15.63
1630932128406,-14.7
1630932128421,-12.87
1630932128437,-10.36
1630932128453,-7.5
1630932128468,-4.58
1630932128484,-1.87
1630932128500,0.48
1630932128515,2.4
1630932128531,3.91
1630932128546,5.04
1630932128562,5.85
1630932128578,6.39
1630932128593,6.7
1630932128609,6.78
1630932128625,6.66
1630932128640,6.34
1630932128656,5.83
1630932128671,5.16
1630932128687,4.38
1630932128703,3.57
1630932128718,2.84
1630932128734,2.31
1630932128750,2.04
1630932128765,2.03
1630932128781,2.22
1630932128796,2.48
1630932128812,2.69
1630932128828,2.72
1630932128843,2.5
1630932128859,1.97
1630932128875,1.16
1630932128890,0.15
1630932128906,-0.95
1630932128921,-1.99
1630932128937,-2.85
1630932128953,-3.47
1630932128968,-3.87
1630932128984,-4.14
1630932129000,-4.43
1630932129015,-4.83
1630932129031,-5.39
1630932129046,-6.08
1630932129062,-6.86
1630932129078,-7.69
1630932129093,-8.58
1630932129109,-9.59
1630932129125,-10.74
1630932129140,-12.04
1630932129156,-13.36
1630932129171,-14.47
1630932129187,-15.08
1630932129203,-14.92
1630932129218,-13.81
1630932129234,-11.77
1630932129250,-8.99
1630932129265,-5.77
1630932129281,-2.49
1630932129296,0.56
1630932129312,3.19
1630932129328,5.33
1630932129343,7.03
1630932129359,8.32
1630932129375,9.23
1630932129390,9.72
1630932129406,9.77
1630932129421,9.4
1630932129437,8.72
1630932129453,7.88
1630932129468,7.0
1630932129484,6.19
1630932129500,5.44
1630932129515,4.74
1630932129531,4.06
1630932129546,3.42
1630932129562,2.85
1630932129578,2.4
1630932129593,2.06
1630932129609,1.81
1630932129625,1.6
1630932129640,1.38
1630932129656,1.11
1630932129671,0.79
1630932129687,0.36
1630932129703,-0.18
1630932129718,-0.88
1630932129734,-1.69
1630932129750,-2.57
1630932129765,-3.41
1630932129781,-4.09
1630932129796,-4.54
1630932129812,-4.75
1630932129828,-4.8
1630932129843,-4.8
1630932129859,-4.9
1630932129875,-5.21
1630932129890,-5.78
1630932129906,-6.57
1630932129921,-7.49
1630932129937,-8.36
1630932129953,-8.95
1630932129968,-9.01
1630932129984,-8.34
1630932130000,-6.86
1630932130015,-4.67
1630932130031,-1.98
1630932130046,0.91
1630932130062,3.75
1630932130078,6.35
1630932130093,8.57
1630932130109,10.34
1630932130125,11.55
1630932130140,12.15
1630932130156,12.12
1630932130171,11.54
1630932130187,10.57
1630932130203,9.42
1630932130218,8.23
1630932130234,7.06
1630932130250,5.93
1630932130265,4.78
1630932130281,3.61
1630932130296,2.44
1630932130312,1.36
1630932130328,0.45
1630932130343,-0.18
1630932130359,-0.52
1630932130375,-0.57
1630932130390,-0.45
1630932130406,-0.27
1630932130421,-0.17
1630932130437,-0.23
1630932130453,-0.46
1630932130468,-0.86
1630932130484,-1.4
1630932130500,-2.05
1630932130515,-2.78
1630932130531,-3.56
1630932130546,-4.36
1630932130562,-5.14
1630932130578,-5.91
1630932130593,-6.68
1630932130609,-7.53
1630932130625,-8.53
1630932130640,-9.76
1630932130656,-11.23
1630932130671,-12.91
1630932130687,-14.62
1630932130703,-16.11
1630932130718,-17.1
1630932130734,-17.29
1630932130750,-16.49
1630932130765,-14.63
1630932130781,-11.78
1630932130796,-8.17
1630932130812,-4.13
1630932130828,-0.08
1630932130843,3.58
1630932130859,6.54
1630932130875,8.63
1630932130890,9.9
1630932130906,10.52
1630932130921,10.75
1630932130937,10.76
1630932130953,10.65
1630932130968,10.43
1630932130984,10.09
1630932131000,9.63
1630932131015,9.11
1630932131031,8.54
1630932131046,7.94
1630932131062,7.3
1630932131078,6.63
1630932131093,5.98
1630932131109,5.41
1630932131125,5.0
1630932131140,4.78
1630932131156,4.69
1630932131171,4.59
1630932131187,4.37
1630932131203,3.94
1630932131218,3.32
1630932131234,2.6
1630932131250,1.86
1630932131265,1.2
1630932131281,0.61
1630932131296,0.06
1630932131312,-0.56
1630932131328,-1.29
1630932131343,-2.15
1630932131359,-3.12
1630932131375,-4.15
1630932131390,-5.18
1630932131406,-6.18
1630932131421,-7.14
1630932131437,-8.07
1630932131453,-9.09
1630932131468,-10.3
1630932131484,-11.82
1630932131500,-13.63
1630932131515,-15.54
1630932131531,-17.2
1630932131546,-18.18
1630932131562,-18.08
1630932131578,-16.7
1630932131593,-14.08
1630932131609,-10.52
1630932131625,-6.48
1630932131640,-2.5
1630932131656,0.95
1630932131671,3.53
1630932131687,5.22
1630932131703,6.24
1630932131718,6.98
1630932131734,7.8
1630932131750,8.85
1630932131765,9.97
1630932131781,10.82
1630932131796,11.01
1630932131812,10.39
1630932131828,9.06
1630932131843,7.36
1630932131859,5.69
1630932131875,4.33
1630932131890,3.42
1630932131906,3.01
1630932131921,3.1
1630932131937,3.7
1630932131953,4.76
1630932131968,6.1
1630932131984,7.39
1630932132000,8.22
1630932132015,8.31
1630932132031,7.62
1630932132046,6.42
1630932132062,5.14
1630932132078,4.16
1630932132093,3.66
1630932132109,3.51
1630932132125,3.45
1630932132140,3.17
1630932132156,2.5
1630932132171,1.45
1630932132187,0.15
1630932132203,-1.28
1630932132218,-2.74
1630932132234,-4.18
1630932132250,-5.58
1630932132265,-6.91
1630932132281,-8.09
1630932132296,-9.12
1630932132312,-10.03
1630932132328,-10.92
1630932132343,-11.96
1630932132359,-13.26
1630932132375,-14.84
1630932132390,-16.56
1630932132406,-18.09
1630932132421,-19.03
1630932132437,-18.99
1630932132453,-17.75
1630932132468,-15.33
1630932132484,-11.97
1630932132500,-8.03
1630932132515,-3.93
1630932132531,0.01
1630932132546,3.56
1630932132562,6.55
1630932132578,8.86
1630932132593,10.33
1630932132609,10.9
1630932132625,10.6
1630932132640,9.67
1630932132656,8.47
1630932132671,7.37
1630932132687,6.68
1630932132703,6.49
1630932132718,6.68
1630932132734,7.02
1630932132750,7.28
1630932132765,7.35
1630932132781,7.23
1630932132796,7.06
1630932132812,6.99
1630932132828,7.08
1630932132843,7.25
1630932132859,7.32
1630932132875,6.99
1630932132890,6.04
1630932132906,4.39
1630932132921,2.18
1630932132937,-0.25
1630932132953,-2.44
1630932132968,-4.07
1630932132984,-5.02
1630932133000,-5.48
1630932133015,-5.82
1630932133031,-6.5
1630932133046,-7.87
1630932133062,-10.07
1630932133078,-12.91
1630932133093,-15.88
1630932133109,-18.16
1630932133125,-18.83
1630932133140,-17.15
1630932133156,-12.92
1630932133171,-6.6
1630932133187,0.7
1630932133203,7.58
1630932133218,12.74
1630932133234,15.47
1630932133250,15.78
1630932133265,14.31
1630932133281,12.0
1630932133296,9.74
1630932133312,8.05
1630932133328,7.09
1630932133343,6.7
1630932133359,6.65
1630932133375,6.8
1630932133390,7.17
1630932133406,7.8
1630932133421,8.67
1630932133437,9.59
1630932133453,10.17
1630932133468,10.1
1630932133484,9.21
1630932133500,7.64
1630932133515,5.78
1630932133531,4.02
1630932133546,2.62
1630932133562,1.64
1630932133578,0.94
1630932133593,0.38
1630932133609,-0.08
1630932133625,-0.38
1630932133640,-0.43
1630932133656,-0.19
1630932133671,0.25
1630932133687,0.73
1630932133703,1.05
1630932133718,1.03
1630932133734,0.61
1630932133750,-0.18
1630932133765,-1.24
1630932133781,-2.41
1630932133796,-3.52
1630932133812,-4.47
1630932133828,-5.24
1630932133843,-5.9
1630932133859,-6.58
1630932133875,-7.44
1630932133890,-8.5
1630932133906,-9.73
1630932133921,-11.05
1630932133937,-12.39
1630932133953,-13.75
1630932133968,-15.19
1630932133984,-16.73
1630932134000,-18.27
1630932134015,-19.53
1630932134031,-20.11
1630932134046,-19.57
1630932134062,-17.65
1630932134078,-14.37
1630932134093,-10.05
1630932134109,-5.16
1630932134125,-0.19
1630932134140,4.51
1630932134156,8.79
1630932134171,12.62
1630932134187,15.97
1630932134203,18.68
1630932134218,20.54
1630932134234,21.33
1630932134250,21.01
1630932134265,19.83
1630932134281,18.25
1630932134296,16.83
1630932134312,16.02
1630932134328,15.97
1630932134343,16.61
1630932134359,17.7
1630932134375,19.04
1630932134390,20.59
1630932134406,22.41
1630932134421,24.53
1630932134437,26.89
1630932134453,29.26
1630932134468,31.35
1630932134484,32.9
1630932134500,33.78
1630932134515,33.95
1630932134531,33.36
1630932134546,31.98
1630932134562,29.83
1630932134578,27.18
1630932134593,24.62
1630932134609,22.88
1630932134625,22.44
1630932134640,23.12
1630932134656,23.71
1630932134671,22.24
1630932134687,16.51
1630932134703,4.99
1630932134718,-12.46
1630932134734,-34.41
1630932134750,-58.14
1630932134765,-80.48
1630932134781,-98.77
1630932134796,-111.44
1630932134812,-118.2
1630932134828,-119.69
1630932134843,-116.92
1630932134859,-110.81
1630932134875,-102.02
1630932134890,-91.09
1630932134906,-78.63
1630932134921,-65.32
1630932134937,-51.72
1630932134953,-38.01
1630932134968,-23.86
1630932134984,-8.7
1630932135000,7.85
1630932135015,25.48
1630932135031,43.12
1630932135046,59.25
1630932135062,72.41
1630932135078,81.59
1630932135093,86.35
1630932135109,86.6
1630932135125,82.49
1630932135140,74.45
1630932135156,63.41
1630932135171,50.83
1630932135187,38.51
1630932135203,28.01
1630932135218,20.14
1630932135234,14.69
1630932135250,10.75
1630932135265,7.32
1630932135281,3.88
1630932135296,0.49
1630932135312,-2.47
1630932135328,-4.68
1630932135343,-6.22
1630932135359,-7.49
1630932135375,-8.91
1630932135390,-10.69
1630932135406,-12.75
1630932135421,-14.8
1630932135437,-16.62
1630932135453,-18.18
1630932135468,-19.61
1630932135484,-21.15
1630932135500,-22.97
1630932135515,-25.04
1630932135531,-27.07
1630932135546,-28.57
1630932135562,-28.95
1630932135578,-27.71
1630932135593,-24.69
1630932135609,-20.12
1630932135625,-14.58
1630932135640,-8.83
1630932135656,-3.54
1630932135671,0.92
1630932135687,4.5
1630932135703,7.34
1630932135718,9.61
1630932135734,11.38
1630932135750,12.6
1630932135765,13.2
1630932135781,13.2
1630932135796,12.79
1630932135812,12.21
1630932135828,11.72
1630932135843,11.46
1630932135859,11.45
1630932135875,11.59
1630932135890,11.75
1630932135906,11.84
1630932135921,11.82
1630932135937,11.7
1630932135953,11.5
1630932135968,11.21
1630932135984,10.81
1630932136000,10.26
1630932136015,9.54
1630932136031,8.65
1630932136046,7.63
1630932136062,6.55
1630932136078,5.46
1630932136093,4.4
1630932136109,3.36
1630932136125,2.3
1630932136140,1.11
1630932136156,-0.32
1630932136171,-2.06
1630932136187,-4.09
1630932136203,-6.33
1630932136218,-8.65
1630932136234,-10.93
1630932136250,-13.1
1630932136265,-15.12
1630932136281,-16.89
1630932136296,-18.24
1630932136312,-18.86
1630932136328,-18.44
1630932136343,-16.75
1630932136359,-13.77
1630932136375,-9.64
1630932136390,-4.7
1630932136406,0.65
1630932136421,6.0
1630932136437,10.92
1630932136453,15.04
1630932136468,18.03
1630932136484,19.7
1630932136500,20.05
1630932136515,19.26
1630932136531,17.64
1630932136546,15.61
1630932136562,13.53
1630932136578,11.73
1630932136593,10.39
1630932136609,9.6
1630932136625,9.3
1630932136640,9.36
1630932136656,9.55
1630932136671,9.64
1630932136687,9.45
1630932136703,8.92
1630932136718,8.08
1630932136734,7.07
1630932136750,6.04
1630932136765,5.11
1630932136781,4.34
1630932136796,3.74
1630932136812,3.22
1630932136828,2.66
1630932136843,1.92
1630932136859,0.9
1630932136875,-0.47
1630932136890,-2.2
1630932136906,-4.2
1630932136921,-6.33
1630932136937,-8.4
1630932136953,-10.24
1630932136968,-11.73
1630932136984,-12.91
1630932137000,-13.95
1630932137015,-15.07
1630932137031,-16.45
1630932137046,-18.11
1630932137062,-19.87
1630932137078,-21.36
1630932137093,-22.12
1630932137109,-21.61
1630932137125,-19.41
1630932137140,-15.23
1630932137156,-9.05
1630932137171,-1.24
1630932137187,7.51
1630932137203,16.26
1630932137218,24.05
1630932137234,30.14
1630932137250,34.13
1630932137265,35.98
1630932137281,35.91
1630932137296,34.26
1630932137312,31.4
1630932137328,27.73
1630932137343,23.65
1630932137359,19.56
1630932137375,15.84
1630932137390,12.73
1630932137406,10.34
1630932137421,8.59
1630932137437,7.32
1630932137453,6.35
1630932137468,5.56
1630932137484,4.89
1630932137500,4.33
1630932137515,3.85
1630932137531,3.41
1630932137546,2.94
1630932137562,2.38
1630932137578,1.67
1630932137593,0.8
1630932137609,-0.23
1630932137625,-1.42
1630932137640,-2.78
1630932137656,-4.33
1630932137671,-6.08
1630932137687,-8.01
1630932137703,-10.01
1630932137718,-11.94
1630932137734,-13.63
1630932137750,-14.99
1630932137765,-15.98
1630932137781,-16.68
1630932137796,-17.26
1630932137812,-17.92
1630932137828,-18.81
1630932137843,-19.98
1630932137859,-21.31
1630932137875,-22.49
1630932137890,-23.11
1630932137906,-22.7
1630932137921,-20.9
1630932137937,-17.53
1630932137953,-12.7
1630932137968,-6.85
1630932137984,-0.66
1630932138000,5.11
1630932138015,9.82
1630932138031,13.14
1630932138046,15.04
1630932138062,15.8
1630932138078,15.78
1630932138093,15.32
1630932138109,14.6
1630932138125,13.74
1630932138140,12.81
1630932138156,11.91
1630932138171,11.17
1630932138187,10.66
1630932138203,10.35
1630932138218,10.1
1630932138234,9.72
1630932138250,9.06
1630932138265,8.13
1630932138281,7.07
1630932138296,6.09
1630932138312,5.37
1630932138328,4.98
1630932138343,4.83
1630932138359,4.77
1630932138375,4.62
1630932138390,4.25
1630932138406,3.6
1630932138421,2.69
1630932138437,1.6
1630932138453,0.41
1630932138468,-0.81
1630932138484,-1.98
1630932138500,-3.09
1630932138515,-4.15
1630932138531,-5.21
1630932138546,-6.31
1630932138562,-7.45
1630932138578,-8.6
1630932138593,-9.72
1630932138609,-10.77
1630932138625,-11.81
1630932138640,-12.89
1630932138656,-14.11
1630932138671,-15.56
1630932138687,-17.24
1630932138703,-19.07
1630932138718,-20.84
1630932138734,-22.2
1630932138750,-22.75
1630932138765,-22.1
1630932138781,-20.02
1630932138796,-16.54
1630932138812,-11.95
1630932138828,-6.71
1630932138843,-1.38
1630932138859,3.54
1630932138875,7.68
1630932138890,10.81
1630932138906,12.86
1630932138921,13.87
1630932138937,14.02
1630932138953,13.56
1630932138968,12.76
1630932138984,11.82
1630932139000,10.86
1630932139015,9.94
1630932139031,9.09
1630932139046,8.37
1630932139062,7.87
1630932139078,7.62
1630932139093,7.61
1630932139109,7.8
1630932139125,8.09
1630932139140,8.4
1630932139156,8.67
1630932139171,8.87
1630932139187,8.95
1630932139203,8.91
1630932139218,8.73
1630932139234,8.42
1630932139250,7.96
1630932139265,7.34
1630932139281,6.47
1630932139296,5.33
1630932139312,3.95
1630932139328,2.44
1630932139343,0.98
1630932139359,-0.27
1630932139375,-1.24
1630932139390,-2.0
1630932139406,-2.61
1630932139421,-3.15
1630932139437,-3.68
1630932139453,-4.23
1630932139468,-4.91
1630932139484,-5.82
1630932139500,-7.04
1630932139515,-8.54
1630932139531,-10.17
1630932139546,-11.7
1630932139562,-12.94
1630932139578,-13.86
1630932139593,-14.57
1630932139609,-15.33
1630932139625,-16.35
1630932139640,-17.74
1630932139656,-19.41
1630932139671,-21.13
1630932139687,-22.59
1630932139703,-23.43
1630932139718,-23.33
1630932139734,-22.06
1630932139750,-19.51
1630932139765,-15.8
1630932139781,-11.18
1630932139796,-6.1
1630932139812,-1.02
1630932139828,3.61
1630932139843,7.47
1630932139859,10.41
1630932139875,12.36
1630932139890,13.39
1630932139906,13.6
1630932139921,13.13
1630932139937,12.18
1630932139953,11.0
1630932139968,9.87
1630932139984,9.03
1630932140000,8.63
1630932140015,8.71
1630932140031,9.2
1630932140046,9.92
1630932140062,10.67
1630932140078,11.24
1630932140093,11.51
1630932140109,11.42
1630932140125,11.04
1630932140140,10.47
1630932140156,9.85
1630932140171,9.3
1630932140187,8.87
1630932140203,8.54
1630932140218,8.26
1630932140234,7.95
1630932140250,7.49
1630932140265,6.83
1630932140281,5.93
1630932140296,4.81
1630932140312,3.54
1630932140328,2.25
1630932140343,1.05
1630932140359,-0.02
1630932140375,-0.96
1630932140390,-1.88
1630932140406,-2.82
1630932140421,-3.85
1630932140437,-4.93
1630932140453,-6.05
1630932140468,-7.21
1630932140484,-8.44
1630932140500,-9.76
1630932140515,-11.09
1630932140531,-12.36
1630932140546,-13.45
1630932140562,-14.35
1630932140578,-15.2
1630932140593,-16.23
1630932140609,-17.62
1630932140625,-19.28
1630932140640,-20.81
1630932140656,-21.57
1630932140671,-20.94
1630932140687,-18.61
1630932140703,-14.72
1630932140718,-9.78
1630932140734,-4.49
1630932140750,0.54
1630932140765,4.91
1630932140781,8.51
1630932140796,11.38
1630932140812,13.59
1630932140828,15.13
1630932140843,15.96
1630932140859,16.01
1630932140875,15.34
1630932140890,14.13
1630932140906,12.65
1630932140921,11.19
1630932140937,9.98
1630932140953,9.12
1630932140968,8.59
1630932140984,8.31
1630932141000,8.2
1630932141015,8.21
1630932141031,8.34
1630932141046,8.56
1630932141062,8.8
1630932141078,8.92
1630932141093,8.81
1630932141109,8.38
1630932141125,7.64
1630932141140,6.68
1630932141156,5.57
1630932141171,4.38
1630932141187,3.16
1630932141203,1.94
1630932141218,0.74
1630932141234,-0.37
1630932141250,-1.37
1630932141265,-2.28
1630932141281,-3.13
1630932141296,-4.0
1630932141312,-4.99
1630932141328,-6.14
1630932141343,-7.47
1630932141359,-8.9
1630932141375,-10.28
1630932141390,-11.45
1630932141406,-12.28
1630932141421,-12.81
1630932141437,-13.27
1630932141453,-14.0
1630932141468,-15.36
1630932141484,-17.51
1630932141500,-20.29
1630932141515,-23.28
1630932141531,-25.92
1630932141546,-27.67
1630932141562,-28.23
1630932141578,-27.46
1630932141593,-25.47
1630932141609,-22.49
1630932141625,-18.86
1630932141640,-14.92
1630932141656,-10.95
1630932141671,-7.0
1630932141687,-2.79
1630932141703,2.2
1630932141718,8.48
1630932141734,16.2
1630932141750,24.92
1630932141765,33.58
1630932141781,40.78
1630932141796,45.24
1630932141812,46.28
1630932141828,43.96
1630932141843,39.03
1630932141859,32.59
1630932141875,25.7
1630932141890,19.21
1630932141906,13.65
1630932141921,9.27
1630932141937,6.16
1630932141953,4.29
1630932141968,3.47
1630932141984,3.37
1630932142000,3.58
1630932142015,3.69
1630932142031,3.44
1630932142046,2.78
1630932142062,1.83
1630932142078,0.8
1630932142093,-0.16
1630932142109,-1.01
1630932142125,-1.81
1630932142140,-2.68
1630932142156,-3.68
1630932142171,-4.77
1630932142187,-5.88
1630932142203,-6.89
1630932142218,-7.76
1630932142234,-8.47
1630932142250,-9.1
1630932142265,-9.71
1630932142281,-10.36
1630932142296,-11.03
1630932142312,-11.63
1630932142328,-12.03
1630932142343,-12.1
1630932142359,-11.82
1630932142375,-11.32
1630932142390,-10.93
1630932142406,-11.06
1630932142421,-12.06
1630932142437,-14.01
1630932142453,-16.65
1630932142468,-19.4
1630932142484,-21.51
1630932142500,-22.31
1630932142515,-21.41
1630932142531,-18.79
1630932142546,-14.78
1630932142562,-9.93
1630932142578,-4.77
1630932142593,0.25
1630932142609,4.85
1630932142625,8.88
1630932142640,12.19
1630932142656,14.61
1630932142671,15.94
1630932142687,16.08
1630932142703,15.11
1630932142718,13.34
1630932142734,11.26
1630932142750,9.38
1630932142765,8.1
1630932142781,7.54
1630932142796,7.65
1630932142812,8.17
1630932142828,8.85
1630932142843,9.45
1630932142859,9.8
1630932142875,9.8
1630932142890,9.37
1630932142906,8.52
1630932142921,7.33
1630932142937,5.93
1630932142953,4.52
1630932142968,3.28
1630932142984,2.32
1630932143000,1.65
1630932143015,1.17
1630932143031,0.73
1630932143046,0.18
1630932143062,-0.61
1630932143078,-1.69
1630932143093,-3.09
1630932143109,-4.79
1630932143125,-6.74
1630932143140,-8.82
1630932143156,-10.81
1630932143171,-12.5
1630932143187,-13.76
1630932143203,-14.66
1630932143218,-15.4
1630932143234,-16.29
1630932143250,-17.49
1630932143265,-18.9
1630932143281,-20.15
1630932143296,-20.68
1630932143312,-20.01
1630932143328,-17.89
1630932143343,-14.37
1630932143359,-9.79
1630932143375,-4.59
1630932143390,0.75
1630932143406,5.81
1630932143421,10.22
1630932143437,13.66
1630932143453,15.94
1630932143468,16.99
1630932143484,16.93
1630932143500,16.04
1630932143515,14.69
1630932143531,13.2
1630932143546,11.86
1630932143562,10.82
1630932143578,10.17
1630932143593,9.89
1630932143609,9.89
1630932143625,10.02
1630932143640,10.07
1630932143656,9.84
1630932143671,9.22
1630932143687,8.27
1630932143703,7.16
1630932143718,6.16
1630932143734,5.44
1630932143750,5.02
1630932143765,4.76
1630932143781,4.48
1630932143796,4.03
1630932143812,3.36
1630932143828,2.54
1630932143843,1.59
1630932143859,0.49
1630932143875,-0.85
1630932143890,-2.51
1630932143906,-4.43
1630932143921,-6.42
1630932143937,-8.21
1630932143953,-9.55
1630932143968,-10.4
1630932143984,-10.88
1630932144000,-11.28
1630932144015,-11.91
1630932144031,-13.0
1630932144046,-14.63
1630932144062,-16.73
1630932144078,-19.04
1630932144093,-21.22
1630932144109,-22.77
1630932144125,-23.24
1630932144140,-22.25
1630932144156,-19.61
1630932144171,-15.44
1630932144187,-10.14
1630932144203,-4.34
1630932144218,1.27
1630932144234,6.09
1630932144250,9.73
1630932144265,12.09
1630932144281,13.31
1630932144296,13.68
1630932144312,13.52
1630932144328,13.11
1630932144343,12.59
1630932144359,12.05
1630932144375,11.46
1630932144390,10.83
1630932144406,10.16
1630932144421,9.56
1630932144437,9.14
1630932144453,9.0
1630932144468,9.18
1630932144484,9.57
1630932144500,9.98
1630932144515,10.22
1630932144531,10.14
1630932144546,9.74
1630932144562,9.13
1630932144578,8.46
1630932144593,7.81
1630932144609,7.14
1630932144625,6.29
1630932144640,5.1
1630932144656,3.54
1630932144671,1.73
1630932144687,-0.04
1630932144703,-1.56
1630932144718,-2.71
1630932144734,-3.64
1630932144750,-4.64
1630932144765,-6.01
1630932144781,-7.85
1630932144796,-10.04
1630932144812,-12.26
1630932144828,-14.2
1630932144843,-15.73
1630932144859,-16.95
1630932144875,-18.13
1630932144890,-19.49
1630932144906,-21.05
1630932144921,-22.52
1630932144937,-23.34
1630932144953,-22.88
1630932144968,-20.66
1630932144984,-16.61
1630932145000,-11.12
1630932145015,-4.98
1630932145031,0.85
1630932145046,5.46
1630932145062,8.22
1630932145078,8.93
1630932145093,7.89
1630932145109,5.89
1630932145125,4.15
1630932145140,4.06
1630932145156,6.8
1630932145171,12.89
1630932145187,21.87
1630932145203,32.26
1630932145218,41.94
1630932145234,48.8
1630932145250,51.42
1630932145265,49.53
1630932145281,43.91
1630932145296,36.05
1630932145312,27.5
1630932145328,19.5
1630932145343,12.69
1630932145359,7.23
1630932145375,2.96
1630932145390,-0.36
1630932145406,-2.94
1630932145421,-4.93
1630932145437,-6.41
1630932145453,-7.52
1630932145468,-8.41
1630932145484,-9.25
1630932145500,-10.18
1630932145515,-11.23
1630932145531,-12.3
1630932145546,-13.22
1630932145562,-13.83
1630932145578,-14.07
1630932145593,-14.06
1630932145609,-14.02
1630932145625,-14.22
1630932145640,-14.84
1630932145656,-15.97
1630932145671,-17.59
1630932145687,-19.62
1630932145703,-21.9
1630932145718,-24.24
1630932145734,-26.31
1630932145750,-27.72
1630932145765,-27.98
1630932145781,-26.57
1630932145796,-23.08
1630932145812,-17.42
1630932145828,-9.87
1630932145843,-1.21
1630932145859,7.48
1630932145875,15.13
1630932145890,20.98
1630932145906,24.81
1630932145921,26.86
1630932145937,27.64
1630932145953,27.56
1630932145968,26.84
1630932145984,25.48
1630932146000,23.44
1630932146015,20.83
1630932146031,17.89
1630932146046,14.94
1630932146062,12.23
1630932146078,9.87
1630932146093,7.89
1630932146109,6.28
1630932146125,5.07
1630932146140,4.25
1630932146156,3.81
1630932146171,3.64
1630932146187,3.61
1630932146203,3.59
1630932146218,3.48
1630932146234,3.2
1630932146250,2.73
1630932146265,2.07
1630932146281,1.24
1630932146296,0.35
1630932146312,-0.51
1630932146328,-1.27
1630932146343,-1.98
1630932146359,-2.74
1630932146375,-3.71
1630932146390,-4.96
1630932146406,-6.47
1630932146421,-8.12
1630932146437,-9.76
1630932146453,-11.23
1630932146468,-12.47
1630932146484,-13.45
1630932146500,-14.23
1630932146515,-14.87
1630932146531,-15.48
1630932146546,-16.2
1630932146562,-17.17
1630932146578,-18.5
1630932146593,-20.22
1630932146609,-22.22
1630932146625,-24.17
1630932146640,-25.6
1630932146656,-25.95
1630932146671,-24.75
1630932146687,-21.76
1630932146703,-17.09
1630932146718,-11.23
1630932146734,-4.94
1630932146750,0.98
1630932146765,5.89
1630932146781,9.45
1630932146796,11.69
1630932146812,12.88
1630932146828,13.38
1630932146843,13.51
1630932146859,13.4
1630932146875,13.03
1630932146890,12.29
1630932146906,11.07
1630932146921,9.41
1630932146937,7.56
1630932146953,5.9
1630932146968,4.86
1630932146984,4.78
1630932147000,5.73
1630932147015,7.47
1630932147031,9.49
1630932147046,11.21
1630932147062,12.2
1630932147078,12.39
1630932147093,12.09
1630932147109,11.81
1630932147125,11.95
1630932147140,12.58
1630932147156,13.33
1630932147171,13.6
1630932147187,12.78
1630932147203,10.42
1630932147218,6.25
1630932147234,0.15
1630932147250,-7.66
1630932147265,-16.41
1630932147281,-24.59
1630932147296,-30.14
1630932147312,-31.21
1630932147328,-26.98
1630932147343,-18.29
1630932147359,-7.43
1630932147375,2.79
1630932147390,10.29
1630932147406,14.47
1630932147421,16.05
1630932147437,16.3
1630932147453,15.93
1630932147468,14.76
1630932147484,11.85
1630932147500,6.46
1630932147515,-1.31
1630932147531,-10.22
1630932147546,-18.45
1630932147562,-24.43
1630932147578,-27.44
1630932147593,-27.91
1630932147609,-26.99
1630932147625,-25.92
1630932147640,-25.38
1630932147656,-25.3
1630932147671,-24.96
1630932147687,-23.45
1630932147703,-20.16
1630932147718,-15.07
1630932147734,-8.66
1630932147750,-1.68
1630932147765,5.16
1630932147781,11.42
1630932147796,16.89
1630932147812,21.39
1630932147828,24.64
1630932147843,26.19
1630932147859,25.61
1630932147875,22.73
1630932147890,17.79
1630932147906,11.56
1630932147921,5.08
1630932147937,-0.6
1630932147953,-4.82
1630932147968,-7.35
1630932147984,-8.45
1630932148000,-8.58
1630932148015,-8.19
1630932148031,-7.47
1630932148046,-6.39
1630932148062,-4.7
1630932148078,-2.18
1630932148093,1.27
1630932148109,5.46
1630932148125,9.97
1630932148140,14.21
1630932148156,17.66
1630932148171,20.0
1630932148187,21.25
1630932148203,21.62
1630932148218,21.44
1630932148234,20.88
1630932148250,19.91
1630932148265,18.26
1630932148281,15.68
1630932148296,12.12
1630932148312,7.86
1630932148328,3.46
1630932148343,-0.39
1630932148359,-3.22
1630932148375,-4.91
1630932148390,-5.79
1630932148406,-6.53
1630932148421,-7.88
1630932148437,-10.33
1630932148453,-13.95
1630932148468,-18.32
1630932148484,-22.74
1630932148500,-26.51
1630932148515,-29.13
1630932148531,-30.36
1630932148546,-30.17
1630932148562,-28.58
1630932148578,-25.59
1630932148593,-21.3
1630932148609,-15.92
1630932148625,-9.84
1630932148640,-3.57
1630932148656,2.58
1630932148671,8.59
1630932148687,14.76
1630932148703,21.45
1630932148718,28.64
1630932148734,35.67
1630932148750,41.33
1630932148765,44.15
1630932148781,43.05
1630932148796,37.77
1630932148812,29.12
1630932148828,18.68
1630932148843,8.32
1630932148859,-0.36
1630932148875,-6.44
1630932148890,-9.77
1630932148906,-10.73
1630932148921,-9.91
1630932148937,-7.86
1630932148953,-4.96
1630932148968,-1.57
1630932148984,1.91
1630932149000,5.08
1630932149015,7.73
1630932149031,9.99
1630932149046,12.41
1630932149062,15.65
1630932149078,20.06
1630932149093,25.23
1630932149109,30.07
1630932149125,33.13
1630932149140,33.33
1630932149156,30.47
1630932149171,25.36
1630932149187,19.36
1630932149203,13.8
1630932149218,9.37
1630932149234,5.99
1630932149250,3.11
1630932149265,0.15
1630932149281,-3.08
1630932149296,-6.33
1630932149312,-9.22
1630932149328,-11.48
1630932149343,-13.23
1630932149359,-14.98
1630932149375,-17.32
1630932149390,-20.69
1630932149406,-25.03
1630932149421,-29.84
1630932149437,-34.31
1630932149453,-37.65
1630932149468,-39.3
1630932149484,-39.13
1630932149500,-37.35
1630932149515,-34.41
1630932149531,-30.81
1630932149546,-26.92
1630932149562,-23.03
1630932149578,-19.32
1630932149593,-15.93
1630932149609,-13.01
1630932149625,-10.74
1630932149640,-9.18
1630932149656,-8.33
1630932149671,-8.04
1630932149687,-8.02
1630932149703,-7.95
1630932149718,-7.49
1630932149734,-6.39
1630932149750,-4.48
1630932149765,-1.64
1630932149781,2.26
1630932149796,7.29
1630932149812,13.47
1630932149828,20.55
1630932149843,27.87
1630932149859,34.37
1630932149875,38.82
1630932149890,40.2
1630932149906,38.17
1630932149921,33.24
1630932149937,26.67
1630932149953,20.0
1630932149968,14.45
1630932149984,10.64
1630932150000,8.4
1630932150015,7.11
1630932150031,6.01
1630932150046,4.55
1630932150062,2.55
1630932150078,0.18
1630932150093,-2.19
1630932150109,-4.08
1630932150125,-5.09
1630932150140,-4.95
1630932150156,-3.72
1630932150171,-1.8
1630932150187,0.17
1630932150203,1.41
1630932150218,1.33
1630932150234,-0.31
1630932150250,-3.38
1630932150265,-7.49
1630932150281,-12.14
1630932150296,-16.91
1630932150312,-21.46
1630932150328,-25.52
1630932150343,-28.8
1630932150359,-30.98
1630932150375,-31.77
1630932150390,-30.95
1630932150406,-28.53
1630932150421,-24.74
1630932150437,-19.98
1630932150453,-14.79
1630932150468,-9.69
1630932150484,-5.15
1630932150500,-1.52
1630932150515,1.03
1630932150531,2.48
1630932150546,2.93
1630932150562,2.56
1630932150578,1.57
1630932150593,0.2
1630932150609,-1.33
1630932150625,-2.8
1630932150640,-3.98
1630932150656,-4.64
1630932150671,-4.61
1630932150687,-3.77
1630932150703,-2.17
1630932150718,-0.04
1630932150734,2.25
1630932150750,4.31
1630932150765,5.91
1630932150781,6.96
1630932150796,7.59
1630932150812,7.92
1630932150828,7.98
1630932150843,7.63
1630932150859,6.63
1630932150875,4.81
1630932150890,2.16
1630932150906,-1.06
1630932150921,-4.43
1630932150937,-7.42
1630932150953,-9.44
1630932150968,-9.96
1630932150984,-8.5
1630932151000,-4.82
1630932151015,0.93
1630932151031,8.04
1630932151046,15.27
1630932151062,21.17
1630932151078,24.49
1630932151093,24.62
1630932151109,21.78
1630932151125,16.84
1630932151140,10.97
1630932151156,5.18
1630932151171,0.03
1630932151187,-4.46
1630932151203,-8.62
1630932151218,-12.8
1630932151234,-17.12
1630932151250,-21.34
1630932151265,-24.94
1630932151281,-27.28
1630932151296,-27.93
1630932151312,-26.76
1630932151328,-24.0
1630932151343,-20.12
1630932151359,-15.61
1630932151375,-10.84
1630932151390,-6.02
1630932151406,-1.26
1630932151421,3.3
1630932151437,7.43
1630932151453,10.8
1630932151468,13.09
1630932151484,14.14
1630932151500,14.01
1630932151515,12.99
1630932151531,11.49
1630932151546,9.92
1630932151562,8.57
1630932151578,7.59
1630932151593,6.98
1630932151609,6.67
1630932151625,6.61
1630932151640,6.8
1630932151656,7.27
1630932151671,7.98
1630932151687,8.84
1630932151703,9.62
1630932151718,10.11
1630932151734,10.19
1630932151750,9.9
1630932151765,9.4
1630932151781,8.91
1630932151796,8.57
1630932151812,8.39
1630932151828,8.22
1630932151843,7.84
1630932151859,7.03
1630932151875,5.66
1630932151890,3.74
1630932151906,1.46
1630932151921,-0.89
1630932151937,-2.98
1630932151953,-4.54
1630932151968,-5.49
1630932151984,-5.96
1630932152000,-6.27
1630932152015,-6.76
1630932152031,-7.7
1630932152046,-9.11
1630932152062,-10.81
1630932152078,-12.47
1630932152093,-13.84
1630932152109,-14.86
1630932152125,-15.75
1630932152140,-16.91
1630932152156,-18.7
1630932152171,-21.24
1630932152187,-24.21
1630932152203,-26.94
1630932152218,-28.65
1630932152234,-28.67
1630932152250,-26.72
1630932152265,-22.95
1630932152281,-17.82
1630932152296,-11.87
1630932152312,-5.6
1630932152328,0.62
1630932152343,6.52
1630932152359,11.81
1630932152375,16.19
1630932152390,19.34
1630932152406,21.05
1630932152421,21.33
1630932152437,20.4
1630932152453,18.67
1630932152468,16.61
1630932152484,14.72
1630932152500,13.34
1630932152515,12.69
1630932152531,12.82
1630932152546,13.62
1630932152562,14.86
1630932152578,16.23
1630932152593,17.43
1630932152609,18.24
1630932152625,18.53
1630932152640,18.31
1630932152656,17.64
1630932152671,16.68
1630932152687,15.58
1630932152703,14.5
1630932152718,13.56
1630932152734,12.78
1630932152750,12.09
1630932152765,11.33
1630932152781,10.34
1630932152796,9.05
1630932152812,7.53
1630932152828,6.01
1630932152843,4.73
1630932152859,3.79
1630932152875,3.11
1630932152890,2.43
1630932152906,1.45
1630932152921,0.03
1630932152937,-1.81
1630932152953,-3.86
1630932152968,-5.92
1630932152984,-7.84
1630932153000,-9.67
1630932153015,-11.56
1630932153031,-13.66
1630932153046,-16.09
1630932153062,-18.85
1630932153078,-21.87
1630932153093,-24.99
1630932153109,-28.04
1630932153125,-30.86
1630932153140,-33.26
1630932153156,-35.06
1630932153171,-36.06
1630932153187,-35.97
1630932153203,-34.48
1630932153218,-31.37
1630932153234,-26.55
1630932153250,-20.29
1630932153265,-13.12
1630932153281,-5.79
1630932153296,0.99
1630932153312,6.66
1630932153328,11.01
1630932153343,14.09
1630932153359,16.11
1630932153375,17.33
1630932153390,17.88
1630932153406,17.8
1630932153421,17.07
1630932153437,15.73
1630932153453,13.92
1630932153468,11.98
1630932153484,10.29
1630932153500,9.25
1630932153515,9.01
1630932153531,9.51
1630932153546,10.46
1630932153562,11.41
1630932153578,11.99
1630932153593,11.98
1630932153609,11.37
1630932153625,10.27
1630932153640,8.92
1630932153656,7.63
1630932153671,6.83
1630932153687,6.99
1630932153703,8.57
1630932153718,11.7
1630932153734,15.98
1630932153750,20.42
1630932153765,23.71
1630932153781,24.68
1630932153796,22.84
1630932153812,18.6
1630932153828,13.11
1630932153843,7.75
1630932153859,3.49
1630932153875,0.52
1630932153890,-1.68
1630932153906,-3.92
1630932153921,-6.83
1630932153937,-10.48
1630932153953,-14.4
1630932153968,-17.81
1630932153984,-20.02
1630932154000,-20.65
1630932154015,-19.82
1630932154031,-18.05
1630932154046,-16.06
1630932154062,-14.56
1630932154078,-13.96
1630932154093,-14.3
1630932154109,-15.2
1630932154125,-16.07
1630932154140,-16.34
1630932154156,-15.6
1630932154171,-13.78
1630932154187,-10.99
1630932154203,-7.5
1630932154218,-3.59
1630932154234,0.43
1630932154250,4.26
1630932154265,7.55
1630932154281,10.02
1630932154296,11.54
1630932154312,12.23
1630932154328,12.4
1630932154343,12.4
1630932154359,12.47
1630932154375,12.58
1630932154390,12.52
1630932154406,12.05
1630932154421,11.05
1630932154437,9.65
1630932154453,8.15
1630932154468,6.89
1630932154484,6.11
1630932154500,5.88
1630932154515,6.12
1630932154531,6.67
1630932154546,7.32
1630932154562,7.89
1630932154578,8.27
1630932154593,8.38
1630932154609,8.22
1630932154625,7.85
1630932154640,7.29
1630932154656,6.57
1630932154671,5.63
1630932154687,4.42
1630932154703,2.95
1630932154718,1.38
1630932154734,-0.07
1630932154750,-1.22
1630932154765,-2.03
1630932154781,-2.67
1630932154796,-3.4
1630932154812,-4.47
1630932154828,-5.91
1630932154843,-7.59
1630932154859,-9.24
1630932154875,-10.61
1630932154890,-11.55
1630932154906,-12.05
1630932154921,-12.23
1630932154937,-12.33
1630932154953,-12.64
1630932154968,-13.5
1630932154984,-15.22
1630932155000,-17.91
1630932155015,-21.45
1630932155031,-25.41
1630932155046,-29.14
1630932155062,-31.9
1630932155078,-32.99
1630932155093,-31.92
1630932155109,-28.5
1630932155125,-22.91
1630932155140,-15.72
1630932155156,-7.81
1630932155171,-0.16
1630932155187,6.43
1630932155203,11.5
1630932155218,15.12
1630932155234,17.75
1630932155250,20.1
1630932155265,22.73
1630932155281,25.89
1630932155296,29.36
1630932155312,32.54
1630932155328,34.74
1630932155343,35.41
1630932155359,34.44
1630932155375,32.14
1630932155390,29.14
1630932155406,26.1
1630932155421,23.47
1630932155437,21.35
1630932155453,19.53
1630932155468,17.62
1630932155484,15.28
1630932155500,12.33
1630932155515,8.83
1630932155531,5.06
1630932155546,1.45
1630932155562,-1.53
1630932155578,-3.47
1630932155593,-4.19
1630932155609,-3.76
1630932155625,-2.63
1630932155640,-1.36
1630932155656,-0.53
1630932155671,-0.47
1630932155687,-1.22
1630932155703,-2.55
1630932155718,-4.14
1630932155734,-5.76
1630932155750,-7.29
1630932155765,-8.75
1630932155781,-10.19
1630932155796,-11.61
1630932155812,-12.97
1630932155828,-14.26
1630932155843,-15.53
1630932155859,-16.89
1630932155875,-18.47
1630932155890,-20.33
1630932155906,-22.46
1630932155921,-24.8
1630932155937,-27.29
1630932155953,-29.88
1630932155968,-32.43
1630932155984,-34.68
1630932156000,-36.15
1630932156015,-36.18
1630932156031,-34.12
1630932156046,-29.57
1630932156062,-22.54
1630932156078,-13.56
1630932156093,-3.54
1630932156109,6.4
1630932156125,15.24
1630932156140,22.31
1630932156156,27.3
1630932156171,30.24
1630932156187,31.33
1630932156203,30.78
1630932156218,28.85
1630932156234,25.84
1630932156250,22.23
1630932156265,18.6
1630932156281,15.53
1630932156296,13.4
1630932156312,12.25
1630932156328,11.88
1630932156343,12.01
1630932156359,12.49
1630932156375,13.4
1630932156390,14.93
1630932156406,17.17
1630932156421,19.97
1630932156437,22.84
1630932156453,25.17
1630932156468,26.45
1630932156484,26.4
1630932156500,25.05
1630932156515,22.67
1630932156531,19.59
1630932156546,16.13
1630932156562,12.49
1630932156578,8.83
1630932156593,5.23
1630932156609,1.82
1630932156625,-1.25
1630932156640,-3.8
1630932156656,-5.71
1630932156671,-7.0
1630932156687,-7.84
1630932156703,-8.56
1630932156718,-9.56
1630932156734,-11.16
1630932156750,-13.48
1630932156765,-16.44
1630932156781,-19.74
1630932156796,-22.99
1630932156812,-25.84
1630932156828,-28.05
1630932156843,-29.66
1630932156859,-30.92
1630932156875,-32.27
1630932156890,-34.12
1630932156906,-36.69
1630932156921,-39.74
1630932156937,-42.65
1630932156953,-44.5
1630932156968,-44.42
1630932156984,-41.86
1630932157000,-36.79
1630932157015,-29.77
1630932157031,-21.65
1630932157046,-13.34
1630932157062,-5.53
1630932157078,1.54
1630932157093,8.02
1630932157109,14.34
1630932157125,20.91
1630932157140,27.88
1630932157156,34.91
1630932157171,41.22
1630932157187,45.79
1630932157203,47.74
1630932157218,46.72
1630932157234,43.04
1630932157250,37.6
1630932157265,31.5
1630932157281,25.65
1630932157296,20.51
1630932157312,16.15
1630932157328,12.47
1630932157343,9.51
1630932157359,7.53
1630932157375,6.93
1630932157390,7.98
1630932157406,10.63
1630932157421,14.33
1630932157437,18.24
1630932157453,21.34
1630932157468,22.8
1630932157484,22.18
1630932157500,19.56
1630932157515,15.48
1630932157531,10.72
1630932157546,6.02
1630932157562,1.84
1630932157578,-1.74
1630932157593,-4.9
1630932157609,-7.9
1630932157625,-10.84
1630932157640,-13.6
1630932157656,-15.93
1630932157671,-17.65
1630932157687,-18.77
1630932157703,-19.53
1630932157718,-20.26
1630932157734,-21.2
1630932157750,-22.4
1630932157765,-23.76
1630932157781,-25.1
1630932157796,-26.34
1630932157812,-27.54
1630932157828,-28.87
1630932157843,-30.46
1630932157859,-32.22
1630932157875,-33.75
1630932157890,-34.44
1630932157906,-33.6
1630932157921,-30.71
1630932157937,-25.62
1630932157953,-18.59
1630932157968,-10.31
1630932157984,-1.7
1630932158000,6.29
1630932158015,12.9
1630932158031,17.71
1630932158046,20.69
1630932158062,22.11
1630932158078,22.41
1630932158093,22.06
1630932158109,21.41
1630932158125,20.65
1630932158140,19.87
1630932158156,19.07
1630932158171,18.22
1630932158187,17.3
1630932158203,16.3
1630932158218,15.29
1630932158234,14.39
1630932158250,13.71
1630932158265,13.32
1630932158281,13.17
1630932158296,13.12
1630932158312,13.0
1630932158328,12.67
1630932158343,12.12
1630932158359,11.42
1630932158375,10.68
1630932158390,9.92
1630932158406,9.06
1630932158421,8.0
1630932158437,6.64
1630932158453,5.01
1630932158468,3.24
1630932158484,1.53
1630932158500,0.04
1630932158515,-1.21
1630932158531,-2.33
1630932158546,-3.52
1630932158562,-4.96
1630932158578,-6.71
1630932158593,-8.67
1630932158609,-10.59
1630932158625,-12.28
1630932158640,-13.65
1630932158656,-14.81
1630932158671,-16.0
1630932158687,-17.49
1630932158703,-19.46
1630932158718,-21.92
1630932158734,-24.77
1630932158750,-27.78
1630932158765,-30.65
1630932158781,-33.0
1630932158796,-34.41
1630932158812,-34.37
1630932158828,-32.42
1630932158843,-28.28
1630932158859,-22.02
1630932158875,-14.13
1630932158890,-5.45
1630932158906,3.04
1630932158921,10.47
1630932158937,16.32
1630932158953,20.47
1630932158968,23.09
1630932158984,24.51
1630932159000,24.97
1630932159015,24.63
1630932159031,23.61
1630932159046,22.03
1630932159062,20.15
1630932159078,18.32
1630932159093,16.86
1630932159109,15.94
1630932159125,15.56
1630932159140,15.52
1630932159156,15.53
1630932159171,15.39
1630932159187,15.06
1630932159203,14.67
1630932159218,14.47
1630932159234,14.64
1630932159250,15.17
1630932159265,15.78
1630932159281,16.07
1630932159296,15.64
1630932159312,14.29
1630932159328,12.11
1630932159343,9.39
1630932159359,6.48
1630932159375,3.68
1630932159390,1.1
1630932159406,-1.21
1630932159421,-3.28
1630932159437,-5.08
1630932159453,-6.56
1630932159468,-7.69
1630932159484,-8.53
1630932159500,-9.23
1630932159515,-10.03
1630932159531,-11.16
1630932159546,-12.83
1630932159562,-15.15
1630932159578,-18.12
1630932159593,-21.68
1630932159609,-25.68
1630932159625,-29.95
1630932159640,-34.25
1630932159656,-38.35
1630932159671,-42.02
1630932159687,-44.99
1630932159703,-46.91
1630932159718,-47.38
1630932159734,-46.0
1630932159750,-42.45
1630932159765,-36.74
1630932159781,-29.23
1630932159796,-20.62
1630932159812,-11.76
1630932159828,-3.46
1630932159843,3.77
1630932159859,9.73
1630932159875,14.43
1630932159890,18.01
1630932159906,20.54
1630932159921,22.04
1630932159937,22.52
1630932159953,22.07
1630932159968,20.96
1630932159984,19.55
1630932160000,18.21
1630932160015,17.19
1630932160031,16.54
1630932160046,16.12
1630932160062,15.67
1630932160078,15.01
1630932160093,14.13
1630932160109,13.19
1630932160125,12.43
1630932160140,11.96
1630932160156,11.59
1630932160171,10.77
1630932160187,8.74
1630932160203,4.81
1630932160218,-1.33
1630932160234,-9.39
1630932160250,-18.43
1630932160265,-27.1
1630932160281,-33.93
1630932160296,-37.66
1630932160312,-37.55
1630932160328,-33.52
1630932160343,-26.16
1630932160359,-16.64
1630932160375,-6.53
1630932160390,2.5
1630932160406,8.94
1630932160421,11.75
1630932160437,10.61
1630932160453,6.03
1630932160468,-0.8
1630932160484,-8.44
1630932160500,-15.81
1630932160515,-22.59
1630932160531,-29.32
1630932160546,-37.02
1630932160562,-46.59
1630932160578,-58.09
1630932160593,-70.6
1630932160609,-82.47
1630932160625,-91.92
1630932160640,-97.74
1630932160656,-99.6
1630932160671,-97.91
1630932160687,-93.49
1630932160703,-87.14
1630932160718,-79.41
1630932160734,-70.64
1630932160750,-61.07
1630932160765,-51.03
1630932160781,-40.85
1630932160796,-30.75
1630932160812,-20.77
1630932160828,-10.71
1630932160843,-0.22
1630932160859,10.95
1630932160875,22.87
1630932160890,35.3
1630932160906,47.73
1630932160921,59.61
1630932160937,70.57
1630932160953,80.57
1630932160968,89.91
1630932160984,98.88
1630932161000,107.37
1630932161015,114.67
1630932161031,119.54
1630932161046,120.71
1630932161062,117.52
1630932161078,110.22
1630932161093,100.0
1630932161109,88.48
1630932161125,77.15
1630932161140,66.91
1630932161156,58.09
1630932161171,50.65
1630932161187,44.41
1630932161203,39.14
1630932161218,34.42
1630932161234,29.45
1630932161250,23.26
1630932161265,14.97
1630932161281,4.24
1630932161296,-8.65
1630932161312,-22.94
1630932161328,-37.62
1630932161343,-51.65
1630932161359,-64.0
1630932161375,-73.49
1630932161390,-78.83
1630932161406,-78.94
1630932161421,-73.43
1630932161437,-62.93
1630932161453,-49.12
1630932161468,-34.2
1630932161484,-20.2
1630932161500,-8.38
1630932161515,0.84
1630932161531,7.71
1630932161546,12.54
1630932161562,15.5
1630932161578,16.6
1630932161593,15.91
1630932161609,13.87
1630932161625,11.3
1630932161640,9.21
1630932161656,8.44
1630932161671,9.31
1630932161687,11.54
1630932161703,14.39
1630932161718,17.0
1630932161734,18.71
1630932161750,19.24
1630932161765,18.68
1630932161781,17.39
1630932161796,15.81
1630932161812,14.34
1630932161828,13.31
1630932161843,13.0
1630932161859,13.59
1630932161875,15.15
1630932161890,17.46
1630932161906,20.07
1630932161921,22.3
1630932161937,23.52
1630932161953,23.39
1630932161968,22.01
1630932161984,19.84
1630932162000,17.49
1630932162015,15.41
1630932162031,13.69
1630932162046,12.0
1630932162062,9.76
1630932162078,6.37
1630932162093,1.51
1630932162109,-4.78
1630932162125,-12.01
1630932162140,-19.42
1630932162156,-26.14
1630932162171,-31.37
1630932162187,-34.49
1630932162203,-35.15
1630932162218,-33.23
1630932162234,-28.91
1630932162250,-22.61
1630932162265,-15.02
1630932162281,-6.97
1630932162296,0.65
1630932162312,7.12
1630932162328,12.03
1630932162343,15.29
1630932162359,17.14
1630932162375,17.93
1630932162390,18.08
1630932162406,17.91
1630932162421,17.63
1630932162437,17.35
1630932162453,17.16
1630932162468,17.14
1630932162484,17.36
1630932162500,17.89
1630932162515,18.75
1630932162531,19.86
1630932162546,21.04
1630932162562,22.05
1630932162578,22.67
1630932162593,22.8
1630932162609,22.43
1630932162625,21.62
1630932162640,20.45
1630932162656,18.94
1630932162671,17.03
1630932162687,14.75
1630932162703,12.2
1630932162718,9.55
1630932162734,6.97
1630932162750,4.5
1630932162765,1.97
1630932162781,-0.89
1630932162796,-4.33
1630932162812,-8.33
1630932162828,-12.64
1630932162843,-16.79
1630932162859,-20.34
1630932162875,-23.04
1630932162890,-24.91
1630932162906,-26.24
1630932162921,-27.37
1630932162937,-28.61
1630932162953,-30.12
1630932162968,-31.88
1630932162984,-33.67
1630932163000,-35.13
1630932163015,-35.78
1630932163031,-35.06
1630932163046,-32.54
1630932163062,-27.99
1630932163078,-21.54
1630932163093,-13.6
1630932163109,-4.85
1630932163125,3.97
1630932163140,12.18
1630932163156,19.26
1630932163171,24.87
1630932163187,28.89
1630932163203,31.42
1630932163218,32.75
1630932163234,33.27
1630932163250,33.33
1630932163265,33.11
1630932163281,32.57
1630932163296,31.52
1630932163312,29.77
1630932163328,27.29
1630932163343,24.35
1630932163359,21.38
1630932163375,18.89
1630932163390,17.22
1630932163406,16.41
1630932163421,16.26
1630932163437,16.4
1630932163453,16.44
1630932163468,16.12
1630932163484,15.29
1630932163500,13.91
1630932163515,12.01
1630932163531,9.64
1630932163546,6.88
1630932163562,3.86
1630932163578,0.73
1630932163593,-2.33
1630932163609,-5.15
1630932163625,-7.58
1630932163640,-9.58
1630932163656,-11.16
1630932163671,-12.43
1630932163687,-13.56
1630932163703,-14.75
1630932163718,-16.15
1630932163734,-17.87
1630932163750,-19.91
1630932163765,-22.21
1630932163781,-24.58
1630932163796,-26.7
1630932163812,-28.05
1630932163828,-28.07
1630932163843,-26.22
1630932163859,-22.26
1630932163875,-16.36
1630932163890,-9.13
1630932163906,-1.44
1630932163921,5.85
1630932163937,12.11
1630932163953,17.05
1630932163968,20.67
1630932163984,23.05
1630932164000,24.29
1630932164015,24.4
1630932164031,23.47
1630932164046,21.67
1630932164062,19.31
1630932164078,16.77
1630932164093,14.38
1630932164109,12.35
1630932164125,10.74
1630932164140,9.52
1630932164156,8.61
1630932164171,7.97
1630932164187,7.57
1630932164203,7.41
1630932164218,7.43
1630932164234,7.56
1630932164250,7.65
1630932164265,7.54
1630932164281,7.07
1630932164296,6.14
1630932164312,4.74
1630932164328,2.95
1630932164343,0.91
1630932164359,-1.2
1630932164375,-3.29
1630932164390,-5.31
1630932164406,-7.33
1630932164421,-9.43
1630932164437,-11.61
1630932164453,-13.8
1630932164468,-15.82
1630932164484,-17.52
1630932164500,-18.84
1630932164515,-19.87
1630932164531,-20.85
1630932164546,-22.05
1630932164562,-23.64
1630932164578,-25.58
1630932164593,-27.56
1630932164609,-29.09
1630932164625,-29.57
1630932164640,-28.5
1630932164656,-25.56
1630932164671,-20.73
1630932164687,-14.32
1630932164703,-6.92
1630932164718,0.75
1630932164734,7.93
1630932164750,14.02
1630932164765,18.65
1630932164781,21.69
1630932164796,23.25
1630932164812,23.55
1630932164828,22.85
1630932164843,21.46
1630932164859,19.64
1630932164875,17.68
1630932164890,15.78
1630932164906,14.11
1630932164921,12.71
1630932164937,11.55
1630932164953,10.57
1630932164968,9.72
1630932164984,9.01
1630932165000,8.48
1630932165015,8.15
1630932165031,7.99
1630932165046,7.88
1630932165062,7.68
1630932165078,7.24
1630932165093,6.51
1630932165109,5.45
1630932165125,4.13
1630932165140,2.6
1630932165156,0.96
1630932165171,-0.65
1630932165187,-2.13
1630932165203,-3.35
1630932165218,-4.25
1630932165234,-4.93
1630932165250,-5.5
1630932165265,-6.17
1630932165281,-7.04
1630932165296,-8.14
1630932165312,-9.41
1630932165328,-10.78
1630932165343,-12.2
1630932165359,-13.69
1630932165375,-15.22
1630932165390,-16.72
1630932165406,-18.12
1630932165421,-19.36
1630932165437,-20.5
1630932165453,-21.72
1630932165468,-23.17
1630932165484,-24.9
1630932165500,-26.71
1630932165515,-28.14
1630932165531,-28.6
1630932165546,-27.54
1630932165562,-24.65
1630932165578,-19.98
1630932165593,-13.92
1630932165609,-7.11
1630932165625,-0.23
1630932165640,6.11
1630932165656,11.52
1630932165671,15.79
1630932165687,18.88
1630932165703,20.84
1630932165718,21.71
1630932165734,21.58
1630932165750,20.57
1630932165765,18.88
1630932165781,16.8
1630932165796,14.67
1630932165812,12.77
1630932165828,11.33
1630932165843,10.4
1630932165859,9.93
1630932165875,9.76
1630932165890,9.75
1630932165906,9.79
1630932165921,9.86
1630932165937,9.96
1630932165953,10.02
1630932165968,9.94
1630932165984,9.58
1630932166000,8.84
1630932166015,7.71
1630932166031,6.32
1630932166046,4.84
1630932166062,3.42
1630932166078,2.13
1630932166093,0.96
1630932166109,-0.15
1630932166125,-1.26
1630932166140,-2.39
1630932166156,-3.59
1630932166171,-4.85
1630932166187,-6.17
1630932166203,-7.5
1630932166218,-8.76
1630932166234,-9.84
1630932166250,-10.71
1630932166265,-11.37
1630932166281,-11.9
1630932166296,-12.39
1630932166312,-12.89
1630932166328,-13.44
1630932166343,-14.04
1630932166359,-14.73
1630932166375,-15.53
1630932166390,-16.5
1630932166406,-17.68
1630932166421,-19.11
1630932166437,-20.75
1630932166453,-22.45
1630932166468,-23.89
1630932166484,-24.59
1630932166500,-24.08
1630932166515,-22.03
1630932166531,-18.41
1630932166546,-13.5
1630932166562,-7.86
1630932166578,-2.06
1630932166593,3.42
1630932166609,8.28
1630932166625,12.35
1630932166640,15.5
1630932166656,17.57
1630932166671,18.43
1630932166687,18.12
1630932166703,16.82
1630932166718,14.9
1630932166734,12.76
1630932166750,10.77
1630932166765,9.11
1630932166781,7.88
1630932166796,7.07
1630932166812,6.65
1630932166828,6.57
1630932166843,6.72
1630932166859,7.02
1630932166875,7.36
1630932166890,7.67
1630932166906,7.86
1630932166921,7.88
1630932166937,7.67
1630932166953,7.17
1630932166968,6.4
1630932166984,5.44
1630932167000,4.43
1630932167015,3.47
1630932167031,2.56
1630932167046,1.63
1630932167062,0.57
1630932167078,-0.67
1630932167093,-2.05
1630932167109,-3.4
1630932167125,-4.59
1630932167140,-5.54
1630932167156,-6.31
1630932167171,-7.0
1630932167187,-7.75
1630932167203,-8.63
1630932167218,-9.65
1630932167234,-10.78
1630932167250,-11.94
1630932167265,-12.97
1630932167281,-13.73
1630932167296,-14.05
1630932167312,-13.87
1630932167328,-13.31
1630932167343,-12.6
1630932167359,-12.11
1630932167375,-12.14
1630932167390,-12.82
1630932167406,-14.01
1630932167421,-15.36
1630932167437,-16.32
1630932167453,-16.33
1630932167468,-15.0
1630932167484,-12.17
1630932167500,-8.01
1630932167515,-2.98
1630932167531,2.3
1630932167546,7.24
1630932167562,11.4
1630932167578,14.57
1630932167593,16.74
1630932167609,17.96
1630932167625,18.31
1630932167640,17.85
1630932167656,16.68
1630932167671,14.99
1630932167687,13.1
1630932167703,11.35
1630932167718,9.97
1630932167734,9.0
1630932167750,8.3
1630932167765,7.66
1630932167781,6.97
1630932167796,6.27
1630932167812,5.8
1630932167828,5.78
1630932167843,6.3
1630932167859,7.23
1630932167875,8.23
1630932167890,8.92
1630932167906,9.02
1630932167921,8.4
1630932167937,7.19
1630932167953,5.61
1630932167968,3.88
1630932167984,2.15
1630932168000,0.49
1630932168015,-1.1
1630932168031,-2.63
1630932168046,-4.09
1630932168062,-5.44
1630932168078,-6.62
1630932168093,-7.64
1630932168109,-8.49
1630932168125,-9.21
1630932168140,-9.87
1630932168156,-10.5
1630932168171,-11.14
1630932168187,-11.82
1630932168203,-12.48
1630932168218,-13.05
1630932168234,-13.43
1630932168250,-13.57
1630932168265,-13.52
1630932168281,-13.48
1630932168296,-13.69
1630932168312,-14.42
1630932168328,-15.75
1630932168343,-17.55
1630932168359,-19.44
1630932168375,-20.89
1630932168390,-21.34
1630932168406,-20.37
1630932168421,-17.87
1630932168437,-14.01
1630932168453,-9.25
1630932168468,-4.13
1630932168484,0.81
1630932168500,5.26
1630932168515,9.06
1630932168531,12.17
1630932168546,14.59
1630932168562,16.2
1630932168578,16.86
1630932168593,16.49
1630932168609,15.19
1630932168625,13.26
1630932168640,11.15
1630932168656,9.27
1630932168671,7.83
1630932168687,6.84
1630932168703,6.17
1630932168718,5.69
1630932168734,5.38
1630932168750,5.33
1630932168765,5.62
1630932168781,6.23
1630932168796,6.96
1630932168812,7.55
1630932168828,7.76
1630932168843,7.52
1630932168859,6.93
1630932168875,6.2
1630932168890,5.52
1630932168906,5.02
1630932168921,4.68
1630932168937,4.41
1630932168953,4.06
1630932168968,3.51
1630932168984,2.63
1630932169000,1.38
1630932169015,-0.2
1630932169031,-1.99
1630932169046,-3.87
1630932169062,-5.67
1630932169078,-7.31
1630932169093,-8.76
1630932169109,-10.01
1630932169125,-11.12
1630932169140,-12.13
1630932169156,-13.1
1630932169171,-14.11
1630932169187,-15.23
1630932169203,-16.46
1630932169218,-17.78
1630932169234,-19.13
1630932169250,-20.49
1630932169265,-21.89
1630932169281,-23.39
1630932169296,-25.01
1630932169312,-26.61
1630932169328,-27.8
1630932169343,-28.06
1630932169359,-26.85
1630932169375,-23.86
1630932169390,-19.15
1630932169406,-13.13
1630932169421,-6.44
1630932169437,0.27
1630932169453,6.44
1630932169468,11.71
1630932169484,15.83
1630932169500,18.71
1630932169515,20.33
1630932169531,20.86
1630932169546,20.56
1630932169562,19.84
1630932169578,19.07
1630932169593,18.49
1630932169609,18.19
1630932169625,18.15
1630932169640,18.32
1630932169656,18.73
1630932169671,19.46
1630932169687,20.52
1630932169703,21.82
1630932169718,23.14
1630932169734,24.21
1630932169750,24.83
1630932169765,24.89
1630932169781,24.36
1630932169796,23.15
1630932169812,21.06
1630932169828,17.86
1630932169843,13.42
1630932169859,7.89
1630932169875,1.75
1630932169890,-4.38
1630932169906,-9.88
1630932169921,-14.47
1630932169937,-18.22
1630932169953,-21.44
1630932169968,-24.46
1630932169984,-27.42
1630932170000,-30.2
1630932170015,-32.55
1630932170031,-34.28
1630932170046,-35.39
1630932170062,-36.07
1630932170078,-36.6
1630932170093,-37.17
1630932170109,-37.82
1630932170125,-38.4
1630932170140,-38.75
1630932170156,-38.75
1630932170171,-38.4
1630932170187,-37.7
1630932170203,-36.51
1630932170218,-34.51
1630932170234,-31.15
1630932170250,-25.96
1630932170265,-18.67
1630932170281,-9.44
1630932170296,1.22
1630932170312,12.62
1630932170328,24.12
1630932170343,35.22
1630932170359,45.61
1630932170375,55.02
1630932170390,63.17
1630932170406,69.74
1630932170421,74.45
1630932170437,77.1
1630932170453,77.58
1630932170468,75.76
1630932170484,71.55
1630932170500,64.93
1630932170515,56.12
1630932170531,45.66
1630932170546,34.42
1630932170562,23.39
1630932170578,13.43
1630932170593,5.07
1630932170609,-1.53
1630932170625,-6.48
1630932170640,-10.01
1630932170656,-12.3
1630932170671,-13.52
1630932170687,-13.83
1630932170703,-13.43
1630932170718,-12.59
1630932170734,-11.58
1630932170750,-10.67
1630932170765,-10.07
1630932170781,-9.89
1630932170796,-10.17
1630932170812,-10.9
1630932170828,-12.03
1630932170843,-13.46
1630932170859,-15.1
1630932170875,-16.81
1630932170890,-18.47
1630932170906,-19.96
1630932170921,-21.21
1630932170937,-22.17
1630932170953,-22.77
1630932170968,-23.0
1630932170984,-22.82
1630932171000,-22.26
1630932171015,-21.44
1630932171031,-20.51
1630932171046,-19.63
1630932171062,-18.87
1630932171078,-18.07
1630932171093,-16.94
1630932171109,-15.06
1630932171125,-12.09
1630932171140,-7.93
1630932171156,-2.74
1630932171171,3.07
1630932171187,8.96
1630932171203,14.41
1630932171218,19.02
1630932171234,22.53
1630932171250,24.79
1630932171265,25.79
1630932171281,25.54
1630932171296,24.16
1630932171312,21.8
1630932171328,18.73
1630932171343,15.28
1630932171359,11.89
1630932171375,8.95
1630932171390,6.76
1630932171406,5.44
1630932171421,4.84
1630932171437,4.68
1630932171453,4.61
1630932171468,4.37
1630932171484,3.83
1630932171500,3.03
1630932171515,2.06
1630932171531,0.97
1630932171546,-0.25
1630932171562,-1.68
1630932171578,-3.36
1630932171593,-5.24
1630932171609,-7.12
1630932171625,-8.77
1630932171640,-9.98
1630932171656,-10.74
1630932171671,-11.16
1630932171687,-11.49
1630932171703,-11.94
1630932171718,-12.61
1630932171734,-13.41
1630932171750,-14.22
1630932171765,-14.89
1630932171781,-15.4
1630932171796,-15.79
1630932171812,-16.14
1630932171828,-16.49
1630932171843,-16.86
1630932171859,-17.26
1630932171875,-17.75
1630932171890,-18.44
1630932171906,-19.38
1630932171921,-20.46
1630932171937,-21.32
1630932171953,-21.47
1630932171968,-20.42
1630932171984,-17.89
1630932172000,-13.96
1630932172015,-9.07
1630932172031,-3.85
1630932172046,1.1
1630932172062,5.42
1630932172078,9.0
1630932172093,11.94
1630932172109,14.41
1630932172125,16.45
1630932172140,18.01
1630932172156,18.95
1630932172171,19.12
1630932172187,18.56
1630932172203,17.43
1630932172218,16.0
1630932172234,14.5
1630932172250,13.08
1630932172265,11.77
1630932172281,10.56
1630932172296,9.43
1630932172312,8.43
1630932172328,7.63
1630932172343,7.11
1630932172359,6.91
1630932172375,6.95
1630932172390,7.06
1630932172406,7.0
1630932172421,6.57
1630932172437,5.71
1630932172453,4.5
1630932172468,3.17
1630932172484,1.97
1630932172500,1.07
1630932172515,0.42
1630932172531,-0.16
1630932172546,-0.94
1630932172562,-2.08
1630932172578,-3.55
1630932172593,-5.16
1630932172609,-6.63
1630932172625,-7.76
1630932172640,-8.52
1630932172656,-9.02
1630932172671,-9.47
1630932172687,-10.02
1630932172703,-10.78
1630932172718,-11.78
1630932172734,-13.0
1630932172750,-14.4
1630932172765,-15.88
1630932172781,-17.26
1630932172796,-18.2
1630932172812,-18.32
1630932172828,-17.24
1630932172843,-14.82
1630932172859,-11.17
1630932172875,-6.71
1630932172890,-1.99
1630932172906,2.48
1630932172921,6.38
1630932172937,9.62
1630932172953,12.24
1630932172968,14.31
1630932172984,15.77
1630932173000,16.49
1630932173015,16.35
1630932173031,15.3
1630932173046,13.54
1630932173062,11.38
1630932173078,9.21
1630932173093,7.33
1630932173109,5.94
1630932173125,5.07
1630932173140,4.69
1630932173156,4.71
1630932173171,5.01
1630932173187,5.52
1630932173203,6.14
1630932173218,6.74
1630932173234,7.18
1630932173250,7.34
1630932173265,7.1
1630932173281,6.38
1630932173296,5.24
1630932173312,3.79
1630932173328,2.21
1630932173343,0.7
1630932173359,-0.57
1630932173375,-1.54
1630932173390,-2.25
1630932173406,-2.84
1630932173421,-3.49
1630932173437,-4.38
1630932173453,-5.59
1630932173468,-7.09
1630932173484,-8.77
1630932173500,-10.41
1630932173515,-11.79
1630932173531,-12.76
1630932173546,-13.29
1630932173562,-13.53
1630932173578,-13.71
1630932173593,-14.12
1630932173609,-14.96
1630932173625,-16.29
1630932173640,-17.99
1630932173656,-19.8
1630932173671,-21.33
1630932173687,-22.13
1630932173703,-21.8
1630932173718,-20.06
1630932173734,-16.87
1630932173750,-12.5
1630932173765,-7.5
1630932173781,-2.49
1630932173796,1.95
1630932173812,5.53
1630932173828,8.24
1630932173843,10.3
1630932173859,11.99
1630932173875,13.56
1630932173890,15.17
1630932173906,16.91
1630932173921,18.79
1630932173937,20.79
1630932173953,22.79
1630932173968,24.57
1630932173984,25.83
1630932174000,26.26
1630932174015,25.65
1630932174031,23.9
1630932174046,21.09
1630932174062,17.47
1630932174078,13.43
1630932174093,9.4
1630932174109,5.78
1630932174125,2.84
1630932174140,0.67
1630932174156,-0.83
1630932174171,-1.88
1630932174187,-2.74
1630932174203,-3.58
1630932174218,-4.51
1630932174234,-5.53
1630932174250,-6.59
1630932174265,-7.63
1630932174281,-8.56
1630932174296,-9.34
1630932174312,-9.95
1630932174328,-10.43
1630932174343,-10.83
1630932174359,-11.21
1630932174375,-11.58
1630932174390,-11.91
1630932174406,-12.17
1630932174421,-12.39
1630932174437,-12.66
1630932174453,-13.11
1630932174468,-13.82
1630932174484,-14.8
1630932174500,-15.89
1630932174515,-16.84
1630932174531,-17.37
1630932174546,-17.2
1630932174562,-16.08
1630932174578,-13.83
1630932174593,-10.38
1630932174609,-5.8
1630932174625,-0.36
1630932174640,5.48
1630932174656,11.15
1630932174671,16.11
1630932174687,19.94
1630932174703,22.44
1630932174718,23.66
1630932174734,23.79
1630932174750,23.08
1630932174765,21.77
1630932174781,20.08
1630932174796,18.21
1630932174812,16.38
1630932174828,14.81
1630932174843,13.7
1630932174859,13.06
1630932174875,12.69
1630932174890,12.2
1630932174906,11.16
1630932174921,9.25
1630932174937,6.36
1630932174953,2.58
1630932174968,-1.87
1630932174984,-6.75
1630932175000,-11.83
1630932175015,-16.81
1630932175031,-21.39
1630932175046,-25.18
1630932175062,-27.85
1630932175078,-29.11
1630932175093,-28.79
1630932175109,-26.79
1630932175125,-23.14
1630932175140,-18.09
1630932175156,-12.23
1630932175171,-6.44
1630932175187,-1.72
1630932175203,1.13
1630932175218,1.82
1630932175234,0.65
1630932175250,-1.64
1630932175265,-4.24
1630932175281,-6.56
1630932175296,-8.33
1630932175312,-9.6
1630932175328,-10.53
1630932175343,-11.22
1630932175359,-11.59
1630932175375,-11.48
1630932175390,-10.68
1630932175406,-9.06
1630932175421,-6.63
1630932175437,-3.58
1630932175453,-0.24
1630932175468,3.08
1630932175484,6.24
1630932175500,9.29
1630932175515,12.39
1630932175531,15.65
1630932175546,18.91
1630932175562,21.75
1630932175578,23.6
1630932175593,24.11
1630932175609,23.23
1630932175625,21.39
1630932175640,19.18
1630932175656,17.18
1630932175671,15.72
1630932175687,14.78
1630932175703,14.18
1630932175718,13.66
1630932175734,13.09
1630932175750,12.48
1630932175765,11.94
1630932175781,11.59
1630932175796,11.52
1630932175812,11.68
1630932175828,11.98
1630932175843,12.23
1630932175859,12.29
1630932175875,12.05
1630932175890,11.49
1630932175906,10.64
1630932175921,9.53
1630932175937,8.16
1630932175953,6.45
1630932175968,4.31
1630932175984,1.62
1630932176000,-1.64
1630932176015,-5.36
1630932176031,-9.32
1630932176046,-13.19
1630932176062,-16.71
1630932176078,-19.68
1630932176093,-22.06
1630932176109,-23.83
1630932176125,-24.97
1630932176140,-25.32
1630932176156,-24.63
1630932176171,-22.71
1630932176187,-19.56
1630932176203,-15.44
1630932176218,-10.86
1630932176234,-6.43
1630932176250,-2.64
1630932176265,0.19
1630932176281,1.93
1630932176296,2.54
1630932176312,2.06
1630932176328,0.6
1630932176343,-1.47
1630932176359,-3.46
1630932176375,-4.39
1630932176390,-3.33
1630932176406,0.23
1630932176421,6.06
1630932176437,13.18
1630932176453,20.2
1630932176468,25.77
1630932176484,29.05
1630932176500,29.83
1630932176515,28.46
1630932176531,25.51
1630932176546,21.53
1630932176562,16.88
1630932176578,11.84
1630932176593,6.68
1630932176609,1.78
1630932176625,-2.46
1630932176640,-5.76
1630932176656,-8.08
1630932176671,-9.61
1630932176687,-10.7
1630932176703,-11.68
1630932176718,-12.73
1630932176734,-13.85
1630932176750,-14.93
1630932176765,-15.86
1630932176781,-16.64
1630932176796,-17.41
1630932176812,-18.29
1630932176828,-19.3
1630932176843,-20.23
1630932176859,-20.6
1630932176875,-19.88
1630932176890,-17.66
1630932176906,-13.87
1630932176921,-8.88
1630932176937,-3.35
1630932176953,1.96
1630932176968,6.44
1630932176984,9.78
1630932177000,12.04
1630932177015,13.47
1630932177031,14.34
1630932177046,14.83
1630932177062,14.89
1630932177078,14.41
1630932177093,13.26
1630932177109,11.52
1630932177125,9.46
1630932177140,7.48
1630932177156,5.98
1630932177171,5.16
1630932177187,4.97
1630932177203,5.16
1630932177218,5.42
1630932177234,5.5
1630932177250,5.34
1630932177265,5.0
1630932177281,4.55
1630932177296,4.08
1630932177312,3.6
1630932177328,3.08
1630932177343,2.49
1630932177359,1.8
1630932177375,0.98
1630932177390,-0.01
1630932177406,-1.22
1630932177421,-2.67
1630932177437,-4.28
1630932177453,-5.92
1630932177468,-7.42
1630932177484,-8.64
1630932177500,-9.59
1630932177515,-10.36
1630932177531,-11.17
1630932177546,-12.19
1630932177562,-13.5
1630932177578,-15.07
1630932177593,-16.7
1630932177609,-18.11
1630932177625,-18.95
1630932177640,-18.88
1630932177656,-17.62
1630932177671,-15.05
1630932177687,-11.28
1630932177703,-6.68
1630932177718,-1.78
1630932177734,2.89
1630932177750,6.92
1630932177765,10.17
1630932177781,12.67
1630932177796,14.56
1630932177812,15.87
1630932177828,16.53
1630932177843,16.4
1630932177859,15.41
1630932177875,13.75
1630932177890,11.76
1630932177906,9.91
1630932177921,8.54
1630932177937,7.77
1630932177953,7.45
1630932177968,7.32
1630932177984,7.15
1630932178000,6.88
1630932178015,6.58
1630932178031,6.4
1630932178046,6.39
1630932178062,6.47
1630932178078,6.43
1630932178093,6.04
1630932178109,5.17
1630932178125,3.86
1630932178140,2.31
1630932178156,0.8
1630932178171,-0.47
1630932178187,-1.4
1630932178203,-2.06
1630932178218,-2.63
1630932178234,-3.3
1630932178250,-4.2
1630932178265,-5.37
1630932178281,-6.71
1630932178296,-8.1
1630932178312,-9.4
1630932178328,-10.51
1630932178343,-11.4
1630932178359,-12.08
1630932178375,-12.63
1630932178390,-13.13
1630932178406,-13.73
1630932178421,-14.53
1630932178437,-15.62
1630932178453,-16.96
1630932178468,-18.37
1630932178484,-19.46
1630932178500,-19.77
1630932178515,-18.88
1630932178531,-16.56
1630932178546,-12.93
1630932178562,-8.41
1630932178578,-3.64
1630932178593,0.79
1630932178609,4.51
1630932178625,7.35
1630932178640,9.36
1630932178656,10.67
1630932178671,11.33
1630932178687,11.39
1630932178703,10.91
1630932178718,10.07
1630932178734,9.08
1630932178750,8.2
1630932178765,7.55
1630932178781,7.14
1630932178796,6.85
1630932178812,6.58
1630932178828,6.3
1630932178843,6.1
1630932178859,6.14
1630932178875,6.54
1630932178890,7.33
1630932178906,8.38
1630932178921,9.44
1630932178937,10.22
1630932178953,10.46
1630932178968,10.06
1630932178984,9.12
1630932179000,7.88
1630932179015,6.66
1630932179031,5.7
1630932179046,5.11
1630932179062,4.79
1630932179078,4.52
1630932179093,4.08
1630932179109,3.37
1630932179125,2.43
1630932179140,1.47
1630932179156,0.76
1630932179171,0.46
1630932179187,0.61
1630932179203,1.03
1630932179218,1.4
1630932179234,1.42
1630932179250,0.86
1630932179265,-0.32
1630932179281,-2.01
1630932179296,-3.98
1630932179312,-5.99
1630932179328,-7.77
1630932179343,-9.11
1630932179359,-9.82
1630932179375,-9.87
1630932179390,-9.37
1630932179406,-8.63
1630932179421,-8.02
1630932179437,-7.79
1630932179453,-7.95
1630932179468,-8.19
1630932179484,-8.1
1630932179500,-7.33
1630932179515,-5.82
1630932179531,-3.81
1630932179546,-1.67
1630932179562,0.28
1630932179578,1.87
1630932179593,3.13
1630932179609,4.13
1630932179625,4.95
1630932179640,5.64
1630932179656,6.22
1630932179671,6.8
1630932179687,7.51
1630932179703,8.43
1630932179718,9.55
1630932179734,10.72
1630932179750,11.72
1630932179765,12.33
1630932179781,12.42
1630932179796,11.93
1630932179812,10.89
1630932179828,9.39
1630932179843,7.57
1630932179859,5.59
1630932179875,3.66
1630932179890,1.92
1630932179906,0.45
1630932179921,-0.77
1630932179937,-1.81
1630932179953,-2.81
1630932179968,-3.82
1630932179984,-4.84
1630932180000,-5.74
1630932180015,-6.38
1630932180031,-6.71
1630932180046,-6.79
1630932180062,-6.86
1630932180078,-7.25
1630932180093,-8.21
1630932180109,-9.82
1630932180125,-11.88
1630932180140,-13.97
1630932180156,-15.54
1630932180171,-16.12
1630932180187,-15.44
1630932180203,-13.5
1630932180218,-10.48
1630932180234,-6.74
1630932180250,-2.66
1630932180265,1.4
1630932180281,5.11
1630932180296,8.21
1630932180312,10.54
1630932180328,11.95
1630932180343,12.41
1630932180359,11.99
1630932180375,10.84
1630932180390,9.19
1630932180406,7.32
1630932180421,5.5
1630932180437,3.98
1630932180453,2.94
1630932180468,2.48
1630932180484,2.55
1630932180500,2.99
1630932180515,3.55
1630932180531,3.93
1630932180546,3.92
1630932180562,3.45
1630932180578,2.63
1630932180593,1.68
1630932180609,0.85
1630932180625,0.29
1630932180640,0.02
1630932180656,-0.1
1630932180671,-0.26
1630932180687,-0.6
1630932180703,-1.2
1630932180718,-2.01
1630932180734,-3.0
1630932180750,-4.12
1630932180765,-5.31
1630932180781,-6.53
1630932180796,-7.69
1630932180812,-8.62
1630932180828,-9.18
1630932180843,-9.3
1630932180859,-9.02
1630932180875,-8.56
1630932180890,-8.24
1630932180906,-8.34
1630932180921,-9.09
1630932180937,-10.53
1630932180953,-12.56
1630932180968,-14.94
1630932180984,-17.37
1630932181000,-19.5
1630932181015,-20.97
1630932181031,-21.39
1630932181046,-20.42
1630932181062,-17.91
1630932181078,-13.99
1630932181093,-9.13
1630932181109,-4.02
1630932181125,0.65
1630932181140,4.44
1630932181156,7.24
1630932181171,9.22
1630932181187,10.66
1630932181203,11.76
1630932181218,12.5
1630932181234,12.76
1630932181250,12.42
1630932181265,11.54
1630932181281,10.29
1630932181296,8.95
1630932181312,7.75
1630932181328,6.75
1630932181343,5.94
1630932181359,5.25
1630932181375,4.62
1630932181390,4.07
1630932181406,3.67
1630932181421,3.48
1630932181437,3.51
1630932181453,3.72
1630932181468,3.94
1630932181484,4.04
1630932181500,3.9
1630932181515,3.49
1630932181531,2.88
1630932181546,2.14
1630932181562,1.33
1630932181578,0.46
1630932181593,-0.49
1630932181609,-1.51
1630932181625,-2.51
1630932181640,-3.34
1630932181656,-3.82
1630932181671,-3.88
1630932181687,-3.56
1630932181703,-3.05
1630932181718,-2.6
1630932181734,-2.42
1630932181750,-2.61
1630932181765,-3.14
1630932181781,-3.92
1630932181796,-4.89
1630932181812,-5.99
1630932181828,-7.2
1630932181843,-8.46
1630932181859,-9.64
1630932181875,-10.62
1630932181890,-11.38
1630932181906,-11.98
1630932181921,-12.52
1630932181937,-12.99
1630932181953,-13.16
1630932181968,-12.62
1630932181984,-10.97
1630932182000,-8.05
1630932182015,-4.07
1630932182031,0.4
1630932182046,4.67
1630932182062,8.15
1630932182078,10.58
1630932182093,12.01
1630932182109,12.74
1630932182125,13.07
1630932182140,13.19
1630932182156,13.16
1630932182171,12.92
1630932182187,12.43
1630932182203,11.68
1630932182218,10.79
1630932182234,9.9
1630932182250,9.13
1630932182265,8.53
1630932182281,8.09
1630932182296,7.75
1630932182312,7.52
1630932182328,7.46
1630932182343,7.67
1630932182359,8.17
1630932182375,8.85
1630932182390,9.4
1630932182406,9.49
1630932182421,8.8
1630932182437,7.25
1630932182453,5.05
1630932182468,2.6
1630932182484,0.38
1630932182500,-1.28
1630932182515,-2.29
1630932182531,-2.87
1630932182546,-3.38
1630932182562,-4.12
1630932182578,-5.2
1630932182593,-6.47
1630932182609,-7.64
1630932182625,-8.49
1630932182640,-9.01
1630932182656,-9.43
1630932182671,-10.07
1630932182687,-11.18
1630932182703,-12.73
1630932182718,-14.48
1630932182734,-16.02
1630932182750,-16.97
1630932182765,-17.06
1630932182781,-16.16
1630932182796,-14.24
1630932182812,-11.37
1630932182828,-7.71
1630932182843,-3.53
1630932182859,0.73
1630932182875,4.58
1630932182890,7.55
1630932182906,9.34
1630932182921,9.89
1630932182937,9.36
1630932182953,8.08
1630932182968,6.32
1630932182984,4.3
1630932183000,2.09
1630932183015,-0.29
1630932183031,-2.75
1630932183046,-5.06
1630932183062,-6.83
1630932183078,-7.67
1630932183093,-7.41
1630932183109,-6.22
1630932183125,-4.65
1630932183140,-3.48
1630932183156,-3.48
1630932183171,-5.07
1630932183187,-8.24
1630932183203,-12.53
1630932183218,-17.23
1630932183234,-21.62
1630932183250,-25.3
1630932183265,-28.28
1630932183281,-31.02
1630932183296,-34.19
1630932183312,-38.33
1630932183328,-43.64
1630932183343,-49.81
1630932183359,-56.17
1630932183375,-61.99
1630932183390,-66.85
1630932183406,-70.9
1630932183421,-74.81
1630932183437,-79.48
1630932183453,-85.65
1630932183468,-93.52
1630932183484,-102.71
1630932183500,-112.39
1630932183515,-121.47
1630932183531,-128.62
1630932183546,-132.24
1630932183562,-130.69
1630932183578,-122.85
1630932183593,-108.93
1630932183609,-90.94
1630932183625,-72.36
1630932183640,-56.83
1630932183656,-46.43
1630932183671,-40.54
1630932183687,-36.07
1630932183703,-29.06
1630932183718,-16.76
1630932183734,1.02
1630932183750,21.99
1630932183765,42.85
1630932183781,61.03
1630932183796,75.7
1630932183812,87.48
1630932183828,97.24
1630932183843,104.92
1630932183859,109.41
1630932183875,109.35
1630932183890,104.42
1630932183906,96.08
1630932183921,87.22
1630932183937,80.94
1630932183953,79.05
1630932183968,81.42
1630932183984,86.24
1630932184000,91.08
1630932184015,94.0
1630932184031,94.13
1630932184046,91.44
1630932184062,86.15
1630932184078,78.37
1630932184093,68.13
1630932184109,55.79
1630932184125,42.35
1630932184140,29.32
1630932184156,18.19
1630932184171,9.94
1630932184187,4.77
1630932184203,2.32
1630932184218,1.96
1630932184234,3.06
1630932184250,5.02
1630932184265,7.3
1630932184281,9.44
1630932184296,11.26
1630932184312,12.99
1630932184328,15.12
1630932184343,18.06
1630932184359,21.75
1630932184375,25.57
1630932184390,28.57
1630932184406,29.93
1630932184421,29.38
1630932184437,27.31
1630932184453,24.53
1630932184468,21.86
1630932184484,19.88
1630932184500,18.92
1630932184515,19.1
1630932184531,20.54
1630932184546,23.31
1630932184562,27.33
1630932184578,32.28
1630932184593,37.64
1630932184609,42.84
1630932184625,47.43
1630932184640,51.18
1630932184656,54.15
1630932184671,56.5
1630932184687,58.39
1630932184703,59.75
1630932184718,60.35
1630932184734,59.87
1630932184750,58.15
1630932184765,55.36
1630932184781,52.03
1630932184796,48.75
1630932184812,45.92
1630932184828,43.45
1630932184843,40.68
1630932184859,36.71
1630932184875,30.84
1630932184890,23.05
1630932184906,14.12
1630932184921,5.5
1630932184937,-1.28
1630932184953,-5.11
1630932184968,-5.71
1630932184984,-3.59
1630932185000,0.19
1630932185015,4.38
1630932185031,7.83
1630932185046,9.62
1630932185062,9.14
1630932185078,6.04
1630932185093,0.28
1630932185109,-7.84
1630932185125,-17.54
1630932185140,-27.68
1630932185156,-36.89
1630932185171,-43.94
1630932185187,-48.05
1630932185203,-49.15
1630932185218,-47.88
1630932185234,-45.3
1630932185250,-42.57
1630932185265,-40.52
1630932185281,-39.49
1630932185296,-39.3
1630932185312,-39.5
1630932185328,-39.62
1630932185343,-39.32
1630932185359,-38.45
1630932185375,-37.01
1630932185390,-35.02
1630932185406,-32.56
1630932185421,-29.69
1630932185437,-26.6
1630932185453,-23.48
1630932185468,-20.58
1630932185484,-18.1
1630932185500,-16.11
1630932185515,-14.51
1630932185531,-13.15
1630932185546,-11.81
1630932185562,-10.36
1630932185578,-8.82
1630932185593,-7.31
1630932185609,-5.99
1630932185625,-5.02
1630932185640,-4.38
1630932185656,-4.0
1630932185671,-3.71
1630932185687,-3.37
1630932185703,-2.94
1630932185718,-2.48
1630932185734,-2.14
1630932185750,-2.04
1630932185765,-2.2
1630932185781,-2.53
1630932185796,-2.83
1630932185812,-2.94
1630932185828,-2.79
1630932185843,-2.42
1630932185859,-1.96
1630932185875,-1.61
1630932185890,-1.5
1630932185906,-1.71
1630932185921,-2.23
1630932185937,-2.97
1630932185953,-3.81
1630932185968,-4.59
1630932185984,-5.21
1630932186000,-5.64
1630932186015,-5.91
1630932186031,-6.12
1630932186046,-6.35
1630932186062,-6.65
1630932186078,-7.02
1630932186093,-7.5
1630932186109,-8.14
1630932186125,-9.01
1630932186140,-10.08
1630932186156,-11.18
1630932186171,-11.96
1630932186187,-12.03
1630932186203,-11.1
1630932186218,-9.16
1630932186234,-6.44
1630932186250,-3.37
1630932186265,-0.35
1630932186281,2.31
1630932186296,4.48
1630932186312,6.13
1630932186328,7.27
1630932186343,7.9
1630932186359,8.05
1630932186375,7.76
1630932186390,7.17
1630932186406,6.46
1630932186421,5.85
1630932186437,5.5
1630932186453,5.53
1630932186468,5.99
1630932186484,6.77
1630932186500,7.67
1630932186515,8.42
1630932186531,8.77
1630932186546,8.55
1630932186562,7.8
1630932186578,6.74
1630932186593,5.68
1630932186609,4.93
1630932186625,4.66
1630932186640,4.84
1630932186656,5.29
1630932186671,5.71
1630932186687,5.83
1630932186703,5.46
1630932186718,4.6
1630932186734,3.36
1630932186750,1.96
1630932186765,0.62
1630932186781,-0.5
1630932186796,-1.32
1630932186812,-1.82
1630932186828,-2.05
1630932186843,-2.1
1630932186859,-2.1
1630932186875,-2.22
1630932186890,-2.6
1630932186906,-3.33
1630932186921,-4.38
1630932186937,-5.64
1630932186953,-6.95
1630932186968,-8.15
1630932186984,-9.16
1630932187000,-9.99
1630932187015,-10.73
1630932187031,-11.51
1630932187046,-12.48
1630932187062,-13.74
1630932187078,-15.28
1630932187093,-16.94
1630932187109,-18.3
1630932187125,-18.86
1630932187140,-18.1
1630932187156,-15.78
1630932187171,-12.05
1630932187187,-7.45
1630932187203,-2.73
1630932187218,1.44
1630932187234,4.7
1630932187250,7.0
1630932187265,8.6
1630932187281,9.79
1630932187296,10.78
1630932187312,11.62
1630932187328,12.24
1630932187343,12.53
1630932187359,12.44
1630932187375,12.02
1630932187390,11.35
1630932187406,10.57
1630932187421,9.84
1630932187437,9.3
1630932187453,9.03
1630932187468,8.97
1630932187484,9.02
1630932187500,9.03
1630932187515,8.93
1630932187531,8.74
1630932187546,8.58
1630932187562,8.49
1630932187578,8.48
1630932187593,8.47
1630932187609,8.34
1630932187625,8.03
1630932187640,7.54
1630932187656,6.9
1630932187671,6.06
1630932187687,4.94
1630932187703,3.45
1630932187718,1.6
1630932187734,-0.46
1630932187750,-2.48
1630932187765,-4.25
1630932187781,-5.7
1630932187796,-6.94
1630932187812,-8.15
1630932187828,-9.48
1630932187843,-10.95
1630932187859,-12.47
1630932187875,-13.91
1630932187890,-15.17
1630932187906,-16.24
1630932187921,-17.13
1630932187937,-17.85
1630932187953,-18.39
1630932187968,-18.76
1630932187984,-19.05
1630932188000,-19.42
1630932188015,-20.01
1630932188031,-20.89
1630932188046,-21.95
1630932188062,-22.88
1630932188078,-23.29
1630932188093,-22.84
1630932188109,-21.35
1630932188125,-18.91
1630932188140,-15.77
1630932188156,-12.23
1630932188171,-8.49
1630932188187,-4.61
1630932188203,-0.53
1630932188218,3.8
1630932188234,8.32
1630932188250,12.86
1630932188265,17.16
1630932188281,20.92
1630932188296,23.95
1630932188312,26.06
1630932188328,27.17
1630932188343,27.2
1630932188359,26.18
1630932188375,24.29
1630932188390,21.87
1630932188406,19.41
1630932188421,17.32
1630932188437,15.84
1630932188453,14.95
1630932188468,14.41
1630932188484,13.9
1630932188500,13.15
1630932188515,12.03
1630932188531,10.6
1630932188546,9.03
1630932188562,7.53
1630932188578,6.28
1630932188593,5.39
1630932188609,4.84
1630932188625,4.55
1630932188640,4.35
1630932188656,4.14
1630932188671,3.87
1630932188687,3.55
1630932188703,3.19
1630932188718,2.76
1630932188734,2.15
1630932188750,1.3
1630932188765,0.21
1630932188781,-1.0
1630932188796,-2.1
1630932188812,-2.95
1630932188828,-3.49
1630932188843,-3.85
1630932188859,-4.24
1630932188875,-4.87
1630932188890,-5.8
1630932188906,-6.92
1630932188921,-8.0
1630932188937,-8.82
1630932188953,-9.28
1630932188968,-9.48
1630932188984,-9.66
1630932189000,-10.08
1630932189015,-10.87
1630932189031,-11.96
1630932189046,-13.14
1630932189062,-14.16
1630932189078,-14.83
1630932189093,-15.01
1630932189109,-14.64
1630932189125,-13.64
1630932189140,-11.92
1630932189156,-9.45
1630932189171,-6.29
1630932189187,-2.68
1630932189203,1.07
1630932189218,4.57
1630932189234,7.53
1630932189250,9.77
1630932189265,11.28
1630932189281,12.16
1630932189296,12.61
1630932189312,12.77
1630932189328,12.69
1630932189343,12.33
1630932189359,11.57
1630932189375,10.4
1630932189390,9.02
1630932189406,7.83
1630932189421,7.28
1630932189437,7.61
1630932189453,8.71
1630932189468,10.14
1630932189484,11.29
1630932189500,11.73
1630932189515,11.34
1630932189531,10.33
1630932189546,9.12
1630932189562,8.08
1630932189578,7.37
1630932189593,6.9
1630932189609,6.43
1630932189625,5.76
1630932189640,4.81
1630932189656,3.68
1630932189671,2.54
1630932189687,1.53
1630932189703,0.72
1630932189718,0.02
1630932189734,-0.65
1630932189750,-1.41
1630932189765,-2.28
1630932189781,-3.24
1630932189796,-4.25
1630932189812,-5.27
1630932189828,-6.32
1630932189843,-7.41
1630932189859,-8.58
1630932189875,-9.83
1630932189890,-11.15
1630932189906,-12.55
1630932189921,-13.97
1630932189937,-15.35
1630932189953,-16.55
1630932189968,-17.38
1630932189984,-17.65
1630932190000,-17.18
1630932190015,-15.86
1630932190031,-13.69
1630932190046,-10.76
1630932190062,-7.25
1630932190078,-3.44
1630932190093,0.37
1630932190109,3.9
1630932190125,6.91
1630932190140,9.23
1630932190156,10.8
1630932190171,11.62
1630932190187,11.8
1630932190203,11.47
1630932190218,10.8
1630932190234,9.96
1630932190250,9.04
1630932190265,8.13
1630932190281,7.25
1630932190296,6.44
1630932190312,5.76
1630932190328,5.27
1630932190343,5.04
1630932190359,5.08
1630932190375,5.31
1630932190390,5.64
1630932190406,5.91
1630932190421,6.04
1630932190437,5.99
1630932190453,5.79
1630932190468,5.46
1630932190484,5.0
1630932190500,4.42
1630932190515,3.72
1630932190531,2.96
1630932190546,2.19
1630932190562,1.49
1630932190578,0.88
1630932190593,0.34
1630932190609,-0.18
1630932190625,-0.77
1630932190640,-1.46
1630932190656,-2.29
1630932190671,-3.25
1630932190687,-4.34
1630932190703,-5.53
1630932190718,-6.77
1630932190734,-8.0
1630932190750,-9.15
1630932190765,-10.18
1630932190781,-11.05
1630932190796,-11.79
1630932190812,-12.47
1630932190828,-13.2
1630932190843,-14.09
1630932190859,-15.24
1630932190875,-16.57
1630932190890,-17.88
1630932190906,-18.75
1630932190921,-18.72
1630932190937,-17.45
1630932190953,-14.88
1630932190968,-11.3
1630932190984,-7.2
1630932191000,-3.11
1630932191015,0.57
1630932191031,3.69
1630932191046,6.27
1630932191062,8.38
1630932191078,10.0
1630932191093,11.07
1630932191109,11.52
1630932191125,11.35
1630932191140,10.7
1630932191156,9.8
1630932191171,8.83
1630932191187,7.95
1630932191203,7.17
1630932191218,6.47
1630932191234,5.85
1630932191250,5.3
1630932191265,4.88
1630932191281,4.63
1630932191296,4.57
1630932191312,4.67
1630932191328,4.86
1630932191343,5.09
1630932191359,5.3
1630932191375,5.46
1630932191390,5.58
1630932191406,5.6
1630932191421,5.49
1630932191437,5.18
1630932191453,4.64
1630932191468,3.88
1630932191484,3.0
1630932191500,2.09
1630932191515,1.25
1630932191531,0.52
1630932191546,-0.1
1630932191562,-0.63
1630932191578,-1.09
1630932191593,-1.51
1630932191609,-1.91
1630932191625,-2.36
1630932191640,-2.91
1630932191656,-3.6
1630932191671,-4.39
1630932191687,-5.2
1630932191703,-5.91
1630932191718,-6.44
1630932191734,-6.82
1630932191750,-7.19
1630932191765,-7.75
1630932191781,-8.66
1630932191796,-10.0
1630932191812,-11.61
1630932191828,-13.17
1630932191843,-14.25
1630932191859,-14.44
1630932191875,-13.48
1630932191890,-11.37
1630932191906,-8.39
1630932191921,-4.94
1630932191937,-1.47
1630932191953,1.67
1630932191968,4.3
1630932191984,6.33
1630932192000,7.76
1630932192015,8.57
1630932192031,8.77
1630932192046,8.37
1630932192062,7.4
1630932192078,5.98
1630932192093,4.25
1630932192109,2.4
1630932192125,0.69
1630932192140,-0.6
1630932192156,-1.18
1630932192171,-0.84
1630932192187,0.45
1630932192203,2.46
1630932192218,4.73
1630932192234,6.69
1630932192250,7.89
1630932192265,8.08
1630932192281,7.3
1630932192296,5.78
1630932192312,3.85
1630932192328,1.86
1630932192343,0.13
1630932192359,-1.04
1630932192375,-1.44
1630932192390,-1.01
1630932192406,0.03
1630932192421,1.25
1630932192437,2.14
1630932192453,2.29
1630932192468,1.65
1630932192484,0.49
1630932192500,-0.74
1630932192515,-1.64
1630932192531,-2.02
1630932192546,-1.97
1630932192562,-1.71
1630932192578,-1.48
1630932192593,-1.38
1630932192609,-1.42
1630932192625,-1.57
1630932192640,-1.84
1630932192656,-2.29
1630932192671,-2.97
1630932192687,-3.93
1630932192703,-5.16
1630932192718,-6.64
1630932192734,-8.36
1630932192750,-10.32
1630932192765,-12.46
1630932192781,-14.56
1630932192796,-16.24
1630932192812,-17.05
1630932192828,-16.58
1630932192843,-14.69
1630932192859,-11.51
1630932192875,-7.5
1630932192890,-3.2
1630932192906,0.87
1630932192921,4.39
1630932192937,7.26
1630932192953,9.56
1630932192968,11.37
1630932192984,12.72
1630932193000,13.55
1630932193015,13.74
1630932193031,13.23
1630932193046,12.09
1630932193062,10.51
1630932193078,8.77
1630932193093,7.12
1630932193109,5.75
1630932193125,4.74
1630932193140,4.13
1630932193156,3.96
1630932193171,4.24
1630932193187,4.92
1630932193203,5.82
1630932193218,6.64
1630932193234,7.09
1630932193250,6.94
1630932193265,6.2
1630932193281,5.07
1630932193296,3.85
1630932193312,2.75
1630932193328,1.9
1630932193343,1.26
1630932193359,0.73
1630932193375,0.22
1630932193390,-0.34
1630932193406,-0.99
1630932193421,-1.8
1630932193437,-2.81
1630932193453,-4.01
1630932193468,-5.32
1630932193484,-6.57
1630932193500,-7.62
1630932193515,-8.34
1630932193531,-8.72
1630932193546,-8.86
1630932193562,-8.91
1630932193578,-9.02
1630932193593,-9.32
1630932193609,-9.89
1630932193625,-10.72
1630932193640,-11.74
1630932193656,-12.84
1630932193671,-13.87
1630932193687,-14.71
1630932193703,-15.29
1630932193718,-15.59
1630932193734,-15.53
1630932193750,-15.0
1630932193765,-13.83
1630932193781,-11.91
1630932193796,-9.26
1630932193812,-6.06
1630932193828,-2.64
1630932193843,0.69
1630932193859,3.64
1630932193875,6.08
1630932193890,7.96
1630932193906,9.28
1630932193921,10.0
1630932193937,10.11
1630932193953,9.62
1630932193968,8.62
1630932193984,7.35
1630932194000,6.11
1630932194015,5.2
1630932194031,4.84
1630932194046,5.05
1630932194062,5.71
1630932194078,6.56
1630932194093,7.36
1630932194109,7.92
1630932194125,8.24
1630932194140,8.39
1630932194156,8.47
1630932194171,8.54
1630932194187,8.61
1630932194203,8.59
1630932194218,8.42
1630932194234,8.03
1630932194250,7.37
1630932194265,6.45
1630932194281,5.32
1630932194296,4.11
1630932194312,2.99
1630932194328,2.17
1630932194343,1.81
1630932194359,2.0
1630932194375,2.73
1630932194390,3.85
1630932194406,5.12
1630932194421,6.27
1630932194437,6.97
1630932194453,6.97
1630932194468,6.15
1630932194484,4.52
1630932194500,2.31
1630932194515,-0.15
1630932194531,-2.56
1630932194546,-4.65
1630932194562,-6.35
1630932194578,-7.71
1630932194593,-8.87
1630932194609,-10.02
1630932194625,-11.31
1630932194640,-12.85
1630932194656,-14.68
1630932194671,-16.75
1630932194687,-18.87
1630932194703,-20.78
1630932194718,-22.16
1630932194734,-22.77
1630932194750,-22.49
1630932194765,-21.42
1630932194781,-19.78
1630932194796,-17.8
1630932194812,-15.66
1630932194828,-13.33
1630932194843,-10.73
1630932194859,-7.79
1630932194875,-4.55
1630932194890,-1.21
1630932194906,1.94
1630932194921,4.68
1630932194937,6.94
1630932194953,8.78
1630932194968,10.31
1630932194984,11.57
1630932195000,12.53
1630932195015,13.16
1630932195031,13.49
1630932195046,13.74
1630932195062,14.23
1630932195078,15.23
1630932195093,16.8
1630932195109,18.66
1630932195125,20.29
1630932195140,21.12
1630932195156,20.76
1630932195171,19.14
1630932195187,16.55
1630932195203,13.43
1630932195218,10.23
1630932195234,7.26
1630932195250,4.62
1630932195265,2.35
1630932195281,0.48
1630932195296,-0.92
1630932195312,-1.8
1630932195328,-2.16
1630932195343,-2.15
1630932195359,-2.01
1630932195375,-1.95
1630932195390,-2.06
1630932195406,-2.25
1630932195421,-2.37
1630932195437,-2.29
1630932195453,-2.04
1630932195468,-1.8
1630932195484,-1.78
1630932195500,-2.09
1630932195515,-2.7
1630932195531,-3.49
1630932195546,-4.38
1630932195562,-5.45
1630932195578,-6.87
1630932195593,-8.75
1630932195609,-10.95
1630932195625,-13.03
1630932195640,-14.43
1630932195656,-14.72
1630932195671,-13.84
1630932195687,-12.14
1630932195703,-10.23
1630932195718,-8.66
1630932195734,-7.69
1630932195750,-7.28
1630932195765,-7.15
1630932195781,-7.0
1630932195796,-6.64
1630932195812,-6.05
1630932195828,-5.32
1630932195843,-4.52
1630932195859,-3.71
1630932195875,-2.86
1630932195890,-1.92
1630932195906,-0.84
1630932195921,0.38
1630932195937,1.73
1630932195953,3.1
1630932195968,4.37
1630932195984,5.43
1630932196000,6.23
1630932196015,6.87
1630932196031,7.5
1630932196046,8.33
1630932196062,9.42
1630932196078,10.72
1630932196093,12.01
1630932196109,13.02
1630932196125,13.56
1630932196140,13.6
1630932196156,13.32
1630932196171,12.98
1630932196187,12.79
1630932196203,12.78
1630932196218,12.87
1630932196234,12.83
1630932196250,12.49
1630932196265,11.77
1630932196281,10.67
1630932196296,9.25
1630932196312,7.54
1630932196328,5.49
1630932196343,3.04
1630932196359,0.08
1630932196375,-3.41
1630932196390,-7.33
1630932196406,-11.44
1630932196421,-15.37
1630932196437,-18.69
1630932196453,-20.99
1630932196468,-21.99
1630932196484,-21.62
1630932196500,-20.06
1630932196515,-17.67
1630932196531,-14.92
1630932196546,-12.26
1630932196562,-10.01
1630932196578,-8.38
1630932196593,-7.4
1630932196609,-7.04
1630932196625,-7.17
1630932196640,-7.67
1630932196656,-8.37
1630932196671,-9.09
1630932196687,-9.61
1630932196703,-9.7
1630932196718,-9.17
1630932196734,-7.91
1630932196750,-5.94
1630932196765,-3.42
1630932196781,-0.62
1630932196796,2.15
1630932196812,4.61
1630932196828,6.64
1630932196843,8.24
1630932196859,9.51
1630932196875,10.55
1630932196890,11.36
1630932196906,11.87
1630932196921,11.98
1630932196937,11.61
1630932196953,10.83
1630932196968,9.74
1630932196984,8.53
1630932197000,7.31
1630932197015,6.15
1630932197031,5.07
1630932197046,4.06
1630932197062,3.08
1630932197078,2.1
1630932197093,1.05
1630932197109,-0.07
1630932197125,-1.27
1630932197140,-2.46
1630932197156,-3.5
1630932197171,-4.32
1630932197187,-4.89
1630932197203,-5.3
1630932197218,-5.65
1630932197234,-6.06
1630932197250,-6.56
1630932197265,-7.2
1630932197281,-8.02
1630932197296,-9.12
1630932197312,-10.59
1630932197328,-12.37
1630932197343,-14.16
1630932197359,-15.49
1630932197375,-15.79
1630932197390,-14.66
1630932197406,-12.05
1630932197421,-8.33
1630932197437,-4.15
1630932197453,-0.23
1630932197468,2.95
1630932197484,5.22
1630932197500,6.78
1630932197515,7.89
1630932197531,8.76
1630932197546,9.39
1630932197562,9.65
1630932197578,9.38
1630932197593,8.58
1630932197609,7.46
1630932197625,6.38
1630932197640,5.6
1630932197656,5.23
1630932197671,5.15
1630932197687,5.17
1630932197703,5.11
1630932197718,5.0
1630932197734,5.0
1630932197750,5.27
1630932197765,5.87
1630932197781,6.64
1630932197796,7.3
1630932197812,7.59
1630932197828,7.4
1630932197843,6.79
1630932197859,5.97
1630932197875,5.15
1630932197890,4.46
1630932197906,3.9
1630932197921,3.41
1630932197937,2.89
1630932197953,2.3
1630932197968,1.63
1630932197984,0.87
1630932198000,0.04
1630932198015,-0.86
1630932198031,-1.76
1630932198046,-2.58
1630932198062,-3.23
1630932198078,-3.63
1630932198093,-3.75
1630932198109,-3.66
1630932198125,-3.51
1630932198140,-3.52
1630932198156,-3.91
1630932198171,-4.84
1630932198187,-6.35
1630932198203,-8.32
1630932198218,-10.46
1630932198234,-12.38
1630932198250,-13.68
1630932198265,-14.08
1630932198281,-13.49
1630932198296,-12.05
1630932198312,-10.03
1630932198328,-7.81
1630932198343,-5.79
1630932198359,-4.31
1630932198375,-3.57
1630932198390,-3.6
1630932198406,-4.2
1630932198421,-4.92
1630932198437,-5.25
1630932198453,-4.75
1630932198468,-3.21
1630932198484,-0.78
1630932198500,2.14
1630932198515,5.07
1630932198531,7.64
1630932198546,9.72
1630932198562,11.38
1630932198578,12.77
1630932198593,13.95
1630932198609,14.9
1630932198625,15.55
1630932198640,15.83
1630932198656,15.79
1630932198671,15.48
1630932198687,14.89
1630932198703,13.97
1630932198718,12.65
1630932198734,10.94
1630932198750,9.02
1630932198765,7.23
1630932198781,5.91
1630932198796,5.29
1630932198812,5.37
1630932198828,5.88
1630932198843,6.42
1630932198859,6.61
1630932198875,6.3
1630932198890,5.58
1630932198906,4.73
1630932198921,4.13
1630932198937,4.05
1630932198953,4.6
1630932198968,5.65
1630932198984,6.92
1630932199000,8.03
1630932199015,8.69
1630932199031,8.72
1630932199046,8.17
1630932199062,7.29
1630932199078,6.42
1630932199093,5.9
1630932199109,5.95
1630932199125,6.55
1630932199140,7.52
1630932199156,8.58
1630932199171,9.45
1630932199187,9.98
1630932199203,10.09
1630932199218,9.79
1630932199234,9.06
1630932199250,7.83
1630932199265,6.04
1630932199281,3.63
1630932199296,0.63
1630932199312,-2.87
1630932199328,-6.72
1630932199343,-10.76
1630932199359,-14.86
1630932199375,-18.91
1630932199390,-22.83
1630932199406,-26.54
1630932199421,-29.94
1630932199437,-32.87
1630932199453,-35.22
1630932199468,-36.9
1630932199484,-37.92
1630932199500,-38.35
1630932199515,-38.23
1630932199531,-37.5
1630932199546,-36.1
1630932199562,-34.01
1630932199578,-31.46
1630932199593,-28.94
1630932199609,-27.06
1630932199625,-26.27
1630932199640,-26.61
1630932199656,-27.71
1630932199671,-28.93
1630932199687,-29.8
1630932199703,-30.23
1630932199718,-30.61
1630932199734,-31.37
1630932199750,-32.63
1630932199765,-33.83
1630932199781,-33.88
1630932199796,-31.59
1630932199812,-26.27
1630932199828,-18.1
1630932199843,-8.0
1630932199859,2.67
1630932199875,12.62
1630932199890,20.91
1630932199906,26.93
1630932199921,30.28
1630932199937,30.79
1630932199953,28.6
1630932199968,24.35
1630932199984,19.17
1630932200000,14.33
1630932200015,10.88
1630932200031,9.25
1630932200046,9.25
1630932200062,10.34
1630932200078,12.01
1630932200093,13.99
1630932200109,16.12
1630932200125,18.19
1630932200140,19.83
1630932200156,20.59
1630932200171,20.3
1630932200187,19.23
1630932200203,18.01
1630932200218,17.33
1630932200234,17.47
1630932200250,18.24
1630932200265,19.09
1630932200281,19.52
1630932200296,19.4
1630932200312,19.05
1630932200328,18.95
1630932200343,19.44
1630932200359,20.52
1630932200375,21.85
1630932200390,22.99
1630932200406,23.55
1630932200421,23.33
1630932200437,22.17
1630932200453,19.93
1630932200468,16.47
1630932200484,11.77
1630932200500,6.07
1630932200515,-0.16
1630932200531,-6.45
1630932200546,-12.59
1630932200562,-18.83
1630932200578,-25.57
1630932200593,-32.95
1630932200609,-40.35
1630932200625,-46.35
1630932200640,-49.27
1630932200656,-47.93
1630932200671,-42.38
1630932200687,-34.03
1630932200703,-25.08
1630932200718,-17.52
1630932200734,-12.31
1630932200750,-9.18
1630932200765,-7.01
1630932200781,-4.69
1630932200796,-1.74
1630932200812,1.58
1630932200828,4.66
1630932200843,7.04
1630932200859,8.73
1630932200875,10.07
1630932200890,11.37
1630932200906,12.65
1630932200921,13.59
1630932200937,13.81
1630932200953,13.21
1630932200968,12.12
1630932200984,11.06
1630932201000,10.5
1630932201015,10.5
1630932201031,10.72
1630932201046,10.62
1630932201062,9.78
1630932201078,8.12
1630932201093,5.97
1630932201109,3.88
1630932201125,2.36
1630932201140,1.69
1630932201156,1.81
1630932201171,2.39
1630932201187,2.96
1630932201203,3.15
1630932201218,2.78
1630932201234,1.92
1630932201250,0.8
1630932201265,-0.29
1630932201281,-1.15
1630932201296,-1.67
1630932201312,-1.83
1630932201328,-1.66
1630932201343,-1.22
1630932201359,-0.63
1630932201375,-0.07
1630932201390,0.27
1630932201406,0.27
1630932201421,-0.03
1630932201437,-0.39
1630932201453,-0.45
1630932201468,0.11
1630932201484,1.48
1630932201500,3.64
1630932201515,6.4
1630932201531,9.47
1630932201546,12.53
1630932201562,15.24
1630932201578,17.34
1630932201593,18.61
1630932201609,18.95
1630932201625,18.37
1630932201640,17.05
1630932201656,15.27
1630932201671,13.34
1630932201687,11.55
1630932201703,10.07
1630932201718,8.94
1630932201734,8.09
1630932201750,7.37
1630932201765,6.69
1630932201781,5.97
1630932201796,5.26
1630932201812,4.62
1630932201828,4.12
1630932201843,3.72
1630932201859,3.3
1630932201875,2.7
1630932201890,1.8
1630932201906,0.57
1630932201921,-0.9
1630932201937,-2.44
1630932201953,-3.92
1630932201968,-5.26
1630932201984,-6.55
1630932202000,-7.93
1630932202015,-9.55
1630932202031,-11.46
1630932202046,-13.53
1630932202062,-15.47
1630932202078,-16.85
1630932202093,-17.24
1630932202109,-16.36
1630932202125,-14.14
1630932202140,-10.78
1630932202156,-6.65
1630932202171,-2.18
1630932202187,2.24
1630932202203,6.3
1630932202218,9.82
1630932202234,12.64
1630932202250,14.65
1630932202265,15.79
1630932202281,16.01
1630932202296,15.37
1630932202312,14.02
1630932202328,12.19
1630932202343,10.16
1630932202359,8.19
1630932202375,6.47
1630932202390,5.07
1630932202406,4.02
1630932202421,3.29
1630932202437,2.89
1630932202453,2.79
1630932202468,2.98
1630932202484,3.39
1630932202500,3.85
1630932202515,4.14
1630932202531,4.07
1630932202546,3.47
1630932202562,2.32
1630932202578,0.68
1630932202593,-1.25
1630932202609,-3.26
1630932202625,-5.14
1630932202640,-6.77
1630932202656,-8.13
1630932202671,-9.34
1630932202687,-10.61
1630932202703,-12.1
1630932202718,-13.93
1630932202734,-16.0
1630932202750,-17.99
1630932202765,-19.47
1630932202781,-19.9
1630932202796,-18.89
1630932202812,-16.24
1630932202828,-12.06
1630932202843,-6.77
1630932202859,-0.96
1630932202875,4.74
1630932202890,9.82
1630932202906,13.96
1630932202921,17.07
1630932202937,19.22
1630932202953,20.51
1630932202968,21.02
1630932202984,20.81
1630932203000,19.93
1630932203015,18.5
1630932203031,16.75
1630932203046,14.95
1630932203062,13.36
1630932203078,12.13
1630932203093,11.26
1630932203109,10.62
1630932203125,10.01
1630932203140,9.31
1630932203156,8.49
1630932203171,7.66
1630932203187,6.97
1630932203203,6.5
1630932203218,6.22
1630932203234,5.97
1630932203250,5.56
1630932203265,4.85
1630932203281,3.82
1630932203296,2.56
1630932203312,1.22
1630932203328,-0.06
1630932203343,-1.27
1630932203359,-2.44
1630932203375,-3.61
1630932203390,-4.81
1630932203406,-5.99
1630932203421,-7.08
1630932203437,-8.03
1630932203453,-8.85
1630932203468,-9.64
1630932203484,-10.5
1630932203500,-11.53
1630932203515,-12.78
1630932203531,-14.2
1630932203546,-15.75
1630932203562,-17.32
1630932203578,-18.75
1630932203593,-19.79
1630932203609,-20.12
1630932203625,-19.35
1630932203640,-17.22
1630932203656,-13.68
1630932203671,-8.98
1630932203687,-3.66
1630932203703,1.62
1630932203718,6.3
1630932203734,10.07
1630932203750,12.88
1630932203765,14.85
1630932203781,16.15
1630932203796,16.88
1630932203812,17.09
1630932203828,16.81
1630932203843,16.13
1630932203859,15.19
1630932203875,14.16
1630932203890,13.13
1630932203906,12.15
1630932203921,11.2
1630932203937,10.3
1630932203953,9.5
1630932203968,8.86
1630932203984,8.41
1630932204000,8.12
1630932204015,7.9
1630932204031,7.68
1630932204046,7.42
1630932204062,7.09
1630932204078,6.69
1630932204093,6.21
1630932204109,5.61
1630932204125,4.91
1630932204140,4.19
1630932204156,3.52
1630932204171,2.99
1630932204187,2.57
1630932204203,2.18
1630932204218,1.72
1630932204234,1.14
1630932204250,0.49
1630932204265,-0.18
1630932204281,-0.81
1630932204296,-1.41
1630932204312,-2.01
1630932204328,-2.63
1630932204343,-3.22
1630932204359,-3.73
1630932204375,-4.13
1630932204390,-4.46
1630932204406,-4.82
1630932204421,-5.31
1630932204437,-5.98
1630932204453,-6.77
1630932204468,-7.6
1630932204484,-8.37
1630932204500,-9.05
1630932204515,-9.65
1630932204531,-10.15
1630932204546,-10.56
1630932204562,-10.88
1630932204578,-11.15
1630932204593,-11.51
1630932204609,-12.08
1630932204625,-12.98
1630932204640,-14.2
1630932204656,-15.53
1630932204671,-16.63
1630932204687,-17.1
1630932204703,-16.62
1630932204718,-15.03
1630932204734,-12.45
1630932204750,-9.16
1630932204765,-5.59
1630932204781,-2.12
1630932204796,0.92
1630932204812,3.41
1630932204828,5.31
1630932204843,6.66
1630932204859,7.54
1630932204875,8.04
1630932204890,8.2
1630932204906,8.08
1630932204921,7.73
1630932204937,7.2
1630932204953,6.52
1630932204968,5.79
1630932204984,5.11
1630932205000,4.59
1630932205015,4.28
1630932205031,4.19
1630932205046,4.24
1630932205062,4.31
1630932205078,4.29
1630932205093,4.11
1630932205109,3.78
1630932205125,3.33
1630932205140,2.8
1630932205156,2.25
1630932205171,1.72
1630932205187,1.27
1630932205203,0.96
1630932205218,0.8
1630932205234,0.78
1630932205250,0.85
1630932205265,0.94
1630932205281,0.94
1630932205296,0.79
1630932205312,0.45
1630932205328,-0.04
1630932205343,-0.6
1630932205359,-1.11
1630932205375,-1.46
1630932205390,-1.63
1630932205406,-1.68
1630932205421,-1.72
1630932205437,-1.92
1630932205453,-2.33
1630932205468,-2.95
1630932205484,-3.69
1630932205500,-4.41
1630932205515,-5.06
1630932205531,-5.62
1630932205546,-6.12
1630932205562,-6.61
1630932205578,-7.11
1630932205593,-7.62
1630932205609,-8.12
1630932205625,-8.59
1630932205640,-9.02
1630932205656,-9.42
1630932205671,-9.84
1630932205687,-10.32
1630932205703,-10.92
1630932205718,-11.59
1630932205734,-12.2
1630932205750,-12.54
1630932205765,-12.37
1630932205781,-11.57
1630932205796,-10.12
1630932205812,-8.2
1630932205828,-6.07
1630932205843,-4.02
1630932205859,-2.22
1630932205875,-0.74
1630932205890,0.47
1630932205906,1.48
1630932205921,2.34
1630932205937,3.03
1630932205953,3.49
1630932205968,3.68
1630932205984,3.59
1630932206000,3.33
1630932206015,3.0
1630932206031,2.72
1630932206046,2.53
1630932206062,2.4
1630932206078,2.26
1630932206093,2.09
1630932206109,1.88
1630932206125,1.69
1630932206140,1.57
1630932206156,1.52
1630932206171,1.52
1630932206187,1.51
1630932206203,1.45
1630932206218,1.34
1630932206234,1.16
1630932206250,0.94
1630932206265,0.7
1630932206281,0.47
1630932206296,0.31
1630932206312,0.27
1630932206328,0.38
1630932206343,0.63
1630932206359,0.93
1630932206375,1.21
1630932206390,1.4
1630932206406,1.48
1630932206421,1.46
1630932206437,1.36
1630932206453,1.16
1630932206468,0.85
1630932206484,0.44
1630932206500,0.01
1630932206515,-0.37
1630932206531,-0.6
1630932206546,-0.68
1630932206562,-0.69
1630932206578,-0.78
1630932206593,-1.09
1630932206609,-1.63
1630932206625,-2.29
1630932206640,-2.85
1630932206656,-3.15
1630932206671,-3.1
1630932206687,-2.8
1630932206703,-2.46
1630932206718,-2.36
1630932206734,-2.67
1630932206750,-3.42
1630932206765,-4.49
1630932206781,-5.61
1630932206796,-6.54
1630932206812,-7.08
1630932206828,-7.14
1630932206843,-6.7
1630932206859,-5.8
1630932206875,-4.49
1630932206890,-2.86
1630932206906,-1.06
1630932206921,0.72
1630932206937,2.26
1630932206953,3.38
1630932206968,4.04
1630932206984,4.29
1630932207000,4.29
1630932207015,4.16
1630932207031,3.97
1630932207046,3.72
1630932207062,3.38
1630932207078,2.94
1630932207093,2.46
1630932207109,2.03
1630932207125,1.72
1630932207140,1.56
1630932207156,1.48
1630932207171,1.4
1630932207187,1.29
1630932207203,1.15
1630932207218,1.01
1630932207234,0.93
1630932207250,0.91
1630932207265,0.94
1630932207281,0.96
1630932207296,0.94
1630932207312,0.86
1630932207328,0.75
1630932207343,0.64
1630932207359,0.54
1630932207375,0.45
