timestamp,bvp
1629376330000,-5.03
1629376330015,-5.01
1629376330031,-4.69
1629376330046,-4.27
1629376330062,-3.9
1629376330078,-3.61
1629376330093,-3.31
1629376330109,-2.87
1629376330125,-2.25
1629376330140,-1.55
1629376330156,-0.96
1629376330171,-0.67
1629376330187,-0.72
1629376330203,-0.98
1629376330218,-1.21
1629376330234,-1.21
1629376330250,-0.92
1629376330265,-0.48
1629376330281,-0.09
1629376330296,0.07
1629376330312,-0.02
1629376330328,-0.3
1629376330343,-0.61
1629376330359,-0.9
1629376330375,-1.19
1629376330390,-1.56
1629376330406,-2.06
1629376330421,-2.6
1629376330437,-2.99
1629376330453,-3.03
1629376330468,-2.59
1629376330484,-1.66
1629376330500,-0.39
1629376330515,1.0
1629376330531,2.29
1629376330546,3.31
1629376330562,3.97
1629376330578,4.24
1629376330593,4.2
1629376330609,3.95
1629376330625,3.62
1629376330640,3.32
1629376330656,3.1
1629376330671,2.92
1629376330687,2.76
1629376330703,2.59
1629376330718,2.42
1629376330734,2.31
1629376330750,2.26
1629376330765,2.28
1629376330781,2.31
1629376330796,2.32
1629376330812,2.34
1629376330828,2.44
1629376330843,2.68
1629376330859,3.06
1629376330875,3.46
1629376330890,3.76
1629376330906,3.82
1629376330921,3.63
1629376330937,3.3
1629376330953,2.99
1629376330968,2.85
1629376330984,2.95
1629376331000,3.27
1629376331015,3.67
1629376331031,4.0
1629376331046,4.12
1629376331062,3.96
1629376331078,3.54
1629376331093,2.91
1629376331109,2.18
1629376331125,1.43
1629376331140,0.7
1629376331156,-0.01
1629376331171,-0.73
1629376331187,-1.46
1629376331203,-2.19
1629376331218,-2.87
1629376331234,-3.47
1629376331250,-3.99
1629376331265,-4.43
1629376331281,-4.78
1629376331296,-4.99
1629376331312,-4.98
1629376331328,-4.68
1629376331343,-4.04
1629376331359,-3.13
1629376331375,-2.07
1629376331390,-1.02
1629376331406,-0.09
1629376331421,0.66
1629376331437,1.28
1629376331453,1.85
1629376331468,2.38
1629376331484,2.86
1629376331500,3.18
1629376331515,3.28
1629376331531,3.15
1629376331546,2.84
1629376331562,2.45
1629376331578,2.09
1629376331593,1.85
1629376331609,1.78
1629376331625,1.88
1629376331640,2.14
1629376331656,2.48
1629376331671,2.82
1629376331687,3.05
1629376331703,3.11
1629376331718,2.96
1629376331734,2.63
1629376331750,2.13
1629376331765,1.54
1629376331781,0.94
1629376331796,0.48
1629376331812,0.27
1629376331828,0.37
1629376331843,0.7
1629376331859,1.02
1629376331875,1.1
1629376331890,0.78
1629376331906,0.12
1629376331921,-0.68
1629376331937,-1.34
1629376331953,-1.69
1629376331968,-1.73
1629376331984,-1.63
1629376332000,-1.56
1629376332015,-1.59
1629376332031,-1.73
1629376332046,-1.89
1629376332062,-2.05
1629376332078,-2.27
1629376332093,-2.64
1629376332109,-3.26
1629376332125,-4.13
1629376332140,-5.15
1629376332156,-6.14
1629376332171,-6.89
1629376332187,-7.26
1629376332203,-7.22
1629376332218,-6.84
1629376332234,-6.29
1629376332250,-5.75
1629376332265,-5.31
1629376332281,-4.98
1629376332296,-4.69
1629376332312,-4.36
1629376332328,-4.01
1629376332343,-3.73
1629376332359,-3.66
1629376332375,-3.9
1629376332390,-4.4
1629376332406,-5.01
1629376332421,-5.55
1629376332437,-5.9
1629376332453,-6.05
1629376332468,-6.09
1629376332484,-6.16
1629376332500,-6.32
1629376332515,-6.58
1629376332531,-6.92
1629376332546,-7.27
1629376332562,-7.58
1629376332578,-7.8
1629376332593,-7.96
1629376332609,-8.06
1629376332625,-8.19
1629376332640,-8.4
1629376332656,-8.75
1629376332671,-9.25
1629376332687,-9.83
1629376332703,-10.44
1629376332718,-10.98
1629376332734,-11.38
1629376332750,-11.59
1629376332765,-11.56
1629376332781,-11.27
1629376332796,-10.75
1629376332812,-10.07
1629376332828,-9.3
1629376332843,-8.55
1629376332859,-7.85
1629376332875,-7.15
1629376332890,-6.34
1629376332906,-5.36
1629376332921,-4.17
1629376332937,-2.79
1629376332953,-1.3
1629376332968,0.28
1629376332984,1.91
1629376333000,3.57
1629376333015,5.24
1629376333031,6.81
1629376333046,8.16
1629376333062,9.23
1629376333078,10.04
1629376333093,10.77
1629376333109,11.67
1629376333125,13.02
1629376333140,15.0
1629376333156,17.63
1629376333171,20.74
1629376333187,24.12
1629376333203,27.56
1629376333218,30.96
1629376333234,34.31
1629376333250,37.61
1629376333265,40.85
1629376333281,43.94
1629376333296,46.79
1629376333312,49.28
1629376333328,51.26
1629376333343,52.55
1629376333359,52.94
1629376333375,52.27
1629376333390,50.56
1629376333406,48.06
1629376333421,45.22
1629376333437,42.53
1629376333453,40.36
1629376333468,38.79
1629376333484,37.7
1629376333500,36.83
1629376333515,35.93
1629376333531,34.8
1629376333546,33.28
1629376333562,31.21
1629376333578,28.44
1629376333593,24.94
1629376333609,20.77
1629376333625,16.18
1629376333640,11.45
1629376333656,6.84
1629376333671,2.49
1629376333687,-1.57
1629376333703,-5.34
1629376333718,-8.84
1629376333734,-11.99
1629376333750,-14.71
1629376333765,-16.91
1629376333781,-18.62
1629376333796,-19.99
1629376333812,-21.25
1629376333828,-22.62
1629376333843,-24.22
1629376333859,-25.98
1629376333875,-27.63
1629376333890,-28.82
1629376333906,-29.18
1629376333921,-28.46
1629376333937,-26.58
1629376333953,-23.57
1629376333968,-19.58
1629376333984,-14.81
1629376334000,-9.47
1629376334015,-3.87
1629376334031,1.62
1629376334046,6.45
1629376334062,9.96
1629376334078,11.62
1629376334093,11.24
1629376334109,9.19
1629376334125,6.4
1629376334140,4.09
1629376334156,3.22
1629376334171,4.21
1629376334187,6.69
1629376334203,9.78
1629376334218,12.51
1629376334234,14.22
1629376334250,14.73
1629376334265,14.25
1629376334281,13.12
1629376334296,11.45
1629376334312,9.01
1629376334328,5.29
1629376334343,-0.25
1629376334359,-7.85
1629376334375,-17.21
1629376334390,-27.56
1629376334406,-37.81
1629376334421,-46.81
1629376334437,-53.62
1629376334453,-57.63
1629376334468,-58.55
1629376334484,-56.39
1629376334500,-51.46
1629376334515,-44.34
1629376334531,-35.9
1629376334546,-27.09
1629376334562,-18.73
1629376334578,-11.31
1629376334593,-4.86
1629376334609,0.91
1629376334625,6.36
1629376334640,11.73
1629376334656,17.0
1629376334671,21.99
1629376334687,26.53
1629376334703,30.52
1629376334718,33.98
1629376334734,36.97
1629376334750,39.44
1629376334765,41.22
1629376334781,42.08
1629376334796,41.8
1629376334812,40.34
1629376334828,37.91
1629376334843,34.85
1629376334859,31.45
1629376334875,27.88
1629376334890,24.11
1629376334906,20.02
1629376334921,15.62
1629376334937,11.05
1629376334953,6.65
1629376334968,2.75
1629376334984,-0.42
1629376335000,-2.78
1629376335015,-4.38
1629376335031,-5.25
1629376335046,-5.48
1629376335062,-5.1
1629376335078,-4.21
1629376335093,-3.0
1629376335109,-1.71
1629376335125,-0.58
1629376335140,0.2
1629376335156,0.57
1629376335171,0.6
1629376335187,0.41
1629376335203,0.12
1629376335218,-0.17
1629376335234,-0.43
1629376335250,-0.68
1629376335265,-0.96
1629376335281,-1.26
1629376335296,-1.55
1629376335312,-1.79
1629376335328,-1.93
1629376335343,-2.03
1629376335359,-2.23
1629376335375,-2.74
1629376335390,-3.71
1629376335406,-5.18
1629376335421,-7.01
1629376335437,-8.95
1629376335453,-10.76
1629376335468,-12.27
1629376335484,-13.49
1629376335500,-14.51
1629376335515,-15.46
1629376335531,-16.36
1629376335546,-17.17
1629376335562,-17.76
1629376335578,-18.11
1629376335593,-18.25
1629376335609,-18.34
1629376335625,-18.55
1629376335640,-18.94
1629376335656,-19.46
1629376335671,-19.97
1629376335687,-20.36
1629376335703,-20.59
1629376335718,-20.74
1629376335734,-20.94
1629376335750,-21.27
1629376335765,-21.71
1629376335781,-22.16
1629376335796,-22.51
1629376335812,-22.67
1629376335828,-22.62
1629376335843,-22.31
1629376335859,-21.71
1629376335875,-20.74
1629376335890,-19.37
1629376335906,-17.65
1629376335921,-15.72
1629376335937,-13.77
1629376335953,-11.92
1629376335968,-10.25
1629376335984,-8.74
1629376336000,-7.36
1629376336015,-6.08
1629376336031,-4.93
1629376336046,-3.95
1629376336062,-3.13
1629376336078,-2.43
1629376336093,-1.74
1629376336109,-1.02
1629376336125,-0.3
1629376336140,0.31
1629376336156,0.67
1629376336171,0.68
1629376336187,0.38
1629376336203,-0.09
1629376336218,-0.49
1629376336234,-0.61
1629376336250,-0.39
1629376336265,0.12
1629376336281,0.72
1629376336296,1.25
1629376336312,1.59
1629376336328,1.74
1629376336343,1.74
1629376336359,1.65
1629376336375,1.46
1629376336390,1.19
1629376336406,0.86
1629376336421,0.52
1629376336437,0.23
1629376336453,0.01
1629376336468,-0.2
1629376336484,-0.52
1629376336500,-1.02
1629376336515,-1.67
1629376336531,-2.37
1629376336546,-3.0
1629376336562,-3.46
1629376336578,-3.79
1629376336593,-4.09
1629376336609,-4.47
1629376336625,-4.98
1629376336640,-5.6
1629376336656,-6.24
1629376336671,-6.88
1629376336687,-7.55
1629376336703,-8.34
1629376336718,-9.32
1629376336734,-10.48
1629376336750,-11.66
1629376336765,-12.65
1629376336781,-13.23
1629376336796,-13.27
1629376336812,-12.81
1629376336828,-11.97
1629376336843,-10.92
1629376336859,-9.8
1629376336875,-8.7
1629376336890,-7.62
1629376336906,-6.57
1629376336921,-5.56
1629376336937,-4.65
1629376336953,-3.89
1629376336968,-3.32
1629376336984,-2.91
1629376337000,-2.6
1629376337015,-2.32
1629376337031,-2.03
1629376337046,-1.76
1629376337062,-1.54
1629376337078,-1.42
1629376337093,-1.38
1629376337109,-1.35
1629376337125,-1.21
1629376337140,-0.93
1629376337156,-0.54
1629376337171,-0.15
1629376337187,0.11
1629376337203,0.2
1629376337218,0.22
1629376337234,0.36
1629376337250,0.73
1629376337265,1.31
1629376337281,1.91
1629376337296,2.23
1629376337312,2.05
1629376337328,1.35
1629376337343,0.32
1629376337359,-0.75
1629376337375,-1.63
1629376337390,-2.21
1629376337406,-2.55
1629376337421,-2.73
1629376337437,-2.75
1629376337453,-2.59
1629376337468,-2.18
1629376337484,-1.6
1629376337500,-1.08
1629376337515,-0.94
1629376337531,-1.41
1629376337546,-2.52
1629376337562,-4.03
1629376337578,-5.52
1629376337593,-6.59
1629376337609,-7.08
1629376337625,-7.1
1629376337640,-6.97
1629376337656,-7.04
1629376337671,-7.51
1629376337687,-8.32
1629376337703,-9.2
1629376337718,-9.85
1629376337734,-9.99
1629376337750,-9.53
1629376337765,-8.5
1629376337781,-7.05
1629376337796,-5.33
1629376337812,-3.46
1629376337828,-1.56
1629376337843,0.3
1629376337859,2.0
1629376337875,3.47
1629376337890,4.62
1629376337906,5.41
1629376337921,5.82
1629376337937,5.88
1629376337953,5.65
1629376337968,5.21
1629376337984,4.64
1629376338000,4.02
1629376338015,3.42
1629376338031,2.9
1629376338046,2.49
1629376338062,2.22
1629376338078,2.11
1629376338093,2.14
1629376338109,2.22
1629376338125,2.23
1629376338140,2.03
1629376338156,1.53
1629376338171,0.77
1629376338187,-0.11
1629376338203,-0.87
1629376338218,-1.32
1629376338234,-1.4
1629376338250,-1.22
1629376338265,-0.97
1629376338281,-0.8
1629376338296,-0.82
1629376338312,-1.01
1629376338328,-1.3
1629376338343,-1.63
1629376338359,-1.98
1629376338375,-2.28
1629376338390,-2.47
1629376338406,-2.45
1629376338421,-2.21
1629376338437,-1.8
1629376338453,-1.38
1629376338468,-1.15
1629376338484,-1.25
1629376338500,-1.72
1629376338515,-2.45
1629376338531,-3.27
1629376338546,-3.97
1629376338562,-4.42
1629376338578,-4.55
1629376338593,-4.37
1629376338609,-3.94
1629376338625,-3.32
1629376338640,-2.59
1629376338656,-1.78
1629376338671,-0.97
1629376338687,-0.28
1629376338703,0.19
1629376338718,0.3
1629376338734,0.04
1629376338750,-0.54
1629376338765,-1.24
1629376338781,-1.85
1629376338796,-2.22
1629376338812,-2.32
1629376338828,-2.23
1629376338843,-2.06
1629376338859,-1.91
1629376338875,-1.79
1629376338890,-1.69
1629376338906,-1.59
1629376338921,-1.53
1629376338937,-1.59
1629376338953,-1.78
1629376338968,-2.06
1629376338984,-2.32
1629376339000,-2.44
1629376339015,-2.37
1629376339031,-2.17
1629376339046,-1.97
1629376339062,-1.86
1629376339078,-1.9
1629376339093,-1.99
1629376339109,-2.06
1629376339125,-2.01
1629376339140,-1.87
1629376339156,-1.75
1629376339171,-1.73
1629376339187,-1.88
1629376339203,-2.13
1629376339218,-2.38
1629376339234,-2.49
1629376339250,-2.45
1629376339265,-2.36
1629376339281,-2.37
1629376339296,-2.59
1629376339312,-3.0
1629376339328,-3.44
1629376339343,-3.66
1629376339359,-3.48
1629376339375,-2.84
1629376339390,-1.81
1629376339406,-0.63
1629376339421,0.53
1629376339437,1.53
1629376339453,2.38
1629376339468,3.12
1629376339484,3.77
1629376339500,4.32
1629376339515,4.67
1629376339531,4.71
1629376339546,4.4
1629376339562,3.84
1629376339578,3.19
1629376339593,2.69
1629376339609,2.48
1629376339625,2.6
1629376339640,2.91
1629376339656,3.22
1629376339671,3.37
1629376339687,3.29
1629376339703,3.03
1629376339718,2.71
1629376339734,2.45
1629376339750,2.28
1629376339765,2.17
1629376339781,2.05
1629376339796,1.88
1629376339812,1.67
1629376339828,1.53
1629376339843,1.6
1629376339859,1.97
1629376339875,2.61
1629376339890,3.38
1629376339906,4.1
1629376339921,4.55
1629376339937,4.61
1629376339953,4.29
1629376339968,3.65
1629376339984,2.83
1629376340000,1.94
1629376340015,1.04
1629376340031,0.19
1629376340046,-0.59
1629376340062,-1.21
1629376340078,-1.57
1629376340093,-1.56
1629376340109,-1.11
1629376340125,-0.23
1629376340140,0.91
1629376340156,2.09
1629376340171,3.03
1629376340187,3.57
1629376340203,3.67
1629376340218,3.47
1629376340234,3.17
1629376340250,2.95
1629376340265,2.83
1629376340281,2.73
1629376340296,2.52
1629376340312,2.08
1629376340328,1.41
1629376340343,0.57
1629376340359,-0.31
1629376340375,-1.13
1629376340390,-1.83
1629376340406,-2.4
1629376340421,-2.83
1629376340437,-3.11
1629376340453,-3.27
1629376340468,-3.33
1629376340484,-3.36
1629376340500,-3.4
1629376340515,-3.48
1629376340531,-3.53
1629376340546,-3.5
1629376340562,-3.36
1629376340578,-3.18
1629376340593,-3.08
1629376340609,-3.22
1629376340625,-3.7
1629376340640,-4.56
1629376340656,-5.69
1629376340671,-6.98
1629376340687,-8.28
1629376340703,-9.51
1629376340718,-10.65
1629376340734,-11.7
1629376340750,-12.68
1629376340765,-13.62
1629376340781,-14.49
1629376340796,-15.22
1629376340812,-15.76
1629376340828,-16.03
1629376340843,-16.05
1629376340859,-15.9
1629376340875,-15.7
1629376340890,-15.5
1629376340906,-15.27
1629376340921,-14.87
1629376340937,-14.14
1629376340953,-12.94
1629376340968,-11.31
1629376340984,-9.37
1629376341000,-7.35
1629376341015,-5.46
1629376341031,-3.83
1629376341046,-2.54
1629376341062,-1.58
1629376341078,-0.93
1629376341093,-0.52
1629376341109,-0.23
1629376341125,0.05
1629376341140,0.38
1629376341156,0.81
1629376341171,1.29
1629376341187,1.75
1629376341203,2.17
1629376341218,2.53
1629376341234,2.84
1629376341250,3.11
1629376341265,3.31
1629376341281,3.4
1629376341296,3.43
1629376341312,3.46
1629376341328,3.59
1629376341343,3.88
1629376341359,4.29
1629376341375,4.71
1629376341390,4.97
1629376341406,5.0
1629376341421,4.74
1629376341437,4.21
1629376341453,3.48
1629376341468,2.64
1629376341484,1.82
1629376341500,1.14
1629376341515,0.75
1629376341531,0.7
1629376341546,0.91
1629376341562,1.25
1629376341578,1.51
1629376341593,1.53
1629376341609,1.28
1629376341625,0.79
1629376341640,0.12
1629376341656,-0.65
1629376341671,-1.51
1629376341687,-2.46
1629376341703,-3.46
1629376341718,-4.42
1629376341734,-5.21
1629376341750,-5.74
1629376341765,-6.03
1629376341781,-6.2
1629376341796,-6.48
1629376341812,-7.02
1629376341828,-7.87
1629376341843,-8.87
1629376341859,-9.73
1629376341875,-10.16
1629376341890,-9.97
1629376341906,-9.16
1629376341921,-7.87
1629376341937,-6.27
1629376341953,-4.53
1629376341968,-2.75
1629376341984,-1.01
1629376342000,0.57
1629376342015,1.82
1629376342031,2.59
1629376342046,2.8
1629376342062,2.57
1629376342078,2.12
1629376342093,1.75
1629376342109,1.68
1629376342125,1.99
1629376342140,2.6
1629376342156,3.33
1629376342171,3.99
1629376342187,4.42
1629376342203,4.56
1629376342218,4.47
1629376342234,4.27
1629376342250,4.14
1629376342265,4.22
1629376342281,4.57
1629376342296,5.12
1629376342312,5.68
1629376342328,6.07
1629376342343,6.18
1629376342359,6.03
1629376342375,5.74
1629376342390,5.46
1629376342406,5.27
1629376342421,5.12
1629376342437,4.89
1629376342453,4.49
1629376342468,3.88
1629376342484,3.16
1629376342500,2.48
1629376342515,1.96
1629376342531,1.63
1629376342546,1.42
1629376342562,1.21
1629376342578,0.84
1629376342593,0.29
1629376342609,-0.45
1629376342625,-1.28
1629376342640,-2.12
1629376342656,-2.91
1629376342671,-3.65
1629376342687,-4.33
1629376342703,-4.99
1629376342718,-5.67
1629376342734,-6.44
1629376342750,-7.35
1629376342765,-8.45
1629376342781,-9.68
1629376342796,-10.86
1629376342812,-11.73
1629376342828,-12.02
1629376342843,-11.6
1629376342859,-10.46
1629376342875,-8.77
1629376342890,-6.81
1629376342906,-4.83
1629376342921,-3.07
1629376342937,-1.65
1629376342953,-0.63
1629376342968,0.03
1629376342984,0.43
1629376343000,0.75
1629376343015,1.21
1629376343031,2.0
1629376343046,3.21
1629376343062,4.78
1629376343078,6.49
1629376343093,8.07
1629376343109,9.24
1629376343125,9.88
1629376343140,10.03
1629376343156,9.91
1629376343171,9.79
1629376343187,9.9
1629376343203,10.32
1629376343218,11.0
1629376343234,11.76
1629376343250,12.4
1629376343265,12.77
1629376343281,12.8
1629376343296,12.5
1629376343312,11.97
1629376343328,11.32
1629376343343,10.63
1629376343359,9.98
1629376343375,9.38
1629376343390,8.86
1629376343406,8.38
1629376343421,7.91
1629376343437,7.38
1629376343453,6.75
1629376343468,6.02
1629376343484,5.2
1629376343500,4.36
1629376343515,3.6
1629376343531,3.03
1629376343546,2.69
1629376343562,2.58
1629376343578,2.64
1629376343593,2.81
1629376343609,3.03
1629376343625,3.26
1629376343640,3.44
1629376343656,3.48
1629376343671,3.25
1629376343687,2.61
1629376343703,1.45
1629376343718,-0.18
1629376343734,-2.1
1629376343750,-4.01
1629376343765,-5.59
1629376343781,-6.57
1629376343796,-6.85
1629376343812,-6.46
1629376343828,-5.53
1629376343843,-4.27
1629376343859,-2.87
1629376343875,-1.48
1629376343890,-0.18
1629376343906,0.96
1629376343921,1.96
1629376343937,2.84
1629376343953,3.66
1629376343968,4.48
1629376343984,5.3
1629376344000,6.09
1629376344015,6.79
1629376344031,7.32
1629376344046,7.61
1629376344062,7.62
1629376344078,7.35
1629376344093,6.83
1629376344109,6.16
1629376344125,5.47
1629376344140,4.93
1629376344156,4.69
1629376344171,4.82
1629376344187,5.3
1629376344203,6.03
1629376344218,6.79
1629376344234,7.4
1629376344250,7.71
1629376344265,7.7
1629376344281,7.48
1629376344296,7.22
1629376344312,7.09
1629376344328,7.18
1629376344343,7.45
1629376344359,7.79
1629376344375,8.02
1629376344390,8.04
1629376344406,7.82
1629376344421,7.41
1629376344437,6.91
1629376344453,6.33
1629376344468,5.7
1629376344484,5.01
1629376344500,4.32
1629376344515,3.79
1629376344531,3.67
1629376344546,4.14
1629376344562,5.26
1629376344578,6.83
1629376344593,8.54
1629376344609,10.03
1629376344625,11.02
1629376344640,11.43
1629376344656,11.29
1629376344671,10.64
1629376344687,9.47
1629376344703,7.73
1629376344718,5.41
1629376344734,2.63
1629376344750,-0.28
1629376344765,-2.89
1629376344781,-4.8
1629376344796,-5.77
1629376344812,-5.77
1629376344828,-4.92
1629376344843,-3.5
1629376344859,-1.75
1629376344875,0.06
1629376344890,1.74
1629376344906,3.19
1629376344921,4.32
1629376344937,5.16
1629376344953,5.78
1629376344968,6.33
1629376344984,7.03
1629376345000,8.05
1629376345015,9.45
1629376345031,11.11
1629376345046,12.72
1629376345062,13.9
1629376345078,14.3
1629376345093,13.79
1629376345109,12.44
1629376345125,10.51
1629376345140,8.31
1629376345156,6.09
1629376345171,3.96
1629376345187,1.93
1629376345203,-0.04
1629376345218,-1.99
1629376345234,-3.9
1629376345250,-5.7
1629376345265,-7.31
1629376345281,-8.64
1629376345296,-9.69
1629376345312,-10.51
1629376345328,-11.17
1629376345343,-11.76
1629376345359,-12.28
1629376345375,-12.68
1629376345390,-12.87
1629376345406,-12.78
1629376345421,-12.42
1629376345437,-11.86
1629376345453,-11.2
1629376345468,-10.5
1629376345484,-9.76
1629376345500,-8.98
1629376345515,-8.16
1629376345531,-7.33
1629376345546,-6.56
1629376345562,-5.92
1629376345578,-5.5
1629376345593,-5.34
1629376345609,-5.47
1629376345625,-5.84
1629376345640,-6.37
1629376345656,-7.0
1629376345671,-7.68
1629376345687,-8.44
1629376345703,-9.32
1629376345718,-10.31
1629376345734,-11.26
1629376345750,-11.9
1629376345765,-11.9
1629376345781,-11.05
1629376345796,-9.38
1629376345812,-7.17
1629376345828,-4.83
1629376345843,-2.75
1629376345859,-1.11
1629376345875,0.14
1629376345890,1.21
1629376345906,2.31
1629376345921,3.48
1629376345937,4.63
1629376345953,5.56
1629376345968,6.13
1629376345984,6.34
1629376346000,6.32
1629376346015,6.25
1629376346031,6.25
1629376346046,6.3
1629376346062,6.32
1629376346078,6.2
1629376346093,5.98
1629376346109,5.76
1629376346125,5.71
1629376346140,5.87
1629376346156,6.18
1629376346171,6.44
1629376346187,6.49
1629376346203,6.23
1629376346218,5.75
1629376346234,5.21
1629376346250,4.73
1629376346265,4.36
1629376346281,4.07
1629376346296,3.77
1629376346312,3.39
1629376346328,2.96
1629376346343,2.48
1629376346359,2.0
1629376346375,1.47
1629376346390,0.88
1629376346406,0.15
1629376346421,-0.71
1629376346437,-1.64
1629376346453,-2.57
1629376346468,-3.38
1629376346484,-4.0
1629376346500,-4.42
1629376346515,-4.71
1629376346531,-4.99
1629376346546,-5.39
1629376346562,-6.01
1629376346578,-6.88
1629376346593,-8.0
1629376346609,-9.33
1629376346625,-10.84
1629376346640,-12.45
1629376346656,-14.07
1629376346671,-15.49
1629376346687,-16.48
1629376346703,-16.81
1629376346718,-16.36
1629376346734,-15.17
1629376346750,-13.41
1629376346765,-11.37
1629376346781,-9.3
1629376346796,-7.37
1629376346812,-5.64
1629376346828,-4.12
1629376346843,-2.78
1629376346859,-1.62
1629376346875,-0.68
1629376346890,0.0
1629376346906,0.46
1629376346921,0.78
1629376346937,1.13
1629376346953,1.65
1629376346968,2.37
1629376346984,3.24
1629376347000,4.07
1629376347015,4.69
1629376347031,5.01
1629376347046,5.07
1629376347062,5.02
1629376347078,5.03
1629376347093,5.18
1629376347109,5.42
1629376347125,5.64
1629376347140,5.71
1629376347156,5.61
1629376347171,5.36
1629376347187,5.09
1629376347203,4.91
1629376347218,4.88
1629376347234,4.99
1629376347250,5.21
1629376347265,5.47
1629376347281,5.7
1629376347296,5.84
1629376347312,5.88
1629376347328,5.81
1629376347343,5.67
1629376347359,5.47
1629376347375,5.21
1629376347390,4.84
1629376347406,4.3
1629376347421,3.56
1629376347437,2.66
1629376347453,1.67
1629376347468,0.7
1629376347484,-0.19
1629376347500,-0.96
1629376347515,-1.64
1629376347531,-2.27
1629376347546,-2.89
1629376347562,-3.55
1629376347578,-4.25
1629376347593,-5.03
1629376347609,-5.91
1629376347625,-6.89
1629376347640,-7.91
1629376347656,-8.86
1629376347671,-9.63
1629376347687,-10.08
1629376347703,-10.11
1629376347718,-9.67
1629376347734,-8.75
1629376347750,-7.39
1629376347765,-5.66
1629376347781,-3.67
1629376347796,-1.56
1629376347812,0.54
1629376347828,2.45
1629376347843,4.06
1629376347859,5.29
1629376347875,6.14
1629376347890,6.69
1629376347906,7.03
1629376347921,7.24
1629376347937,7.35
1629376347953,7.36
1629376347968,7.3
1629376347984,7.24
1629376348000,7.33
1629376348015,7.67
1629376348031,8.28
1629376348046,9.07
1629376348062,9.81
1629376348078,10.3
1629376348093,10.42
1629376348109,10.19
1629376348125,9.76
1629376348140,9.27
1629376348156,8.83
1629376348171,8.44
1629376348187,8.04
1629376348203,7.56
1629376348218,6.98
1629376348234,6.29
1629376348250,5.54
1629376348265,4.75
1629376348281,3.99
1629376348296,3.3
1629376348312,2.72
1629376348328,2.29
1629376348343,1.94
1629376348359,1.6
1629376348375,1.13
1629376348390,0.46
1629376348406,-0.37
1629376348421,-1.29
1629376348437,-2.17
1629376348453,-2.93
1629376348468,-3.54
1629376348484,-4.09
1629376348500,-4.61
1629376348515,-5.15
1629376348531,-5.76
1629376348546,-6.47
1629376348562,-7.38
1629376348578,-8.54
1629376348593,-9.94
1629376348609,-11.43
1629376348625,-12.77
1629376348640,-13.64
1629376348656,-13.81
1629376348671,-13.19
1629376348687,-11.81
1629376348703,-9.83
1629376348718,-7.44
1629376348734,-4.87
1629376348750,-2.34
1629376348765,-0.08
1629376348781,1.72
1629376348796,2.95
1629376348812,3.63
1629376348828,3.91
1629376348843,4.05
1629376348859,4.3
1629376348875,4.81
1629376348890,5.56
1629376348906,6.4
1629376348921,7.07
1629376348937,7.37
1629376348953,7.19
1629376348968,6.59
1629376348984,5.76
1629376349000,4.97
1629376349015,4.46
1629376349031,4.36
1629376349046,4.71
1629376349062,5.35
1629376349078,6.08
1629376349093,6.64
1629376349109,6.87
1629376349125,6.65
1629376349140,5.99
1629376349156,4.99
1629376349171,3.82
1629376349187,2.7
1629376349203,1.79
1629376349218,1.24
1629376349234,1.06
1629376349250,1.18
1629376349265,1.45
1629376349281,1.69
1629376349296,1.71
1629376349312,1.38
1629376349328,0.68
1629376349343,-0.38
1629376349359,-1.67
1629376349375,-3.03
1629376349390,-4.31
1629376349406,-5.41
1629376349421,-6.3
1629376349437,-7.02
1629376349453,-7.67
1629376349468,-8.31
1629376349484,-9.03
1629376349500,-9.89
1629376349515,-10.95
1629376349531,-12.27
1629376349546,-13.84
1629376349562,-15.59
1629376349578,-17.32
1629376349593,-18.75
1629376349609,-19.59
1629376349625,-19.64
1629376349640,-18.82
1629376349656,-17.2
1629376349671,-14.99
1629376349687,-12.42
1629376349703,-9.79
1629376349718,-7.31
1629376349734,-5.14
1629376349750,-3.34
1629376349765,-1.88
1629376349781,-0.67
1629376349796,0.41
1629376349812,1.41
1629376349828,2.35
1629376349843,3.21
1629376349859,3.97
1629376349875,4.59
1629376349890,5.12
1629376349906,5.59
1629376349921,6.03
1629376349937,6.45
1629376349953,6.81
1629376349968,7.05
1629376349984,7.15
1629376350000,7.13
1629376350015,7.05
1629376350031,7.01
1629376350046,7.09
1629376350062,7.3
1629376350078,7.55
1629376350093,7.7
1629376350109,7.59
1629376350125,7.14
1629376350140,6.38
1629376350156,5.5
1629376350171,4.69
1629376350187,4.15
1629376350203,3.95
1629376350218,3.99
1629376350234,4.15
1629376350250,4.24
1629376350265,4.15
1629376350281,3.83
1629376350296,3.27
1629376350312,2.47
1629376350328,1.42
1629376350343,0.18
1629376350359,-1.14
1629376350375,-2.39
1629376350390,-3.39
1629376350406,-4.07
1629376350421,-4.52
1629376350437,-4.95
1629376350453,-5.58
1629376350468,-6.59
1629376350484,-7.98
1629376350500,-9.64
1629376350515,-11.41
1629376350531,-13.21
1629376350546,-15.05
1629376350562,-16.92
1629376350578,-18.75
1629376350593,-20.33
1629376350609,-21.37
1629376350625,-21.61
1629376350640,-20.99
1629376350656,-19.73
1629376350671,-18.2
1629376350687,-16.82
1629376350703,-15.92
1629376350718,-15.66
1629376350734,-16.03
1629376350750,-16.88
1629376350765,-18.04
1629376350781,-19.32
1629376350796,-20.63
1629376350812,-22.01
1629376350828,-23.67
1629376350843,-25.93
1629376350859,-29.08
1629376350875,-33.13
1629376350890,-37.78
1629376350906,-42.38
1629376350921,-46.25
1629376350937,-48.91
1629376350953,-50.38
1629376350968,-51.12
1629376350984,-51.84
1629376351000,-53.14
1629376351015,-55.14
1629376351031,-57.43
1629376351046,-59.22
1629376351062,-59.67
1629376351078,-58.25
1629376351093,-55.02
1629376351109,-50.6
1629376351125,-46.05
1629376351140,-42.44
1629376351156,-40.52
1629376351171,-40.42
1629376351187,-41.49
1629376351203,-42.54
1629376351218,-42.15
1629376351234,-39.16
1629376351250,-33.04
1629376351265,-24.02
1629376351281,-13.09
1629376351296,-1.71
1629376351312,8.6
1629376351328,16.64
1629376351343,22.1
1629376351359,25.81
1629376351375,29.64
1629376351390,36.03
1629376351406,47.07
1629376351421,63.47
1629376351437,84.13
1629376351453,106.32
1629376351468,126.72
1629376351484,142.59
1629376351500,152.68
1629376351515,157.3
1629376351531,157.76
1629376351546,155.56
1629376351562,151.78
1629376351578,147.02
1629376351593,141.7
1629376351609,136.22
1629376351625,130.97
1629376351640,126.03
1629376351656,120.88
1629376351671,114.6
1629376351687,106.22
1629376351703,95.31
1629376351718,82.29
1629376351734,68.37
1629376351750,55.08
1629376351765,43.74
1629376351781,35.16
1629376351796,29.57
1629376351812,26.84
1629376351828,26.64
1629376351843,28.57
1629376351859,32.14
1629376351875,36.66
1629376351890,41.33
1629376351906,45.34
1629376351921,48.06
1629376351937,49.21
1629376351953,48.86
1629376351968,47.39
1629376351984,45.3
1629376352000,43.05
1629376352015,40.92
1629376352031,39.03
1629376352046,37.31
1629376352062,35.66
1629376352078,33.96
1629376352093,32.16
1629376352109,30.23
1629376352125,28.14
1629376352140,25.85
1629376352156,23.27
1629376352171,20.33
1629376352187,16.92
1629376352203,12.93
1629376352218,8.19
1629376352234,2.65
1629376352250,-3.51
1629376352265,-9.76
1629376352281,-15.24
1629376352296,-19.03
1629376352312,-20.59
1629376352328,-20.03
1629376352343,-18.19
1629376352359,-16.31
1629376352375,-15.55
1629376352390,-16.59
1629376352406,-19.39
1629376352421,-23.32
1629376352437,-27.45
1629376352453,-30.91
1629376352468,-33.2
1629376352484,-34.44
1629376352500,-35.27
1629376352515,-36.76
1629376352531,-40.01
1629376352546,-45.71
1629376352562,-53.93
1629376352578,-64.01
1629376352593,-74.77
1629376352609,-84.85
1629376352625,-93.07
1629376352640,-98.59
1629376352656,-101.04
1629376352671,-100.53
1629376352687,-97.55
1629376352703,-92.9
1629376352718,-87.4
1629376352734,-81.77
1629376352750,-76.43
1629376352765,-71.53
1629376352781,-67.03
1629376352796,-62.8
1629376352812,-58.71
1629376352828,-54.51
1629376352843,-49.85
1629376352859,-44.34
1629376352875,-37.8
1629376352890,-30.39
1629376352906,-22.66
1629376352921,-15.35
1629376352937,-9.02
1629376352953,-3.91
1629376352968,-0.02
1629376352984,2.71
1629376353000,4.19
1629376353015,4.19
1629376353031,2.51
1629376353046,-0.67
1629376353062,-4.75
1629376353078,-8.83
1629376353093,-11.98
1629376353109,-13.54
1629376353125,-13.22
1629376353140,-11.05
1629376353156,-7.29
1629376353171,-2.35
1629376353187,3.23
1629376353203,8.78
1629376353218,13.58
1629376353234,17.04
1629376353250,18.92
1629376353265,19.39
1629376353281,18.95
1629376353296,18.16
1629376353312,17.34
1629376353328,16.52
1629376353343,15.42
1629376353359,13.73
1629376353375,11.32
1629376353390,8.38
1629376353406,5.36
1629376353421,2.77
1629376353437,0.94
1629376353453,-0.07
1629376353468,-0.52
1629376353484,-0.77
1629376353500,-1.08
1629376353515,-1.52
1629376353531,-2.01
1629376353546,-2.46
1629376353562,-2.83
1629376353578,-3.18
1629376353593,-3.52
1629376353609,-3.77
1629376353625,-3.7
1629376353640,-3.04
1629376353656,-1.69
1629376353671,0.24
1629376353687,2.43
1629376353703,4.5
1629376353718,6.26
1629376353734,7.72
1629376353750,9.03
1629376353765,10.35
1629376353781,11.67
1629376353796,12.79
1629376353812,13.46
1629376353828,13.5
1629376353843,12.88
1629376353859,11.74
1629376353875,10.3
1629376353890,8.66
1629376353906,6.89
1629376353921,4.96
1629376353937,2.94
1629376353953,1.02
1629376353968,-0.49
1629376353984,-1.28
1629376354000,-1.19
1629376354015,-0.28
1629376354031,1.21
1629376354046,2.89
1629376354062,4.45
1629376354078,5.69
1629376354093,6.6
1629376354109,7.26
1629376354125,7.82
1629376354140,8.35
1629376354156,8.86
1629376354171,9.23
1629376354187,9.3
1629376354203,8.92
1629376354218,7.97
1629376354234,6.4
1629376354250,4.24
1629376354265,1.53
1629376354281,-1.6
1629376354296,-4.94
1629376354312,-8.26
1629376354328,-11.25
1629376354343,-13.69
1629376354359,-15.47
1629376354375,-16.67
1629376354390,-17.48
1629376354406,-18.14
1629376354421,-18.8
1629376354437,-19.49
1629376354453,-20.2
1629376354468,-20.92
1629376354484,-21.73
1629376354500,-22.76
1629376354515,-24.11
1629376354531,-25.72
1629376354546,-27.39
1629376354562,-28.79
1629376354578,-29.56
1629376354593,-29.44
1629376354609,-28.32
1629376354625,-26.34
1629376354640,-23.76
1629376354656,-20.89
1629376354671,-18.01
1629376354687,-15.25
1629376354703,-12.64
1629376354718,-10.11
1629376354734,-7.61
1629376354750,-5.17
1629376354765,-2.88
1629376354781,-0.86
1629376354796,0.82
1629376354812,2.2
1629376354828,3.37
1629376354843,4.43
1629376354859,5.48
1629376354875,6.49
1629376354890,7.41
1629376354906,8.09
1629376354921,8.45
1629376354937,8.42
1629376354953,8.04
1629376354968,7.39
1629376354984,6.6
1629376355000,5.82
1629376355015,5.17
1629376355031,4.76
1629376355046,4.62
1629376355062,4.73
1629376355078,4.99
1629376355093,5.19
1629376355109,5.15
1629376355125,4.75
1629376355140,3.99
1629376355156,2.97
1629376355171,1.91
1629376355187,0.97
1629376355203,0.25
1629376355218,-0.25
1629376355234,-0.63
1629376355250,-0.98
1629376355265,-1.37
1629376355281,-1.83
1629376355296,-2.32
1629376355312,-2.77
1629376355328,-3.09
1629376355343,-3.31
1629376355359,-3.53
1629376355375,-3.93
1629376355390,-4.7
1629376355406,-5.87
1629376355421,-7.28
1629376355437,-8.69
1629376355453,-9.85
1629376355468,-10.73
1629376355484,-11.49
1629376355500,-12.41
1629376355515,-13.69
1629376355531,-15.38
1629376355546,-17.27
1629376355562,-19.06
1629376355578,-20.52
1629376355593,-21.47
1629376355609,-21.77
1629376355625,-21.24
1629376355640,-19.65
1629376355656,-16.78
1629376355671,-12.57
1629376355687,-7.26
1629376355703,-1.38
1629376355718,4.37
1629376355734,9.33
1629376355750,13.1
1629376355765,15.69
1629376355781,17.42
1629376355796,18.76
1629376355812,20.06
1629376355828,21.42
1629376355843,22.65
1629376355859,23.43
1629376355875,23.51
1629376355890,22.88
1629376355906,21.74
1629376355921,20.41
1629376355937,19.18
1629376355953,18.17
1629376355968,17.4
1629376355984,16.81
1629376356000,16.36
1629376356015,16.04
1629376356031,15.79
1629376356046,15.48
1629376356062,14.91
1629376356078,13.9
1629376356093,12.37
1629376356109,10.43
1629376356125,8.29
1629376356140,6.21
1629376356156,4.42
1629376356171,3.05
1629376356187,2.12
1629376356203,1.61
1629376356218,1.38
1629376356234,1.29
1629376356250,1.16
1629376356265,0.84
1629376356281,0.26
1629376356296,-0.58
1629376356312,-1.58
1629376356328,-2.63
1629376356343,-3.62
1629376356359,-4.5
1629376356375,-5.23
1629376356390,-5.85
1629376356406,-6.37
1629376356421,-6.85
1629376356437,-7.32
1629376356453,-7.88
1629376356468,-8.63
1629376356484,-9.64
1629376356500,-10.93
1629376356515,-12.39
1629376356531,-13.73
1629376356546,-14.58
1629376356562,-14.61
1629376356578,-13.64
1629376356593,-11.75
1629376356609,-9.28
1629376356625,-6.66
1629376356640,-4.32
1629376356656,-2.51
1629376356671,-1.27
1629376356687,-0.55
1629376356703,-0.19
1629376356718,-0.03
1629376356734,0.11
1629376356750,0.37
1629376356765,0.89
1629376356781,1.68
1629376356796,2.62
1629376356812,3.47
1629376356828,4.03
1629376356843,4.17
1629376356859,3.96
1629376356875,3.6
1629376356890,3.34
1629376356906,3.33
1629376356921,3.63
1629376356937,4.18
1629376356953,4.93
1629376356968,5.8
1629376356984,6.69
1629376357000,7.48
1629376357015,7.97
1629376357031,8.03
1629376357046,7.6
1629376357062,6.81
1629376357078,5.9
1629376357093,5.13
1629376357109,4.7
1629376357125,4.65
1629376357140,4.84
1629376357156,5.06
1629376357171,5.11
1629376357187,4.88
1629376357203,4.35
1629376357218,3.61
1629376357234,2.75
1629376357250,1.87
1629376357265,1.02
1629376357281,0.23
1629376357296,-0.48
1629376357312,-1.15
1629376357328,-1.77
1629376357343,-2.41
1629376357359,-3.11
1629376357375,-3.95
1629376357390,-4.97
1629376357406,-6.19
1629376357421,-7.55
1629376357437,-8.93
1629376357453,-10.21
1629376357468,-11.3
1629376357484,-12.18
1629376357500,-12.85
1629376357515,-13.36
1629376357531,-13.7
1629376357546,-13.78
1629376357562,-13.52
1629376357578,-12.81
1629376357593,-11.63
1629376357609,-10.07
1629376357625,-8.26
1629376357640,-6.37
1629376357656,-4.49
1629376357671,-2.61
1629376357687,-0.68
1629376357703,1.27
1629376357718,3.13
1629376357734,4.72
1629376357750,5.86
1629376357765,6.46
1629376357781,6.59
1629376357796,6.43
1629376357812,6.18
1629376357828,6.02
1629376357843,6.0
1629376357859,6.1
1629376357875,6.25
1629376357890,6.4
1629376357906,6.49
1629376357921,6.54
1629376357937,6.59
1629376357953,6.66
1629376357968,6.78
1629376357984,6.87
1629376358000,6.87
1629376358015,6.71
1629376358031,6.43
1629376358046,6.13
1629376358062,5.93
1629376358078,5.87
1629376358093,5.89
1629376358109,5.84
1629376358125,5.57
1629376358140,5.02
1629376358156,4.27
1629376358171,3.45
1629376358187,2.67
1629376358203,1.95
1629376358218,1.26
1629376358234,0.55
1629376358250,-0.15
1629376358265,-0.79
1629376358281,-1.29
1629376358296,-1.65
1629376358312,-1.91
1629376358328,-2.16
1629376358343,-2.52
1629376358359,-3.06
1629376358375,-3.78
1629376358390,-4.65
1629376358406,-5.58
1629376358421,-6.47
1629376358437,-7.22
1629376358453,-7.81
1629376358468,-8.28
1629376358484,-8.74
1629376358500,-9.34
1629376358515,-10.12
1629376358531,-11.03
1629376358546,-11.86
1629376358562,-12.37
1629376358578,-12.31
1629376358593,-11.53
1629376358609,-10.03
1629376358625,-7.93
1629376358640,-5.47
1629376358656,-2.91
1629376358671,-0.53
1629376358687,1.48
1629376358703,3.0
1629376358718,4.06
1629376358734,4.71
1629376358750,5.07
1629376358765,5.28
1629376358781,5.44
1629376358796,5.64
1629376358812,5.92
1629376358828,6.32
1629376358843,6.81
1629376358859,7.32
1629376358875,7.75
1629376358890,8.02
1629376358906,8.07
1629376358921,7.93
1629376358937,7.69
1629376358953,7.47
1629376358968,7.38
1629376358984,7.42
1629376359000,7.54
1629376359015,7.59
1629376359031,7.44
1629376359046,7.05
1629376359062,6.48
1629376359078,5.89
1629376359093,5.4
1629376359109,5.0
1629376359125,4.58
1629376359140,3.94
1629376359156,2.98
1629376359171,1.75
1629376359187,0.51
1629376359203,-0.46
1629376359218,-1.01
1629376359234,-1.17
1629376359250,-1.19
1629376359265,-1.35
1629376359281,-1.81
1629376359296,-2.53
1629376359312,-3.28
1629376359328,-3.81
1629376359343,-3.99
1629376359359,-3.87
1629376359375,-3.66
1629376359390,-3.6
1629376359406,-3.82
1629376359421,-4.35
1629376359437,-5.11
1629376359453,-6.01
1629376359468,-6.94
1629376359484,-7.84
1629376359500,-8.56
1629376359515,-8.9
1629376359531,-8.66
1629376359546,-7.68
1629376359562,-5.95
1629376359578,-3.66
1629376359593,-1.13
1629376359609,1.33
1629376359625,3.49
1629376359640,5.26
1629376359656,6.68
1629376359671,7.89
1629376359687,9.07
1629376359703,10.39
1629376359718,11.99
1629376359734,13.87
1629376359750,15.87
1629376359765,17.66
1629376359781,18.83
1629376359796,19.0
1629376359812,17.97
1629376359828,15.78
1629376359843,12.74
1629376359859,9.22
1629376359875,5.65
1629376359890,2.35
1629376359906,-0.49
1629376359921,-2.77
1629376359937,-4.5
1629376359953,-5.78
1629376359968,-6.76
1629376359984,-7.59
1629376360000,-8.37
1629376360015,-9.13
1629376360031,-9.78
1629376360046,-10.23
1629376360062,-10.39
1629376360078,-10.24
1629376360093,-9.83
1629376360109,-9.22
1629376360125,-8.51
1629376360140,-7.79
1629376360156,-7.15
1629376360171,-6.7
1629376360187,-6.55
1629376360203,-6.76
1629376360218,-7.29
1629376360234,-8.03
1629376360250,-8.82
1629376360265,-9.52
1629376360281,-10.07
1629376360296,-10.47
1629376360312,-10.8
1629376360328,-11.14
1629376360343,-11.55
1629376360359,-12.08
1629376360375,-12.73
1629376360390,-13.52
1629376360406,-14.48
1629376360421,-15.58
1629376360437,-16.73
1629376360453,-17.72
1629376360468,-18.26
1629376360484,-18.06
1629376360500,-16.94
1629376360515,-14.87
1629376360531,-12.08
1629376360546,-8.95
1629376360562,-5.93
1629376360578,-3.35
1629376360593,-1.39
1629376360609,-0.02
1629376360625,0.96
1629376360640,1.73
1629376360656,2.47
1629376360671,3.22
1629376360687,4.0
1629376360703,4.78
1629376360718,5.59
1629376360734,6.42
1629376360750,7.24
1629376360765,7.94
1629376360781,8.39
1629376360796,8.47
1629376360812,8.18
1629376360828,7.67
1629376360843,7.14
1629376360859,6.81
1629376360875,6.77
1629376360890,6.98
1629376360906,7.25
1629376360921,7.37
1629376360937,7.16
1629376360953,6.56
1629376360968,5.66
1629376360984,4.62
1629376361000,3.66
1629376361015,2.97
1629376361031,2.65
1629376361046,2.68
1629376361062,2.9
1629376361078,3.08
1629376361093,3.04
1629376361109,2.67
1629376361125,1.99
1629376361140,1.15
1629376361156,0.33
1629376361171,-0.33
1629376361187,-0.81
1629376361203,-1.18
1629376361218,-1.59
1629376361234,-2.14
1629376361250,-2.87
1629376361265,-3.73
1629376361281,-4.61
1629376361296,-5.38
1629376361312,-6.01
1629376361328,-6.53
1629376361343,-7.07
1629376361359,-7.82
1629376361375,-8.96
1629376361390,-10.55
1629376361406,-12.52
1629376361421,-14.61
1629376361437,-16.42
1629376361453,-17.56
1629376361468,-17.75
1629376361484,-16.91
1629376361500,-15.15
1629376361515,-12.76
1629376361531,-10.02
1629376361546,-7.2
1629376361562,-4.46
1629376361578,-1.92
1629376361593,0.35
1629376361609,2.34
1629376361625,4.06
1629376361640,5.55
1629376361656,6.88
1629376361671,8.09
1629376361687,9.19
1629376361703,10.14
1629376361718,10.87
1629376361734,11.35
1629376361750,11.6
1629376361765,11.69
1629376361781,11.69
1629376361796,11.71
1629376361812,11.79
1629376361828,11.96
1629376361843,12.24
1629376361859,12.64
1629376361875,13.08
1629376361890,13.47
1629376361906,13.64
1629376361921,13.46
1629376361937,12.89
1629376361953,12.0
1629376361968,10.95
1629376361984,9.9
1629376362000,8.94
1629376362015,8.08
1629376362031,7.29
1629376362046,6.57
1629376362062,5.99
1629376362078,5.65
1629376362093,5.54
1629376362109,5.53
1629376362125,5.32
1629376362140,4.65
1629376362156,3.44
1629376362171,1.84
1629376362187,0.21
1629376362203,-1.08
1629376362218,-1.88
1629376362234,-2.28
1629376362250,-2.64
1629376362265,-3.32
1629376362281,-4.54
1629376362296,-6.29
1629376362312,-8.37
1629376362328,-10.57
1629376362343,-12.76
1629376362359,-14.96
1629376362375,-17.23
1629376362390,-19.55
1629376362406,-21.72
1629376362421,-23.34
1629376362437,-24.0
1629376362453,-23.46
1629376362468,-21.7
1629376362484,-19.0
1629376362500,-15.75
1629376362515,-12.32
1629376362531,-8.99
1629376362546,-5.94
1629376362562,-3.21
1629376362578,-0.84
1629376362593,1.18
1629376362609,2.89
1629376362625,4.33
1629376362640,5.53
1629376362656,6.55
1629376362671,7.43
1629376362687,8.2
1629376362703,8.89
1629376362718,9.49
1629376362734,9.98
1629376362750,10.34
1629376362765,10.6
1629376362781,10.78
1629376362796,10.97
1629376362812,11.2
1629376362828,11.47
1629376362843,11.72
1629376362859,11.89
1629376362875,11.92
1629376362890,11.8
1629376362906,11.56
1629376362921,11.18
1629376362937,10.66
1629376362953,9.99
1629376362968,9.22
1629376362984,8.44
1629376363000,7.77
1629376363015,7.24
1629376363031,6.82
1629376363046,6.39
1629376363062,5.83
1629376363078,5.11
1629376363093,4.31
1629376363109,3.5
1629376363125,2.75
1629376363140,2.0
1629376363156,1.11
1629376363171,-0.06
1629376363187,-1.55
1629376363203,-3.27
1629376363218,-5.0
1629376363234,-6.54
1629376363250,-7.8
1629376363265,-8.88
1629376363281,-9.99
1629376363296,-11.35
1629376363312,-13.08
1629376363328,-15.12
1629376363343,-17.26
1629376363359,-19.19
1629376363375,-20.57
1629376363390,-21.14
1629376363406,-20.73
1629376363421,-19.31
1629376363437,-16.97
1629376363453,-13.94
1629376363468,-10.48
1629376363484,-6.92
1629376363500,-3.55
1629376363515,-0.6
1629376363531,1.8
1629376363546,3.6
1629376363562,4.9
1629376363578,5.87
1629376363593,6.68
1629376363609,7.43
1629376363625,8.1
1629376363640,8.62
1629376363656,8.88
1629376363671,8.94
1629376363687,8.9
1629376363703,8.96
1629376363718,9.22
1629376363734,9.68
1629376363750,10.22
1629376363765,10.68
1629376363781,10.94
1629376363796,10.99
1629376363812,10.89
1629376363828,10.76
1629376363843,10.64
1629376363859,10.56
1629376363875,10.46
1629376363890,10.28
1629376363906,9.99
1629376363921,9.61
1629376363937,9.2
1629376363953,8.86
1629376363968,8.69
1629376363984,8.69
1629376364000,8.73
1629376364015,8.67
1629376364031,8.38
1629376364046,7.86
1629376364062,7.25
1629376364078,6.71
1629376364093,6.35
1629376364109,6.1
1629376364125,5.77
1629376364140,5.15
1629376364156,4.11
1629376364171,2.7
1629376364187,1.1
1629376364203,-0.44
1629376364218,-1.75
1629376364234,-2.79
1629376364250,-3.67
1629376364265,-4.59
1629376364281,-5.74
1629376364296,-7.27
1629376364312,-9.19
1629376364328,-11.4
1629376364343,-13.69
1629376364359,-15.82
1629376364375,-17.56
1629376364390,-18.73
1629376364406,-19.16
1629376364421,-18.75
1629376364437,-17.44
1629376364453,-15.27
1629376364468,-12.4
1629376364484,-9.13
1629376364500,-5.83
1629376364515,-2.81
1629376364531,-0.23
1629376364546,1.85
1629376364562,3.56
1629376364578,5.0
1629376364593,6.28
1629376364609,7.45
1629376364625,8.51
1629376364640,9.45
1629376364656,10.26
1629376364671,10.92
1629376364687,11.41
1629376364703,11.71
1629376364718,11.82
1629376364734,11.77
1629376364750,11.63
1629376364765,11.5
1629376364781,11.49
1629376364796,11.69
1629376364812,12.16
1629376364828,12.85
1629376364843,13.64
1629376364859,14.33
1629376364875,14.68
1629376364890,14.53
1629376364906,13.87
1629376364921,12.85
1629376364937,11.73
1629376364953,10.78
1629376364968,10.16
1629376364984,9.86
1629376365000,9.8
1629376365015,9.85
1629376365031,9.89
1629376365046,9.86
1629376365062,9.69
1629376365078,9.3
1629376365093,8.59
1629376365109,7.51
1629376365125,6.08
1629376365140,4.46
1629376365156,2.91
1629376365171,1.68
1629376365187,0.89
1629376365203,0.52
1629376365218,0.37
1629376365234,0.19
1629376365250,-0.2
1629376365265,-0.92
1629376365281,-1.94
1629376365296,-3.17
1629376365312,-4.54
1629376365328,-5.98
1629376365343,-7.5
1629376365359,-9.03
1629376365375,-10.48
1629376365390,-11.69
1629376365406,-12.43
1629376365421,-12.54
1629376365437,-11.91
1629376365453,-10.54
1629376365468,-8.57
1629376365484,-6.26
1629376365500,-3.91
1629376365515,-1.78
1629376365531,0.01
1629376365546,1.53
1629376365562,2.91
1629376365578,4.26
1629376365593,5.59
1629376365609,6.76
1629376365625,7.62
1629376365640,8.12
1629376365656,8.34
1629376365671,8.45
1629376365687,8.61
1629376365703,8.87
1629376365718,9.16
1629376365734,9.35
1629376365750,9.35
1629376365765,9.18
1629376365781,8.96
1629376365796,8.8
1629376365812,8.78
1629376365828,8.87
1629376365843,8.96
1629376365859,8.94
1629376365875,8.71
1629376365890,8.23
1629376365906,7.56
1629376365921,6.83
1629376365937,6.17
1629376365953,5.65
1629376365968,5.23
1629376365984,4.83
1629376366000,4.3
1629376366015,3.57
1629376366031,2.67
1629376366046,1.71
1629376366062,0.85
1629376366078,0.18
1629376366093,-0.31
1629376366109,-0.73
1629376366125,-1.29
1629376366140,-2.13
1629376366156,-3.29
1629376366171,-4.65
1629376366187,-5.96
1629376366203,-7.01
1629376366218,-7.69
1629376366234,-8.08
1629376366250,-8.41
1629376366265,-8.88
1629376366281,-9.61
1629376366296,-10.53
1629376366312,-11.51
1629376366328,-12.42
1629376366343,-13.21
1629376366359,-13.91
1629376366375,-14.49
1629376366390,-14.84
1629376366406,-14.74
1629376366421,-13.95
1629376366437,-12.37
1629376366453,-10.07
1629376366468,-7.33
1629376366484,-4.49
1629376366500,-1.87
1629376366515,0.37
1629376366531,2.2
1629376366546,3.67
1629376366562,4.85
1629376366578,5.81
1629376366593,6.59
1629376366609,7.24
1629376366625,7.85
1629376366640,8.43
1629376366656,8.95
1629376366671,9.32
1629376366687,9.43
1629376366703,9.27
1629376366718,8.93
1629376366734,8.62
1629376366750,8.52
1629376366765,8.73
1629376366781,9.18
1629376366796,9.67
1629376366812,9.99
1629376366828,10.04
1629376366843,9.77
1629376366859,9.26
1629376366875,8.56
1629376366890,7.75
1629376366906,6.89
1629376366921,6.04
1629376366937,5.33
1629376366953,4.82
1629376366968,4.5
1629376366984,4.22
1629376367000,3.82
1629376367015,3.14
1629376367031,2.18
1629376367046,1.08
1629376367062,0.04
1629376367078,-0.77
1629376367093,-1.33
1629376367109,-1.75
1629376367125,-2.2
1629376367140,-2.84
1629376367156,-3.73
1629376367171,-4.81
1629376367187,-5.95
1629376367203,-7.0
1629376367218,-7.87
1629376367234,-8.6
1629376367250,-9.33
1629376367265,-10.24
1629376367281,-11.49
1629376367296,-13.1
1629376367312,-14.91
1629376367328,-16.63
1629376367343,-17.87
1629376367359,-18.34
1629376367375,-17.93
1629376367390,-16.73
1629376367406,-14.93
1629376367421,-12.75
1629376367437,-10.33
1629376367453,-7.78
1629376367468,-5.2
1629376367484,-2.78
1629376367500,-0.72
1629376367515,0.83
1629376367531,1.86
1629376367546,2.49
1629376367562,2.94
1629376367578,3.39
1629376367593,3.94
1629376367609,4.52
1629376367625,5.04
1629376367640,5.41
1629376367656,5.62
1629376367671,5.67
1629376367687,5.62
1629376367703,5.51
1629376367718,5.39
1629376367734,5.32
1629376367750,5.37
1629376367765,5.57
1629376367781,5.87
1629376367796,6.18
1629376367812,6.38
1629376367828,6.36
1629376367843,6.11
1629376367859,5.67
1629376367875,5.1
1629376367890,4.46
1629376367906,3.77
1629376367921,3.03
1629376367937,2.28
1629376367953,1.56
1629376367968,0.93
1629376367984,0.47
1629376368000,0.18
1629376368015,0.01
1629376368031,-0.15
1629376368046,-0.43
1629376368062,-0.95
1629376368078,-1.79
1629376368093,-2.91
1629376368109,-4.22
1629376368125,-5.58
1629376368140,-6.83
1629376368156,-7.87
1629376368171,-8.68
1629376368187,-9.29
1629376368203,-9.83
1629376368218,-10.4
1629376368234,-11.18
1629376368250,-12.25
1629376368265,-13.61
1629376368281,-15.19
1629376368296,-16.76
1629376368312,-18.06
1629376368328,-18.77
1629376368343,-18.66
1629376368359,-17.58
1629376368375,-15.56
1629376368390,-12.79
1629376368406,-9.6
1629376368421,-6.39
1629376368437,-3.51
1629376368453,-1.2
1629376368468,0.47
1629376368484,1.57
1629376368500,2.3
1629376368515,2.85
1629376368531,3.39
1629376368546,4.04
1629376368562,4.82
1629376368578,5.71
1629376368593,6.62
1629376368609,7.4
1629376368625,7.92
1629376368640,8.1
1629376368656,7.96
1629376368671,7.6
1629376368687,7.16
1629376368703,6.77
1629376368718,6.52
1629376368734,6.45
1629376368750,6.55
1629376368765,6.77
1629376368781,7.04
1629376368796,7.26
1629376368812,7.29
1629376368828,7.0
1629376368843,6.34
1629376368859,5.31
1629376368875,4.07
1629376368890,2.8
1629376368906,1.69
1629376368921,0.87
1629376368937,0.33
1629376368953,0.04
1629376368968,-0.1
1629376368984,-0.18
1629376369000,-0.3
1629376369015,-0.57
1629376369031,-1.11
1629376369046,-1.96
1629376369062,-3.12
1629376369078,-4.47
1629376369093,-5.87
1629376369109,-7.19
1629376369125,-8.36
1629376369140,-9.4
1629376369156,-10.37
1629376369171,-11.31
1629376369187,-12.26
1629376369203,-13.23
1629376369218,-14.19
1629376369234,-15.11
1629376369250,-15.88
1629376369265,-16.32
1629376369281,-16.22
1629376369296,-15.4
1629376369312,-13.83
1629376369328,-11.61
1629376369343,-8.96
1629376369359,-6.16
1629376369375,-3.46
1629376369390,-1.0
1629376369406,1.15
1629376369421,2.95
1629376369437,4.41
1629376369453,5.53
1629376369468,6.31
1629376369484,6.79
1629376369500,7.03
1629376369515,7.14
1629376369531,7.25
1629376369546,7.49
1629376369562,7.93
1629376369578,8.55
1629376369593,9.28
1629376369609,9.99
1629376369625,10.58
1629376369640,10.95
1629376369656,11.1
1629376369671,11.06
1629376369687,10.93
1629376369703,10.72
1629376369718,10.46
1629376369734,10.1
1629376369750,9.62
1629376369765,9.0
1629376369781,8.27
1629376369796,7.44
1629376369812,6.51
1629376369828,5.46
1629376369843,4.27
1629376369859,2.94
1629376369875,1.54
1629376369890,0.14
1629376369906,-1.17
1629376369921,-2.35
1629376369937,-3.39
1629376369953,-4.33
1629376369968,-5.19
1629376369984,-6.0
1629376370000,-6.8
1629376370015,-7.65
1629376370031,-8.63
1629376370046,-9.77
1629376370062,-11.04
1629376370078,-12.38
1629376370093,-13.75
1629376370109,-15.14
1629376370125,-16.6
1629376370140,-18.12
1629376370156,-19.54
1629376370171,-20.53
1629376370187,-20.71
1629376370203,-19.81
1629376370218,-17.82
1629376370234,-15.02
1629376370250,-11.87
1629376370265,-8.8
1629376370281,-6.09
1629376370296,-3.79
1629376370312,-1.81
1629376370328,-0.06
1629376370343,1.53
1629376370359,2.93
1629376370375,4.07
1629376370390,4.94
1629376370406,5.58
1629376370421,6.08
1629376370437,6.56
1629376370453,7.08
1629376370468,7.63
1629376370484,8.13
1629376370500,8.5
1629376370515,8.7
1629376370531,8.79
1629376370546,8.92
1629376370562,9.24
1629376370578,9.81
1629376370593,10.52
1629376370609,11.18
1629376370625,11.57
1629376370640,11.55
1629376370656,11.16
1629376370671,10.51
1629376370687,9.78
1629376370703,9.06
1629376370718,8.39
1629376370734,7.77
1629376370750,7.14
1629376370765,6.51
1629376370781,5.88
1629376370796,5.29
1629376370812,4.78
1629376370828,4.33
1629376370843,3.93
1629376370859,3.49
1629376370875,2.97
1629376370890,2.28
1629376370906,1.38
1629376370921,0.27
1629376370937,-1.04
1629376370953,-2.45
1629376370968,-3.9
1629376370984,-5.28
1629376371000,-6.57
1629376371015,-7.76
1629376371031,-8.88
1629376371046,-10.0
1629376371062,-11.19
1629376371078,-12.56
1629376371093,-14.15
1629376371109,-15.99
1629376371125,-18.01
1629376371140,-20.06
1629376371156,-21.91
1629376371171,-23.29
1629376371187,-23.93
1629376371203,-23.62
1629376371218,-22.29
1629376371234,-20.03
1629376371250,-17.1
1629376371265,-13.87
1629376371281,-10.67
1629376371296,-7.73
1629376371312,-5.12
1629376371328,-2.78
1629376371343,-0.56
1629376371359,1.6
1629376371375,3.7
1629376371390,5.64
1629376371406,7.29
1629376371421,8.58
1629376371437,9.48
1629376371453,10.05
1629376371468,10.39
1629376371484,10.6
1629376371500,10.78
1629376371515,11.02
1629376371531,11.39
1629376371546,11.92
1629376371562,12.58
1629376371578,13.3
1629376371593,13.99
1629376371609,14.56
1629376371625,14.92
1629376371640,15.02
1629376371656,14.83
1629376371671,14.34
1629376371687,13.63
1629376371703,12.77
1629376371718,11.93
1629376371734,11.24
1629376371750,10.81
1629376371765,10.68
1629376371781,10.72
1629376371796,10.74
1629376371812,10.52
1629376371828,9.89
1629376371843,8.86
1629376371859,7.56
1629376371875,6.23
1629376371890,5.07
1629376371906,4.18
1629376371921,3.53
1629376371937,3.0
1629376371953,2.51
1629376371968,2.0
1629376371984,1.45
1629376372000,0.8
1629376372015,-0.03
1629376372031,-1.16
1629376372046,-2.61
1629376372062,-4.27
1629376372078,-5.93
1629376372093,-7.34
1629376372109,-8.37
1629376372125,-9.09
1629376372140,-9.73
1629376372156,-10.61
1629376372171,-11.93
1629376372187,-13.69
1629376372203,-15.66
1629376372218,-17.45
1629376372234,-18.66
1629376372250,-18.97
1629376372265,-18.24
1629376372281,-16.49
1629376372296,-13.84
1629376372312,-10.55
1629376372328,-6.9
1629376372343,-3.25
1629376372359,0.06
1629376372375,2.76
1629376372390,4.74
1629376372406,6.08
1629376372421,7.0
1629376372437,7.76
1629376372453,8.56
1629376372468,9.44
1629376372484,10.35
1629376372500,11.17
1629376372515,11.8
1629376372531,12.21
1629376372546,12.43
1629376372562,12.51
1629376372578,12.52
1629376372593,12.51
1629376372609,12.5
1629376372625,12.46
1629376372640,12.38
1629376372656,12.25
1629376372671,12.07
1629376372687,11.93
1629376372703,11.86
1629376372718,11.88
1629376372734,11.88
1629376372750,11.71
1629376372765,11.22
1629376372781,10.38
1629376372796,9.3
1629376372812,8.19
1629376372828,7.22
1629376372843,6.45
1629376372859,5.74
1629376372875,4.87
1629376372890,3.69
1629376372906,2.2
1629376372921,0.6
1629376372937,-0.8
1629376372953,-1.77
1629376372968,-2.23
1629376372984,-2.24
1629376373000,-1.94
1629376373015,-1.46
1629376373031,-0.88
1629376373046,-0.22
1629376373062,0.47
1629376373078,1.13
1629376373093,1.6
1629376373109,1.71
1629376373125,1.27
1629376373140,0.15
1629376373156,-1.75
1629376373171,-4.4
1629376373187,-7.65
1629376373203,-11.2
1629376373218,-14.61
1629376373234,-17.43
1629376373250,-19.28
1629376373265,-19.97
1629376373281,-19.49
1629376373296,-18.05
1629376373312,-15.97
1629376373328,-13.57
1629376373343,-11.12
1629376373359,-8.75
1629376373375,-6.52
1629376373390,-4.39
1629376373406,-2.35
1629376373421,-0.4
1629376373437,1.42
1629376373453,3.07
1629376373468,4.53
1629376373484,5.78
1629376373500,6.84
1629376373515,7.71
1629376373531,8.36
1629376373546,8.8
1629376373562,9.01
1629376373578,9.04
1629376373593,9.0
1629376373609,9.0
1629376373625,9.12
1629376373640,9.39
1629376373656,9.78
1629376373671,10.19
1629376373687,10.53
1629376373703,10.72
1629376373718,10.74
1629376373734,10.56
1629376373750,10.18
1629376373765,9.63
1629376373781,8.93
1629376373796,8.19
1629376373812,7.5
1629376373828,6.99
1629376373843,6.74
1629376373859,6.72
1629376373875,6.85
1629376373890,6.97
1629376373906,6.93
1629376373921,6.61
1629376373937,5.98
1629376373953,5.05
1629376373968,3.92
1629376373984,2.7
1629376374000,1.53
1629376374015,0.45
1629376374031,-0.53
1629376374046,-1.48
1629376374062,-2.5
1629376374078,-3.61
1629376374093,-4.77
1629376374109,-5.88
1629376374125,-6.86
1629376374140,-7.76
1629376374156,-8.71
1629376374171,-9.88
1629376374187,-11.39
1629376374203,-13.19
1629376374218,-15.11
1629376374234,-16.93
1629376374250,-18.47
1629376374265,-19.61
1629376374281,-20.33
1629376374296,-20.56
1629376374312,-20.25
1629376374328,-19.29
1629376374343,-17.69
1629376374359,-15.53
1629376374375,-13.02
1629376374390,-10.39
1629376374406,-7.85
1629376374421,-5.5
1629376374437,-3.35
1629376374453,-1.38
1629376374468,0.45
1629376374484,2.15
1629376374500,3.71
1629376374515,5.05
1629376374531,6.05
1629376374546,6.62
1629376374562,6.73
1629376374578,6.44
1629376374593,5.92
1629376374609,5.36
1629376374625,4.91
1629376374640,4.6
1629376374656,4.43
1629376374671,4.36
1629376374687,4.37
1629376374703,4.54
1629376374718,4.9
1629376374734,5.44
1629376374750,6.04
1629376374765,6.55
1629376374781,6.8
1629376374796,6.75
1629376374812,6.45
1629376374828,6.03
1629376374843,5.63
1629376374859,5.3
1629376374875,5.03
1629376374890,4.75
1629376374906,4.36
1629376374921,3.79
1629376374937,3.05
1629376374953,2.21
1629376374968,1.43
1629376374984,0.83
1629376375000,0.47
1629376375015,0.29
1629376375031,0.1
1629376375046,-0.28
1629376375062,-0.99
1629376375078,-1.98
1629376375093,-3.1
1629376375109,-4.12
1629376375125,-4.88
1629376375140,-5.36
1629376375156,-5.7
1629376375171,-6.08
1629376375187,-6.67
1629376375203,-7.52
1629376375218,-8.55
1629376375234,-9.59
1629376375250,-10.42
1629376375265,-10.83
1629376375281,-10.73
1629376375296,-10.1
1629376375312,-9.03
1629376375328,-7.6
1629376375343,-5.94
1629376375359,-4.11
1629376375375,-2.15
1629376375390,-0.12
1629376375406,1.87
1629376375421,3.7
1629376375437,5.22
1629376375453,6.38
1629376375468,7.19
1629376375484,7.71
1629376375500,8.04
1629376375515,8.15
1629376375531,8.06
1629376375546,7.75
1629376375562,7.26
1629376375578,6.71
1629376375593,6.25
1629376375609,5.99
1629376375625,5.94
1629376375640,6.02
1629376375656,6.03
1629376375671,5.8
1629376375687,5.24
1629376375703,4.39
1629376375718,3.43
1629376375734,2.61
1629376375750,2.14
1629376375765,2.1
1629376375781,2.39
1629376375796,2.78
1629376375812,3.01
1629376375828,2.92
1629376375843,2.47
1629376375859,1.74
1629376375875,0.85
1629376375890,-0.09
1629376375906,-1.07
1629376375921,-2.1
1629376375937,-3.16
1629376375953,-4.2
1629376375968,-5.14
1629376375984,-5.93
1629376376000,-6.55
1629376376015,-7.06
1629376376031,-7.54
1629376376046,-8.09
1629376376062,-8.74
1629376376078,-9.55
1629376376093,-10.58
1629376376109,-11.88
1629376376125,-13.42
1629376376140,-15.01
1629376376156,-16.4
1629376376171,-17.23
1629376376187,-17.26
1629376376203,-16.42
1629376376218,-14.81
1629376376234,-12.63
1629376376250,-10.11
1629376376265,-7.44
1629376376281,-4.75
1629376376296,-2.15
1629376376312,0.21
1629376376328,2.2
1629376376343,3.71
1629376376359,4.73
1629376376375,5.34
1629376376390,5.66
1629376376406,5.86
1629376376421,6.04
1629376376437,6.3
1629376376453,6.65
1629376376468,7.06
1629376376484,7.45
1629376376500,7.73
1629376376515,7.84
1629376376531,7.76
1629376376546,7.55
1629376376562,7.33
1629376376578,7.18
1629376376593,7.11
1629376376609,7.05
1629376376625,6.9
1629376376640,6.56
1629376376656,6.0
1629376376671,5.28
1629376376687,4.51
1629376376703,3.79
1629376376718,3.21
1629376376734,2.78
1629376376750,2.46
1629376376765,2.14
1629376376781,1.71
1629376376796,1.06
1629376376812,0.17
1629376376828,-0.87
1629376376843,-1.93
1629376376859,-2.86
1629376376875,-3.6
1629376376890,-4.24
1629376376906,-4.93
1629376376921,-5.87
1629376376937,-7.1
1629376376953,-8.49
1629376376968,-9.81
1629376376984,-10.86
1629376377000,-11.57
1629376377015,-12.09
1629376377031,-12.7
1629376377046,-13.6
1629376377062,-14.82
1629376377078,-16.14
1629376377093,-17.2
1629376377109,-17.62
1629376377125,-17.2
1629376377140,-15.9
1629376377156,-13.88
1629376377171,-11.4
1629376377187,-8.68
1629376377203,-5.9
1629376377218,-3.17
1629376377234,-0.61
1629376377250,1.69
1629376377265,3.6
1629376377281,5.05
1629376377296,6.06
1629376377312,6.68
1629376377328,7.03
1629376377343,7.26
1629376377359,7.45
1629376377375,7.64
1629376377390,7.81
1629376377406,7.9
1629376377421,7.85
1629376377437,7.66
1629376377453,7.34
1629376377468,7.0
1629376377484,6.72
1629376377500,6.58
1629376377515,6.57
1629376377531,6.59
1629376377546,6.57
1629376377562,6.47
1629376377578,6.33
1629376377593,6.2
1629376377609,6.11
1629376377625,5.99
1629376377640,5.7
1629376377656,5.12
1629376377671,4.21
1629376377687,3.1
1629376377703,1.97
1629376377718,1.02
1629376377734,0.35
1629376377750,-0.01
1629376377765,-0.11
1629376377781,-0.02
1629376377796,0.19
1629376377812,0.44
1629376377828,0.62
1629376377843,0.62
1629376377859,0.38
1629376377875,-0.1
1629376377890,-0.73
1629376377906,-1.42
1629376377921,-2.16
1629376377937,-2.99
1629376377953,-4.03
1629376377968,-5.4
1629376377984,-7.12
1629376378000,-9.08
1629376378015,-11.04
1629376378031,-12.72
1629376378046,-13.84
1629376378062,-14.24
1629376378078,-13.83
1629376378093,-12.68
1629376378109,-10.89
1629376378125,-8.6
1629376378140,-5.94
1629376378156,-3.08
1629376378171,-0.21
1629376378187,2.41
1629376378203,4.46
1629376378218,5.73
1629376378234,6.16
1629376378250,5.88
1629376378265,5.16
1629376378281,4.35
1629376378296,3.71
1629376378312,3.38
1629376378328,3.42
1629376378343,3.8
1629376378359,4.43
1629376378375,5.18
1629376378390,5.88
1629376378406,6.38
1629376378421,6.59
1629376378437,6.52
1629376378453,6.28
1629376378468,6.0
1629376378484,5.76
1629376378500,5.54
1629376378515,5.26
1629376378531,4.84
1629376378546,4.29
1629376378562,3.66
1629376378578,3.03
1629376378593,2.46
1629376378609,1.9
1629376378625,1.31
1629376378640,0.6
1629376378656,-0.24
1629376378671,-1.15
1629376378687,-2.03
1629376378703,-2.79
1629376378718,-3.4
1629376378734,-3.9
1629376378750,-4.43
1629376378765,-5.07
1629376378781,-5.9
1629376378796,-6.93
1629376378812,-8.14
1629376378828,-9.53
1629376378843,-11.09
1629376378859,-12.83
1629376378875,-14.65
1629376378890,-16.4
1629376378906,-17.82
1629376378921,-18.68
1629376378937,-18.78
1629376378953,-18.05
1629376378968,-16.48
1629376378984,-14.21
1629376379000,-11.47
1629376379015,-8.55
1629376379031,-5.78
1629376379046,-3.37
1629376379062,-1.41
1629376379078,0.21
1629376379093,1.71
1629376379109,3.24
1629376379125,4.86
1629376379140,6.42
1629376379156,7.69
1629376379171,8.45
1629376379187,8.67
1629376379203,8.45
1629376379218,8.04
1629376379234,7.68
1629376379250,7.53
1629376379265,7.64
1629376379281,7.92
1629376379296,8.26
1629376379312,8.56
1629376379328,8.78
1629376379343,8.93
1629376379359,8.99
1629376379375,8.89
1629376379390,8.54
1629376379406,7.83
1629376379421,6.75
1629376379437,5.42
1629376379453,4.01
1629376379468,2.77
1629376379484,1.81
1629376379500,1.13
1629376379515,0.6
1629376379531,0.05
1629376379546,-0.67
1629376379562,-1.58
1629376379578,-2.69
1629376379593,-3.94
1629376379609,-5.29
1629376379625,-6.69
1629376379640,-8.1
1629376379656,-9.49
1629376379671,-10.82
1629376379687,-12.11
1629376379703,-13.43
1629376379718,-14.86
1629376379734,-16.44
1629376379750,-18.13
1629376379765,-19.75
1629376379781,-21.07
1629376379796,-21.78
1629376379812,-21.65
1629376379828,-20.58
1629376379843,-18.57
1629376379859,-15.75
1629376379875,-12.32
1629376379890,-8.55
1629376379906,-4.73
1629376379921,-1.16
1629376379937,1.96
1629376379953,4.48
1629376379968,6.39
1629376379984,7.81
1629376380000,8.86
1629376380015,9.67
1629376380031,10.3
1629376380046,10.77
1629376380062,11.08
1629376380078,11.29
1629376380093,11.47
1629376380109,11.69
1629376380125,11.94
1629376380140,12.15
1629376380156,12.15
1629376380171,11.85
1629376380187,11.24
1629376380203,10.45
1629376380218,9.68
1629376380234,9.09
1629376380250,8.72
1629376380265,8.47
1629376380281,8.17
1629376380296,7.68
1629376380312,6.97
1629376380328,6.1
1629376380343,5.22
1629376380359,4.47
1629376380375,3.87
1629376380390,3.33
1629376380406,2.68
1629376380421,1.77
1629376380437,0.51
1629376380453,-1.08
1629376380468,-2.9
1629376380484,-4.8
1629376380500,-6.64
1629376380515,-8.32
1629376380531,-9.72
1629376380546,-10.78
1629376380562,-11.44
1629376380578,-11.71
1629376380593,-11.68
1629376380609,-11.54
1629376380625,-11.52
1629376380640,-11.78
1629376380656,-12.37
1629376380671,-13.14
1629376380687,-13.77
1629376380703,-13.88
1629376380718,-13.15
1629376380734,-11.49
1629376380750,-9.01
1629376380765,-6.02
1629376380781,-2.91
1629376380796,-0.0
1629376380812,2.55
1629376380828,4.73
1629376380843,6.61
1629376380859,8.28
1629376380875,9.75
1629376380890,10.98
1629376380906,11.88
1629376380921,12.44
1629376380937,12.74
1629376380953,12.96
1629376380968,13.25
1629376380984,13.68
1629376381000,14.17
1629376381015,14.58
1629376381031,14.77
1629376381046,14.74
1629376381062,14.58
1629376381078,14.48
1629376381093,14.54
1629376381109,14.74
1629376381125,14.95
1629376381140,14.98
1629376381156,14.69
1629376381171,14.08
1629376381187,13.23
1629376381203,12.25
1629376381218,11.26
1629376381234,10.29
1629376381250,9.32
1629376381265,8.32
1629376381281,7.23
1629376381296,5.99
1629376381312,4.63
1629376381328,3.19
1629376381343,1.74
1629376381359,0.36
1629376381375,-0.93
1629376381390,-2.15
1629376381406,-3.39
1629376381421,-4.69
1629376381437,-6.06
1629376381453,-7.42
1629376381468,-8.64
1629376381484,-9.7
1629376381500,-10.69
1629376381515,-11.81
1629376381531,-13.33
1629376381546,-15.41
1629376381562,-17.97
1629376381578,-20.68
1629376381593,-23.03
1629376381609,-24.46
1629376381625,-24.58
1629376381640,-23.24
1629376381656,-20.63
1629376381671,-17.15
1629376381687,-13.26
1629376381703,-9.34
1629376381718,-5.67
1629376381734,-2.36
1629376381750,0.55
1629376381765,3.05
1629376381781,5.14
1629376381796,6.84
1629376381812,8.15
1629376381828,9.11
1629376381843,9.77
1629376381859,10.2
1629376381875,10.49
1629376381890,10.71
1629376381906,10.95
1629376381921,11.24
1629376381937,11.59
1629376381953,11.94
1629376381968,12.27
1629376381984,12.51
1629376382000,12.63
1629376382015,12.63
1629376382031,12.46
1629376382046,12.11
1629376382062,11.54
1629376382078,10.78
1629376382093,9.88
1629376382109,8.95
1629376382125,8.05
1629376382140,7.22
1629376382156,6.42
1629376382171,5.59
1629376382187,4.71
1629376382203,3.75
1629376382218,2.74
1629376382234,1.68
1629376382250,0.61
1629376382265,-0.48
1629376382281,-1.54
1629376382296,-2.53
1629376382312,-3.42
1629376382328,-4.18
1629376382343,-4.88
1629376382359,-5.61
1629376382375,-6.49
1629376382390,-7.6
1629376382406,-8.95
1629376382421,-10.54
1629376382437,-12.32
1629376382453,-14.22
1629376382468,-16.13
1629376382484,-17.85
1629376382500,-19.08
1629376382515,-19.51
1629376382531,-18.9
1629376382546,-17.23
1629376382562,-14.65
1629376382578,-11.52
1629376382593,-8.23
1629376382609,-5.12
1629376382625,-2.34
1629376382640,0.16
1629376382656,2.51
1629376382671,4.86
1629376382687,7.24
1629376382703,9.5
1629376382718,11.42
1629376382734,12.81
1629376382750,13.59
1629376382765,13.86
1629376382781,13.82
1629376382796,13.66
1629376382812,13.51
1629376382828,13.4
1629376382843,13.31
1629376382859,13.25
1629376382875,13.26
1629376382890,13.38
1629376382906,13.62
1629376382921,13.89
1629376382937,14.05
1629376382953,13.92
1629376382968,13.41
1629376382984,12.54
1629376383000,11.47
1629376383015,10.4
1629376383031,9.57
1629376383046,9.04
1629376383062,8.76
1629376383078,8.54
1629376383093,8.18
1629376383109,7.51
1629376383125,6.48
1629376383140,5.17
1629376383156,3.7
1629376383171,2.2
1629376383187,0.76
1629376383203,-0.57
1629376383218,-1.76
1629376383234,-2.81
1629376383250,-3.74
1629376383265,-4.65
1629376383281,-5.63
1629376383296,-6.77
1629376383312,-8.09
1629376383328,-9.54
1629376383343,-11.04
1629376383359,-12.53
1629376383375,-14.02
1629376383390,-15.59
1629376383406,-17.31
1629376383421,-19.13
1629376383437,-20.81
1629376383453,-22.0
1629376383468,-22.33
1629376383484,-21.58
1629376383500,-19.74
1629376383515,-17.06
1629376383531,-13.87
1629376383546,-10.52
1629376383562,-7.24
1629376383578,-4.17
1629376383593,-1.33
1629376383609,1.25
1629376383625,3.55
1629376383640,5.53
1629376383656,7.16
1629376383671,8.46
1629376383687,9.45
1629376383703,10.15
1629376383718,10.59
1629376383734,10.8
1629376383750,10.86
1629376383765,10.87
1629376383781,10.94
1629376383796,11.09
1629376383812,11.32
1629376383828,11.5
1629376383843,11.54
1629376383859,11.35
1629376383875,10.97
1629376383890,10.5
1629376383906,10.04
1629376383921,9.63
1629376383937,9.23
1629376383953,8.79
1629376383968,8.32
1629376383984,7.91
1629376384000,7.65
1629376384015,7.62
1629376384031,7.73
1629376384046,7.74
1629376384062,7.39
1629376384078,6.5
1629376384093,5.11
1629376384109,3.41
1629376384125,1.71
1629376384140,0.3
1629376384156,-0.71
1629376384171,-1.39
1629376384187,-1.89
1629376384203,-2.41
1629376384218,-3.12
1629376384234,-4.03
1629376384250,-5.11
1629376384265,-6.23
1629376384281,-7.31
1629376384296,-8.29
1629376384312,-9.23
1629376384328,-10.22
1629376384343,-11.38
1629376384359,-12.79
1629376384375,-14.41
1629376384390,-16.11
1629376384406,-17.66
1629376384421,-18.82
1629376384437,-19.37
1629376384453,-19.16
1629376384468,-18.07
1629376384484,-16.1
1629376384500,-13.36
1629376384515,-10.1
1629376384531,-6.69
1629376384546,-3.49
1629376384562,-0.75
1629376384578,1.43
1629376384593,3.17
1629376384609,4.64
1629376384625,6.0
1629376384640,7.27
1629376384656,8.37
1629376384671,9.11
1629376384687,9.4
1629376384703,9.27
1629376384718,8.91
1629376384734,8.54
1629376384750,8.39
1629376384765,8.55
1629376384781,8.97
1629376384796,9.52
1629376384812,10.04
1629376384828,10.41
1629376384843,10.6
1629376384859,10.69
1629376384875,10.79
1629376384890,11.01
1629376384906,11.44
1629376384921,12.13
1629376384937,13.07
1629376384953,14.18
1629376384968,15.32
1629376384984,16.28
1629376385000,16.83
1629376385015,16.79
1629376385031,16.07
1629376385046,14.7
1629376385062,12.77
1629376385078,10.49
1629376385093,8.07
1629376385109,5.72
1629376385125,3.58
1629376385140,1.7
1629376385156,-0.02
1629376385171,-1.73
1629376385187,-3.59
1629376385203,-5.67
1629376385218,-7.93
1629376385234,-10.26
1629376385250,-12.51
1629376385265,-14.6
1629376385281,-16.49
1629376385296,-18.21
1629376385312,-19.78
1629376385328,-21.13
1629376385343,-22.15
1629376385359,-22.71
1629376385375,-22.73
1629376385390,-22.18
1629376385406,-21.08
1629376385421,-19.44
1629376385437,-17.25
1629376385453,-14.5
1629376385468,-11.22
1629376385484,-7.51
1629376385500,-3.61
1629376385515,0.17
1629376385531,3.5
1629376385546,6.14
1629376385562,8.0
1629376385578,9.15
1629376385593,9.76
1629376385609,10.0
1629376385625,10.04
1629376385640,9.98
1629376385656,9.87
1629376385671,9.8
1629376385687,9.81
1629376385703,9.95
1629376385718,10.24
1629376385734,10.59
1629376385750,10.89
1629376385765,11.0
1629376385781,10.81
1629376385796,10.31
1629376385812,9.58
1629376385828,8.7
1629376385843,7.76
1629376385859,6.78
1629376385875,5.73
1629376385890,4.58
1629376385906,3.33
1629376385921,2.07
1629376385937,0.92
1629376385953,-0.01
1629376385968,-0.72
1629376385984,-1.27
1629376386000,-1.79
1629376386015,-2.44
1629376386031,-3.29
1629376386046,-4.34
1629376386062,-5.55
1629376386078,-6.8
1629376386093,-8.02
1629376386109,-9.19
1629376386125,-10.34
1629376386140,-11.59
1629376386156,-13.08
1629376386171,-14.87
1629376386187,-16.94
1629376386203,-19.11
1629376386218,-21.1
1629376386234,-22.59
1629376386250,-23.3
1629376386265,-23.09
1629376386281,-21.96
1629376386296,-20.01
1629376386312,-17.41
1629376386328,-14.37
1629376386343,-11.1
1629376386359,-7.84
1629376386375,-4.83
1629376386390,-2.26
1629376386406,-0.22
1629376386421,1.34
1629376386437,2.57
1629376386453,3.69
1629376386468,4.83
1629376386484,6.0
1629376386500,7.1
1629376386515,7.97
1629376386531,8.51
1629376386546,8.74
1629376386562,8.73
1629376386578,8.61
1629376386593,8.43
1629376386609,8.2
1629376386625,7.93
1629376386640,7.62
1629376386656,7.36
1629376386671,7.24
1629376386687,7.34
1629376386703,7.62
1629376386718,7.96
1629376386734,8.18
1629376386750,8.16
1629376386765,7.81
1629376386781,7.18
1629376386796,6.33
1629376386812,5.32
1629376386828,4.24
1629376386843,3.12
1629376386859,2.03
1629376386875,1.03
1629376386890,0.19
1629376386906,-0.51
1629376386921,-1.14
1629376386937,-1.85
1629376386953,-2.73
1629376386968,-3.75
1629376386984,-4.8
1629376387000,-5.72
1629376387015,-6.44
1629376387031,-7.04
1629376387046,-7.75
1629376387062,-8.8
1629376387078,-10.27
1629376387093,-12.05
1629376387109,-13.94
1629376387125,-15.72
1629376387140,-17.29
1629376387156,-18.65
1629376387171,-19.78
1629376387187,-20.6
1629376387203,-20.9
1629376387218,-20.43
1629376387234,-19.06
1629376387250,-16.84
1629376387265,-14.0
1629376387281,-10.84
1629376387296,-7.66
1629376387312,-4.66
1629376387328,-1.93
1629376387343,0.49
1629376387359,2.62
1629376387375,4.44
1629376387390,5.97
1629376387406,7.21
1629376387421,8.18
1629376387437,8.9
1629376387453,9.41
1629376387468,9.78
1629376387484,10.09
1629376387500,10.36
1629376387515,10.58
1629376387531,10.68
1629376387546,10.57
1629376387562,10.19
1629376387578,9.58
1629376387593,8.84
1629376387609,8.11
1629376387625,7.53
1629376387640,7.16
1629376387656,6.94
1629376387671,6.77
1629376387687,6.54
1629376387703,6.2
1629376387718,5.78
1629376387734,5.36
1629376387750,4.98
1629376387765,4.63
1629376387781,4.2
1629376387796,3.57
1629376387812,2.64
1629376387828,1.42
1629376387843,0.02
1629376387859,-1.38
1629376387875,-2.58
1629376387890,-3.44
1629376387906,-3.92
1629376387921,-4.09
1629376387937,-4.13
1629376387953,-4.28
1629376387968,-4.77
1629376387984,-5.79
1629376388000,-7.36
1629376388015,-9.36
1629376388031,-11.52
1629376388046,-13.5
1629376388062,-14.96
1629376388078,-15.69
1629376388093,-15.59
1629376388109,-14.73
1629376388125,-13.24
1629376388140,-11.3
1629376388156,-9.04
1629376388171,-6.6
1629376388187,-4.07
1629376388203,-1.53
1629376388218,0.93
1629376388234,3.25
1629376388250,5.33
1629376388265,7.12
1629376388281,8.57
1629376388296,9.65
1629376388312,10.37
1629376388328,10.74
1629376388343,10.79
1629376388359,10.57
1629376388375,10.18
1629376388390,9.71
1629376388406,9.28
1629376388421,8.94
1629376388437,8.72
1629376388453,8.57
1629376388468,8.42
1629376388484,8.25
1629376388500,8.04
1629376388515,7.79
1629376388531,7.5
1629376388546,7.13
1629376388562,6.64
1629376388578,6.05
1629376388593,5.42
1629376388609,4.79
1629376388625,4.2
1629376388640,3.63
1629376388656,2.99
1629376388671,2.23
1629376388687,1.32
1629376388703,0.28
1629376388718,-0.84
1629376388734,-2.01
1629376388750,-3.22
1629376388765,-4.4
1629376388781,-5.52
1629376388796,-6.56
1629376388812,-7.6
1629376388828,-8.8
1629376388843,-10.27
1629376388859,-11.99
1629376388875,-13.76
1629376388890,-15.21
1629376388906,-15.96
1629376388921,-15.79
1629376388937,-14.69
1629376388953,-12.82
1629376388968,-10.48
1629376388984,-7.9
1629376389000,-5.3
1629376389015,-2.78
1629376389031,-0.39
1629376389046,1.86
1629376389062,3.99
1629376389078,6.01
1629376389093,7.91
1629376389109,9.61
1629376389125,10.98
1629376389140,11.88
1629376389156,12.22
1629376389171,11.99
1629376389187,11.27
1629376389203,10.23
1629376389218,9.16
1629376389234,8.32
1629376389250,7.96
1629376389265,8.16
1629376389281,8.81
1629376389296,9.63
1629376389312,10.24
1629376389328,10.34
1629376389343,9.81
1629376389359,8.75
1629376389375,7.42
1629376389390,6.08
1629376389406,4.92
1629376389421,3.98
1629376389437,3.21
1629376389453,2.5
1629376389468,1.76
1629376389484,0.92
1629376389500,-0.07
1629376389515,-1.25
1629376389531,-2.6
1629376389546,-4.1
1629376389562,-5.69
1629376389578,-7.28
1629376389593,-8.76
1629376389609,-10.07
1629376389625,-11.21
1629376389640,-12.22
1629376389656,-13.19
1629376389671,-14.17
1629376389687,-15.1
1629376389703,-15.76
1629376389718,-15.83
1629376389734,-15.05
1629376389750,-13.29
1629376389765,-10.66
1629376389781,-7.48
1629376389796,-4.19
1629376389812,-1.16
1629376389828,1.44
1629376389843,3.56
1629376389859,5.29
1629376389875,6.68
1629376389890,7.77
1629376389906,8.52
1629376389921,8.95
1629376389937,9.1
1629376389953,9.06
1629376389968,8.98
1629376389984,8.98
1629376390000,9.12
1629376390015,9.39
1629376390031,9.73
1629376390046,10.04
1629376390062,10.2
1629376390078,10.19
1629376390093,10.02
1629376390109,9.76
1629376390125,9.52
1629376390140,9.36
1629376390156,9.24
1629376390171,9.1
1629376390187,8.83
1629376390203,8.4
1629376390218,7.83
1629376390234,7.21
1629376390250,6.62
1629376390265,6.07
1629376390281,5.51
1629376390296,4.83
1629376390312,3.95
1629376390328,2.82
1629376390343,1.47
1629376390359,0.03
1629376390375,-1.37
1629376390390,-2.62
1629376390406,-3.65
1629376390421,-4.47
1629376390437,-5.14
1629376390453,-5.73
1629376390468,-6.35
1629376390484,-7.11
1629376390500,-8.08
1629376390515,-9.3
1629376390531,-10.77
1629376390546,-12.4
1629376390562,-14.05
1629376390578,-15.56
1629376390593,-16.74
1629376390609,-17.4
1629376390625,-17.39
1629376390640,-16.6
1629376390656,-15.04
1629376390671,-12.81
1629376390687,-10.11
1629376390703,-7.18
1629376390718,-4.23
1629376390734,-1.43
1629376390750,1.12
1629376390765,3.37
1629376390781,5.29
1629376390796,6.9
1629376390812,8.24
1629376390828,9.35
1629376390843,10.28
1629376390859,11.02
1629376390875,11.53
1629376390890,11.77
1629376390906,11.73
1629376390921,11.45
1629376390937,11.0
1629376390953,10.5
1629376390968,10.02
1629376390984,9.67
1629376391000,9.49
1629376391015,9.52
1629376391031,9.71
1629376391046,9.93
1629376391062,10.0
1629376391078,9.76
1629376391093,9.13
1629376391109,8.16
1629376391125,7.07
1629376391140,6.11
1629376391156,5.52
1629376391171,5.35
1629376391187,5.51
1629376391203,5.76
1629376391218,5.85
1629376391234,5.57
1629376391250,4.86
1629376391265,3.8
1629376391281,2.55
1629376391296,1.29
1629376391312,0.16
1629376391328,-0.78
1629376391343,-1.53
1629376391359,-2.12
1629376391375,-2.55
1629376391390,-2.83
1629376391406,-3.02
1629376391421,-3.27
1629376391437,-3.72
1629376391453,-4.47
1629376391468,-5.5
1629376391484,-6.64
1629376391500,-7.71
1629376391515,-8.58
1629376391531,-9.26
1629376391546,-9.89
1629376391562,-10.66
1629376391578,-11.61
1629376391593,-12.67
1629376391609,-13.59
1629376391625,-14.11
1629376391640,-14.03
1629376391656,-13.27
1629376391671,-11.88
1629376391687,-9.99
1629376391703,-7.75
1629376391718,-5.31
1629376391734,-2.82
1629376391750,-0.42
1629376391765,1.78
1629376391781,3.67
1629376391796,5.18
1629376391812,6.22
1629376391828,6.8
1629376391843,7.01
1629376391859,6.99
1629376391875,6.92
1629376391890,6.91
1629376391906,6.98
1629376391921,7.07
1629376391937,7.1
1629376391953,7.05
1629376391968,6.99
1629376391984,7.0
1629376392000,7.15
1629376392015,7.37
1629376392031,7.55
1629376392046,7.54
1629376392062,7.28
1629376392078,6.83
1629376392093,6.32
1629376392109,5.88
1629376392125,5.55
1629376392140,5.31
1629376392156,5.07
1629376392171,4.79
1629376392187,4.5
1629376392203,4.26
1629376392218,4.11
1629376392234,3.98
1629376392250,3.72
1629376392265,3.19
1629376392281,2.33
1629376392296,1.24
1629376392312,0.13
1629376392328,-0.74
1629376392343,-1.23
1629376392359,-1.38
1629376392375,-1.37
1629376392390,-1.46
1629376392406,-1.86
1629376392421,-2.62
1629376392437,-3.61
1629376392453,-4.63
1629376392468,-5.45
1629376392484,-5.97
1629376392500,-6.18
1629376392515,-6.26
1629376392531,-6.39
1629376392546,-6.73
1629376392562,-7.35
1629376392578,-8.22
1629376392593,-9.19
1629376392609,-10.11
1629376392625,-10.81
1629376392640,-11.12
1629376392656,-10.89
1629376392671,-10.01
1629376392687,-8.47
1629376392703,-6.38
1629376392718,-3.99
1629376392734,-1.61
1629376392750,0.5
1629376392765,2.2
1629376392781,3.49
1629376392796,4.46
1629376392812,5.18
1629376392828,5.68
1629376392843,5.92
1629376392859,5.85
1629376392875,5.48
1629376392890,4.89
1629376392906,4.22
1629376392921,3.63
1629376392937,3.24
1629376392953,3.12
1629376392968,3.3
1629376392984,3.73
1629376393000,4.29
1629376393015,4.82
1629376393031,5.13
1629376393046,5.1
1629376393062,4.74
1629376393078,4.12
1629376393093,3.42
1629376393109,2.8
1629376393125,2.37
1629376393140,2.12
1629376393156,1.99
1629376393171,1.89
1629376393187,1.71
1629376393203,1.4
1629376393218,0.93
1629376393234,0.32
1629376393250,-0.37
1629376393265,-1.06
1629376393281,-1.73
1629376393296,-2.36
1629376393312,-2.97
1629376393328,-3.55
1629376393343,-4.05
1629376393359,-4.41
1629376393375,-4.55
1629376393390,-4.49
1629376393406,-4.33
1629376393421,-4.26
1629376393437,-4.44
1629376393453,-4.95
1629376393468,-5.71
1629376393484,-6.55
1629376393500,-7.3
1629376393515,-7.9
1629376393531,-8.37
1629376393546,-8.86
1629376393562,-9.42
1629376393578,-9.99
1629376393593,-10.35
1629376393609,-10.24
1629376393625,-9.45
1629376393640,-7.92
1629376393656,-5.8
1629376393671,-3.33
1629376393687,-0.8
1629376393703,1.55
1629376393718,3.56
1629376393734,5.17
1629376393750,6.32
1629376393765,6.98
1629376393781,7.14
1629376393796,6.83
1629376393812,6.14
1629376393828,5.24
1629376393843,4.34
1629376393859,3.61
1629376393875,3.14
1629376393890,2.91
1629376393906,2.79
1629376393921,2.65
1629376393937,2.38
1629376393953,1.98
1629376393968,1.53
1629376393984,1.09
1629376394000,0.73
1629376394015,0.45
1629376394031,0.19
1629376394046,-0.09
1629376394062,-0.44
1629376394078,-0.82
1629376394093,-1.19
1629376394109,-1.45
1629376394125,-1.56
1629376394140,-1.55
1629376394156,-1.56
1629376394171,-1.75
1629376394187,-2.23
1629376394203,-3.0
1629376394218,-3.88
1629376394234,-4.62
1629376394250,-5.03
1629376394265,-5.07
1629376394281,-4.86
1629376394296,-4.62
1629376394312,-4.55
1629376394328,-4.72
1629376394343,-5.1
1629376394359,-5.61
1629376394375,-6.17
1629376394390,-6.8
1629376394406,-7.53
1629376394421,-8.38
1629376394437,-9.32
1629376394453,-10.27
1629376394468,-11.12
1629376394484,-11.82
1629376394500,-12.41
1629376394515,-12.9
1629376394531,-13.31
1629376394546,-13.54
1629376394562,-13.41
1629376394578,-12.73
1629376394593,-11.43
1629376394609,-9.58
1629376394625,-7.39
1629376394640,-5.15
1629376394656,-3.08
1629376394671,-1.3
1629376394687,0.18
1629376394703,1.42
1629376394718,2.44
1629376394734,3.2
1629376394750,3.67
1629376394765,3.85
1629376394781,3.81
1629376394796,3.67
1629376394812,3.5
1629376394828,3.32
1629376394843,3.09
1629376394859,2.78
1629376394875,2.42
1629376394890,2.09
1629376394906,1.94
1629376394921,2.03
1629376394937,2.35
1629376394953,2.8
1629376394968,3.2
1629376394984,3.45
1629376395000,3.49
1629376395015,3.38
1629376395031,3.2
1629376395046,3.03
1629376395062,2.89
1629376395078,2.79
1629376395093,2.7
1629376395109,2.64
1629376395125,2.61
1629376395140,2.62
1629376395156,2.63
1629376395171,2.58
1629376395187,2.4
1629376395203,2.02
1629376395218,1.45
1629376395234,0.74
1629376395250,0.01
1629376395265,-0.6
1629376395281,-1.01
1629376395296,-1.22
1629376395312,-1.27
1629376395328,-1.31
1629376395343,-1.5
1629376395359,-1.95
1629376395375,-2.73
1629376395390,-3.82
1629376395406,-5.12
1629376395421,-6.49
1629376395437,-7.74
1629376395453,-8.64
1629376395468,-9.03
1629376395484,-8.81
1629376395500,-7.97
1629376395515,-6.63
1629376395531,-5.01
1629376395546,-3.36
1629376395562,-1.92
1629376395578,-0.86
1629376395593,-0.19
1629376395609,0.21
1629376395625,0.55
1629376395640,1.01
1629376395656,1.68
1629376395671,2.48
1629376395687,3.23
1629376395703,3.72
1629376395718,3.81
1629376395734,3.54
1629376395750,3.07
1629376395765,2.57
1629376395781,2.18
1629376395796,1.91
1629376395812,1.72
1629376395828,1.55
1629376395843,1.44
1629376395859,1.45
1629376395875,1.63
1629376395890,1.97
1629376395906,2.34
1629376395921,2.57
1629376395937,2.51
1629376395953,2.06
1629376395968,1.25
1629376395984,0.23
1629376396000,-0.83
1629376396015,-1.73
1629376396031,-2.36
1629376396046,-2.74
1629376396062,-3.0
1629376396078,-3.27
1629376396093,-3.68
1629376396109,-4.26
1629376396125,-4.98
1629376396140,-5.78
1629376396156,-6.63
1629376396171,-7.53
1629376396187,-8.48
1629376396203,-9.47
1629376396218,-10.44
1629376396234,-11.36
1629376396250,-12.21
1629376396265,-13.02
1629376396281,-13.78
1629376396296,-14.39
1629376396312,-14.7
1629376396328,-14.51
1629376396343,-13.71
1629376396359,-12.29
1629376396375,-10.38
1629376396390,-8.15
1629376396406,-5.82
1629376396421,-3.55
1629376396437,-1.48
1629376396453,0.31
1629376396468,1.75
1629376396484,2.83
1629376396500,3.55
1629376396515,3.96
1629376396531,4.09
1629376396546,4.02
1629376396562,3.8
1629376396578,3.55
1629376396593,3.35
1629376396609,3.26
1629376396625,3.28
1629376396640,3.37
1629376396656,3.45
1629376396671,3.49
1629376396687,3.51
1629376396703,3.53
1629376396718,3.59
1629376396734,3.64
1629376396750,3.6
1629376396765,3.34
1629376396781,2.81
1629376396796,2.03
1629376396812,1.12
1629376396828,0.24
1629376396843,-0.5
1629376396859,-1.07
1629376396875,-1.53
1629376396890,-2.02
1629376396906,-2.64
1629376396921,-3.46
1629376396937,-4.5
1629376396953,-5.72
1629376396968,-7.08
1629376396984,-8.54
1629376397000,-10.02
1629376397015,-11.44
1629376397031,-12.71
1629376397046,-13.82
1629376397062,-14.87
1629376397078,-16.07
1629376397093,-17.62
1629376397109,-19.55
1629376397125,-21.64
1629376397140,-23.46
1629376397156,-24.55
1629376397171,-24.61
1629376397187,-23.63
1629376397203,-21.84
1629376397218,-19.58
1629376397234,-17.09
1629376397250,-14.49
1629376397265,-11.78
1629376397281,-8.98
1629376397296,-6.2
1629376397312,-3.66
1629376397328,-1.57
1629376397343,-0.02
1629376397359,1.07
1629376397375,1.93
1629376397390,2.79
1629376397406,3.77
1629376397421,4.87
1629376397437,5.9
1629376397453,6.69
1629376397468,7.15
1629376397484,7.32
1629376397500,7.37
1629376397515,7.54
1629376397531,7.94
1629376397546,8.59
1629376397562,9.35
1629376397578,10.01
1629376397593,10.41
1629376397609,10.44
1629376397625,10.13
1629376397640,9.55
1629376397656,8.83
1629376397671,8.11
1629376397687,7.47
1629376397703,6.95
1629376397718,6.53
1629376397734,6.13
1629376397750,5.69
1629376397765,5.16
1629376397781,4.52
1629376397796,3.75
1629376397812,2.82
1629376397828,1.72
1629376397843,0.45
1629376397859,-0.89
1629376397875,-2.17
1629376397890,-3.26
1629376397906,-4.1
1629376397921,-4.79
1629376397937,-5.47
1629376397953,-6.34
1629376397968,-7.5
1629376397984,-8.98
1629376398000,-10.75
1629376398015,-12.76
1629376398031,-14.98
1629376398046,-17.32
1629376398062,-19.58
1629376398078,-21.4
1629376398093,-22.34
1629376398109,-22.07
1629376398125,-20.49
1629376398140,-17.82
1629376398156,-14.44
1629376398171,-10.8
1629376398187,-7.22
1629376398203,-3.88
1629376398218,-0.82
1629376398234,1.94
1629376398250,4.41
1629376398265,6.55
1629376398281,8.38
1629376398296,9.91
1629376398312,11.2
1629376398328,12.28
1629376398343,13.16
1629376398359,13.84
1629376398375,14.37
1629376398390,14.82
1629376398406,15.27
1629376398421,15.76
1629376398437,16.28
1629376398453,16.83
1629376398468,17.39
1629376398484,17.97
1629376398500,18.58
1629376398515,19.19
1629376398531,19.71
1629376398546,19.95
1629376398562,19.77
1629376398578,19.1
1629376398593,18.04
1629376398609,16.81
1629376398625,15.65
1629376398640,14.73
1629376398656,14.09
1629376398671,13.59
1629376398687,13.05
1629376398703,12.32
1629376398718,11.36
1629376398734,10.23
1629376398750,9.01
1629376398765,7.72
1629376398781,6.36
1629376398796,4.84
1629376398812,3.14
1629376398828,1.31
1629376398843,-0.54
1629376398859,-2.24
1629376398875,-3.68
1629376398890,-4.85
1629376398906,-5.84
1629376398921,-6.83
1629376398937,-8.04
1629376398953,-9.66
1629376398968,-11.75
1629376398984,-14.21
1629376399000,-16.79
1629376399015,-19.09
1629376399031,-20.71
1629376399046,-21.39
1629376399062,-20.99
1629376399078,-19.56
1629376399093,-17.23
1629376399109,-14.17
1629376399125,-10.58
1629376399140,-6.7
1629376399156,-2.77
1629376399171,0.94
1629376399187,4.28
1629376399203,7.22
1629376399218,9.86
1629376399234,12.29
1629376399250,14.58
1629376399265,16.65
1629376399281,18.35
1629376399296,19.54
1629376399312,20.19
1629376399328,20.38
1629376399343,20.25
1629376399359,19.96
1629376399375,19.62
1629376399390,19.32
1629376399406,19.11
1629376399421,19.08
1629376399437,19.24
1629376399453,19.57
1629376399468,19.93
1629376399484,20.16
1629376399500,20.08
1629376399515,19.55
1629376399531,18.54
1629376399546,17.13
1629376399562,15.46
1629376399578,13.71
1629376399593,12.02
1629376399609,10.51
1629376399625,9.21
1629376399640,8.14
1629376399656,7.27
1629376399671,6.55
1629376399687,5.88
1629376399703,5.17
1629376399718,4.29
1629376399734,3.18
1629376399750,1.81
1629376399765,0.26
1629376399781,-1.34
1629376399796,-2.86
1629376399812,-4.21
1629376399828,-5.36
1629376399843,-6.34
1629376399859,-7.2
1629376399875,-8.02
1629376399890,-8.92
1629376399906,-10.06
1629376399921,-11.58
1629376399937,-13.55
1629376399953,-15.94
1629376399968,-18.59
1629376399984,-21.22
1629376400000,-23.46
1629376400015,-24.98
1629376400031,-25.48
1629376400046,-24.77
1629376400062,-22.83
1629376400078,-19.79
1629376400093,-15.93
1629376400109,-11.64
1629376400125,-7.27
1629376400140,-3.13
1629376400156,0.59
1629376400171,3.85
1629376400187,6.63
1629376400203,8.98
1629376400218,10.95
1629376400234,12.57
1629376400250,13.87
1629376400265,14.87
1629376400281,15.61
1629376400296,16.13
1629376400312,16.49
1629376400328,16.71
1629376400343,16.79
1629376400359,16.74
1629376400375,16.61
1629376400390,16.48
1629376400406,16.45
1629376400421,16.62
1629376400437,16.97
1629376400453,17.34
1629376400468,17.51
1629376400484,17.3
1629376400500,16.66
1629376400515,15.7
1629376400531,14.63
1629376400546,13.63
1629376400562,12.78
1629376400578,12.03
1629376400593,11.31
1629376400609,10.54
1629376400625,9.76
1629376400640,9.01
1629376400656,8.35
1629376400671,7.74
1629376400687,7.13
1629376400703,6.41
1629376400718,5.53
1629376400734,4.46
1629376400750,3.24
1629376400765,1.94
1629376400781,0.61
1629376400796,-0.72
1629376400812,-2.06
1629376400828,-3.41
1629376400843,-4.75
1629376400859,-6.02
1629376400875,-7.16
1629376400890,-8.15
1629376400906,-9.07
1629376400921,-10.09
1629376400937,-11.44
1629376400953,-13.27
1629376400968,-15.59
1629376400984,-18.19
1629376401000,-20.7
1629376401015,-22.69
1629376401031,-23.76
1629376401046,-23.69
1629376401062,-22.38
1629376401078,-19.94
1629376401093,-16.62
1629376401109,-12.76
1629376401125,-8.73
1629376401140,-4.88
1629376401156,-1.43
1629376401171,1.49
1629376401187,3.9
1629376401203,5.85
1629376401218,7.46
1629376401234,8.8
1629376401250,9.92
1629376401265,10.87
1629376401281,11.68
1629376401296,12.38
1629376401312,12.98
1629376401328,13.44
1629376401343,13.69
1629376401359,13.69
1629376401375,13.47
1629376401390,13.12
1629376401406,12.84
1629376401421,12.77
1629376401437,12.97
1629376401453,13.34
1629376401468,13.65
1629376401484,13.69
1629376401500,13.36
1629376401515,12.69
1629376401531,11.84
1629376401546,11.0
1629376401562,10.25
1629376401578,9.54
1629376401593,8.77
1629376401609,7.87
1629376401625,6.87
1629376401640,5.89
1629376401656,5.04
1629376401671,4.29
1629376401687,3.56
1629376401703,2.72
1629376401718,1.76
1629376401734,0.73
1629376401750,-0.21
1629376401765,-1.01
1629376401781,-1.7
1629376401796,-2.42
1629376401812,-3.3
1629376401828,-4.35
1629376401843,-5.52
1629376401859,-6.68
1629376401875,-7.82
1629376401890,-8.98
1629376401906,-10.32
1629376401921,-11.91
1629376401937,-13.73
1629376401953,-15.58
1629376401968,-17.13
1629376401984,-18.04
1629376402000,-18.01
1629376402015,-16.86
1629376402031,-14.61
1629376402046,-11.46
1629376402062,-7.76
1629376402078,-3.94
1629376402093,-0.43
1629376402109,2.49
1629376402125,4.7
1629376402140,6.27
1629376402156,7.37
1629376402171,8.19
1629376402187,8.85
1629376402203,9.36
1629376402218,9.7
1629376402234,9.84
1629376402250,9.8
1629376402265,9.62
1629376402281,9.4
1629376402296,9.22
1629376402312,9.13
1629376402328,9.14
1629376402343,9.24
1629376402359,9.42
1629376402375,9.67
1629376402390,9.93
1629376402406,10.14
1629376402421,10.18
1629376402437,9.97
1629376402453,9.48
1629376402468,8.7
1629376402484,7.71
1629376402500,6.55
1629376402515,5.3
1629376402531,4.04
1629376402546,2.83
1629376402562,1.79
1629376402578,1.0
1629376402593,0.48
1629376402609,0.18
1629376402625,-0.05
1629376402640,-0.41
1629376402656,-1.04
1629376402671,-1.99
1629376402687,-3.19
1629376402703,-4.51
1629376402718,-5.82
1629376402734,-7.01
1629376402750,-8.09
1629376402765,-9.1
1629376402781,-10.14
1629376402796,-11.27
1629376402812,-12.53
1629376402828,-13.91
1629376402843,-15.33
1629376402859,-16.68
1629376402875,-17.77
1629376402890,-18.38
1629376402906,-18.26
1629376402921,-17.28
1629376402937,-15.43
1629376402953,-12.88
1629376402968,-9.93
1629376402984,-6.91
1629376403000,-4.12
1629376403015,-1.7
1629376403031,0.3
1629376403046,1.94
1629376403062,3.27
1629376403078,4.32
1629376403093,5.09
1629376403109,5.59
1629376403125,5.87
1629376403140,6.01
1629376403156,6.09
1629376403171,6.18
1629376403187,6.28
1629376403203,6.38
1629376403218,6.45
1629376403234,6.47
1629376403250,6.45
1629376403265,6.39
1629376403281,6.31
1629376403296,6.22
1629376403312,6.11
1629376403328,5.99
1629376403343,5.84
1629376403359,5.64
1629376403375,5.35
1629376403390,4.91
1629376403406,4.32
1629376403421,3.61
1629376403437,2.82
1629376403453,1.98
1629376403468,1.14
1629376403484,0.34
1629376403500,-0.38
1629376403515,-0.98
1629376403531,-1.43
1629376403546,-1.74
1629376403562,-2.03
1629376403578,-2.42
1629376403593,-3.05
1629376403609,-3.97
1629376403625,-5.13
1629376403640,-6.43
1629376403656,-7.73
1629376403671,-8.99
1629376403687,-10.2
1629376403703,-11.44
1629376403718,-12.81
1629376403734,-14.35
1629376403750,-16.0
1629376403765,-17.59
1629376403781,-18.84
1629376403796,-19.48
1629376403812,-19.3
1629376403828,-18.31
1629376403843,-16.66
1629376403859,-14.58
1629376403875,-12.32
1629376403890,-10.02
1629376403906,-7.74
1629376403921,-5.45
1629376403937,-3.17
1629376403953,-0.94
1629376403968,1.14
1629376403984,2.94
1629376404000,4.36
1629376404015,5.35
1629376404031,5.92
1629376404046,6.14
1629376404062,6.14
1629376404078,6.09
1629376404093,6.11
1629376404109,6.28
1629376404125,6.57
1629376404140,6.91
1629376404156,7.22
1629376404171,7.46
1629376404187,7.64
1629376404203,7.76
1629376404218,7.74
1629376404234,7.52
1629376404250,7.0
1629376404265,6.24
1629376404281,5.36
1629376404296,4.58
1629376404312,4.09
1629376404328,3.92
1629376404343,3.96
1629376404359,4.03
1629376404375,3.93
1629376404390,3.6
1629376404406,3.03
1629376404421,2.31
1629376404437,1.48
1629376404453,0.59
1629376404468,-0.35
1629376404484,-1.29
1629376404500,-2.18
1629376404515,-2.96
1629376404531,-3.6
1629376404546,-4.14
1629376404562,-4.69
1629376404578,-5.39
1629376404593,-6.39
1629376404609,-7.78
1629376404625,-9.52
1629376404640,-11.52
1629376404656,-13.58
1629376404671,-15.5
1629376404687,-17.09
1629376404703,-18.16
1629376404718,-18.57
1629376404734,-18.23
1629376404750,-17.11
1629376404765,-15.29
1629376404781,-12.98
1629376404796,-10.44
1629376404812,-7.97
1629376404828,-5.78
1629376404843,-3.96
1629376404859,-2.45
1629376404875,-1.08
1629376404890,0.31
1629376404906,1.79
1629376404921,3.35
1629376404937,4.86
1629376404953,6.15
1629376404968,7.11
1629376404984,7.76
1629376405000,8.19
1629376405015,8.61
1629376405031,9.11
1629376405046,9.73
1629376405062,10.35
1629376405078,10.82
1629376405093,11.03
1629376405109,11.01
1629376405125,10.87
1629376405140,10.71
1629376405156,10.57
1629376405171,10.36
1629376405187,9.95
1629376405203,9.25
1629376405218,8.3
1629376405234,7.26
1629376405250,6.3
1629376405265,5.56
1629376405281,5.05
1629376405296,4.72
1629376405312,4.48
1629376405328,4.19
1629376405343,3.72
1629376405359,2.95
1629376405375,1.88
1629376405390,0.57
1629376405406,-0.81
1629376405421,-2.09
1629376405437,-3.18
1629376405453,-4.09
1629376405468,-4.95
1629376405484,-5.89
1629376405500,-6.96
1629376405515,-8.11
1629376405531,-9.24
1629376405546,-10.33
1629376405562,-11.42
1629376405578,-12.66
1629376405593,-14.14
1629376405609,-15.85
1629376405625,-17.6
1629376405640,-19.05
1629376405656,-19.82
1629376405671,-19.63
1629376405687,-18.36
1629376405703,-16.11
1629376405718,-13.16
1629376405734,-9.86
1629376405750,-6.51
1629376405765,-3.35
1629376405781,-0.53
1629376405796,1.91
1629376405812,3.92
1629376405828,5.49
1629376405843,6.65
1629376405859,7.44
1629376405875,7.95
1629376405890,8.24
1629376405906,8.37
1629376405921,8.34
1629376405937,8.11
1629376405953,7.68
1629376405968,7.09
1629376405984,6.39
1629376406000,5.7
1629376406015,5.11
1629376406031,4.7
1629376406046,4.49
1629376406062,4.47
1629376406078,4.56
1629376406093,4.65
1629376406109,4.65
1629376406125,4.5
1629376406140,4.22
1629376406156,3.87
1629376406171,3.53
1629376406187,3.23
1629376406203,2.98
1629376406218,2.73
1629376406234,2.44
1629376406250,2.04
1629376406265,1.52
1629376406281,0.88
1629376406296,0.14
1629376406312,-0.68
1629376406328,-1.53
1629376406343,-2.37
1629376406359,-3.2
1629376406375,-4.06
1629376406390,-5.01
1629376406406,-6.07
1629376406421,-7.18
1629376406437,-8.2
1629376406453,-8.97
1629376406468,-9.39
1629376406484,-9.53
1629376406500,-9.66
1629376406515,-10.1
1629376406531,-11.14
1629376406546,-12.85
1629376406562,-15.1
1629376406578,-17.57
1629376406593,-19.87
1629376406609,-21.64
1629376406625,-22.58
1629376406640,-22.5
1629376406656,-21.35
1629376406671,-19.18
1629376406687,-16.23
1629376406703,-12.76
1629376406718,-9.14
1629376406734,-5.67
1629376406750,-2.6
1629376406765,-0.05
1629376406781,1.99
1629376406796,3.64
1629376406812,5.09
1629376406828,6.52
1629376406843,8.01
1629376406859,9.48
1629376406875,10.79
1629376406890,11.74
1629376406906,12.26
1629376406921,12.39
1629376406937,12.26
1629376406953,12.08
1629376406968,11.96
1629376406984,12.0
1629376407000,12.17
1629376407015,12.47
1629376407031,12.87
1629376407046,13.34
1629376407062,13.73
1629376407078,13.87
1629376407093,13.56
1629376407109,12.68
1629376407125,11.3
1629376407140,9.67
1629376407156,8.1
1629376407171,6.86
1629376407187,6.08
1629376407203,5.67
1629376407218,5.44
1629376407234,5.2
1629376407250,4.89
1629376407265,4.53
1629376407281,4.22
1629376407296,3.95
1629376407312,3.62
1629376407328,3.12
1629376407343,2.42
1629376407359,1.58
1629376407375,0.77
1629376407390,0.13
1629376407406,-0.36
1629376407421,-0.83
1629376407437,-1.49
1629376407453,-2.42
1629376407468,-3.59
1629376407484,-4.81
1629376407500,-5.9
1629376407515,-6.75
1629376407531,-7.4
1629376407546,-7.99
1629376407562,-8.67
1629376407578,-9.54
1629376407593,-10.64
1629376407609,-11.96
1629376407625,-13.42
1629376407640,-14.94
1629376407656,-16.43
1629376407671,-17.8
1629376407687,-18.92
1629376407703,-19.65
1629376407718,-19.8
1629376407734,-19.19
1629376407750,-17.73
1629376407765,-15.46
1629376407781,-12.59
1629376407796,-9.41
1629376407812,-6.22
1629376407828,-3.19
1629376407843,-0.4
1629376407859,2.16
1629376407875,4.48
1629376407890,6.49
1629376407906,8.13
1629376407921,9.36
1629376407937,10.26
1629376407953,10.97
1629376407968,11.64
1629376407984,12.34
1629376408000,13.02
1629376408015,13.55
1629376408031,13.79
1629376408046,13.7
1629376408062,13.36
1629376408078,12.96
1629376408093,12.68
1629376408109,12.65
1629376408125,12.84
1629376408140,13.13
1629376408156,13.36
1629376408171,13.39
1629376408187,13.21
1629376408203,12.9
1629376408218,12.57
1629376408234,12.27
1629376408250,11.97
1629376408265,11.57
1629376408281,10.99
1629376408296,10.27
1629376408312,9.49
1629376408328,8.74
1629376408343,8.04
1629376408359,7.26
1629376408375,6.23
1629376408390,4.81
1629376408406,3.01
1629376408421,0.98
1629376408437,-1.01
1629376408453,-2.76
1629376408468,-4.2
1629376408484,-5.39
1629376408500,-6.47
1629376408515,-7.57
1629376408531,-8.66
1629376408546,-9.65
1629376408562,-10.4
1629376408578,-10.86
1629376408593,-11.11
1629376408609,-11.29
1629376408625,-11.62
1629376408640,-12.24
1629376408656,-13.24
1629376408671,-14.64
1629376408687,-16.36
1629376408703,-18.26
1629376408718,-20.1
1629376408734,-21.61
1629376408750,-22.45
1629376408765,-22.35
1629376408781,-21.1
1629376408796,-18.73
1629376408812,-15.45
1629376408828,-11.64
1629376408843,-7.78
1629376408859,-4.27
1629376408875,-1.35
1629376408890,0.98
1629376408906,2.9
1629376408921,4.67
1629376408937,6.47
1629376408953,8.33
1629376408968,10.09
1629376408984,11.53
1629376409000,12.49
1629376409015,12.97
1629376409031,13.1
1629376409046,13.11
1629376409062,13.15
1629376409078,13.3
1629376409093,13.53
1629376409109,13.76
1629376409125,13.94
1629376409140,14.05
1629376409156,14.13
1629376409171,14.18
1629376409187,14.18
1629376409203,14.09
1629376409218,13.84
1629376409234,13.38
1629376409250,12.71
1629376409265,11.86
1629376409281,10.92
1629376409296,10.01
1629376409312,9.22
1629376409328,8.61
1629376409343,8.13
1629376409359,7.71
1629376409375,7.17
1629376409390,6.42
1629376409406,5.43
1629376409421,4.29
1629376409437,3.1
1629376409453,1.96
1629376409468,0.87
1629376409484,-0.24
1629376409500,-1.4
1629376409515,-2.6
1629376409531,-3.75
1629376409546,-4.73
1629376409562,-5.53
1629376409578,-6.2
1629376409593,-6.89
1629376409609,-7.7
1629376409625,-8.66
1629376409640,-9.75
1629376409656,-10.92
1629376409671,-12.22
1629376409687,-13.73
1629376409703,-15.57
1629376409718,-17.72
1629376409734,-20.01
1629376409750,-22.09
1629376409765,-23.56
1629376409781,-24.05
1629376409796,-23.4
1629376409812,-21.61
1629376409828,-18.91
1629376409843,-15.69
1629376409859,-12.37
1629376409875,-9.27
1629376409890,-6.55
1629376409906,-4.14
1629376409921,-1.86
1629376409937,0.47
1629376409953,2.9
1629376409968,5.31
1629376409984,7.51
1629376410000,9.34
1629376410015,10.77
1629376410031,11.91
1629376410046,12.91
1629376410062,13.86
1629376410078,14.7
1629376410093,15.27
1629376410109,15.43
1629376410125,15.12
1629376410140,14.46
1629376410156,13.69
1629376410171,13.06
1629376410187,12.69
1629376410203,12.59
1629376410218,12.58
1629376410234,12.47
1629376410250,12.1
1629376410265,11.43
1629376410281,10.55
1629376410296,9.6
1629376410312,8.7
1629376410328,7.93
1629376410343,7.33
1629376410359,6.86
1629376410375,6.49
1629376410390,6.21
1629376410406,5.99
1629376410421,5.8
1629376410437,5.6
1629376410453,5.29
1629376410468,4.82
1629376410484,4.17
1629376410500,3.38
1629376410515,2.57
1629376410531,1.82
1629376410546,1.18
1629376410562,0.58
1629376410578,-0.17
1629376410593,-1.26
1629376410609,-2.79
1629376410625,-4.72
1629376410640,-6.84
1629376410656,-8.88
1629376410671,-10.63
1629376410687,-12.01
1629376410703,-13.1
1629376410718,-14.09
1629376410734,-15.13
1629376410750,-16.31
1629376410765,-17.57
1629376410781,-18.76
1629376410796,-19.62
1629376410812,-19.85
1629376410828,-19.23
1629376410843,-17.63
1629376410859,-15.1
1629376410875,-11.89
1629376410890,-8.32
1629376410906,-4.69
1629376410921,-1.24
1629376410937,1.91
1629376410953,4.7
1629376410968,7.0
1629376410984,8.71
1629376411000,9.74
1629376411015,10.11
1629376411031,10.03
1629376411046,9.81
1629376411062,9.73
1629376411078,9.91
1629376411093,10.32
1629376411109,10.76
1629376411125,11.04
1629376411140,11.07
1629376411156,10.87
1629376411171,10.55
1629376411187,10.2
1629376411203,9.89
1629376411218,9.64
1629376411234,9.45
1629376411250,9.28
1629376411265,9.13
1629376411281,8.95
1629376411296,8.72
1629376411312,8.41
1629376411328,7.98
1629376411343,7.38
1629376411359,6.57
1629376411375,5.5
1629376411390,4.22
1629376411406,2.83
1629376411421,1.56
1629376411437,0.62
1629376411453,0.13
1629376411468,0.02
1629376411484,0.09
1629376411500,0.04
1629376411515,-0.37
1629376411531,-1.22
1629376411546,-2.42
1629376411562,-3.76
1629376411578,-5.04
1629376411593,-6.09
1629376411609,-6.91
1629376411625,-7.58
1629376411640,-8.28
1629376411656,-9.16
1629376411671,-10.32
1629376411687,-11.76
1629376411703,-13.41
1629376411718,-15.13
1629376411734,-16.8
1629376411750,-18.24
1629376411765,-19.25
1629376411781,-19.59
1629376411796,-19.03
1629376411812,-17.46
1629376411828,-14.95
1629376411843,-11.82
1629376411859,-8.5
1629376411875,-5.39
1629376411890,-2.77
1629376411906,-0.69
1629376411921,0.97
1629376411937,2.37
1629376411953,3.62
1629376411968,4.74
1629376411984,5.68
1629376412000,6.38
1629376412015,6.83
1629376412031,7.06
1629376412046,7.14
1629376412062,7.13
1629376412078,7.08
1629376412093,6.95
1629376412109,6.75
1629376412125,6.48
1629376412140,6.22
1629376412156,6.11
1629376412171,6.22
1629376412187,6.54
1629376412203,6.94
1629376412218,7.23
1629376412234,7.26
1629376412250,6.96
1629376412265,6.39
1629376412281,5.69
1629376412296,4.97
1629376412312,4.31
1629376412328,3.75
1629376412343,3.27
1629376412359,2.88
1629376412375,2.54
1629376412390,2.22
1629376412406,1.84
1629376412421,1.3
1629376412437,0.51
1629376412453,-0.56
1629376412468,-1.9
1629376412484,-3.43
1629376412500,-5.05
1629376412515,-6.63
1629376412531,-8.1
1629376412546,-9.39
1629376412562,-10.51
1629376412578,-11.53
1629376412593,-12.57
1629376412609,-13.77
1629376412625,-15.18
1629376412640,-16.77
1629376412656,-18.38
1629376412671,-19.8
1629376412687,-20.73
1629376412703,-20.95
1629376412718,-20.32
1629376412734,-18.81
1629376412750,-16.54
1629376412765,-13.71
1629376412781,-10.56
1629376412796,-7.32
1629376412812,-4.19
1629376412828,-1.33
1629376412843,1.24
1629376412859,3.49
1629376412875,5.48
1629376412890,7.25
1629376412906,8.78
1629376412921,10.03
1629376412937,10.93
1629376412953,11.46
1629376412968,11.66
1629376412984,11.62
1629376413000,11.47
1629376413015,11.27
1629376413031,11.07
1629376413046,10.86
1629376413062,10.65
1629376413078,10.46
1629376413093,10.3
1629376413109,10.12
1629376413125,9.85
1629376413140,9.43
1629376413156,8.83
1629376413171,8.1
1629376413187,7.37
1629376413203,6.74
1629376413218,6.27
1629376413234,5.92
1629376413250,5.56
1629376413265,5.07
1629376413281,4.39
1629376413296,3.51
1629376413312,2.5
1629376413328,1.46
1629376413343,0.48
1629376413359,-0.41
1629376413375,-1.19
1629376413390,-1.93
1629376413406,-2.7
1629376413421,-3.57
1629376413437,-4.57
1629376413453,-5.67
1629376413468,-6.83
1629376413484,-8.03
1629376413500,-9.26
1629376413515,-10.54
1629376413531,-11.83
1629376413546,-13.12
1629376413562,-14.42
1629376413578,-15.79
1629376413593,-17.32
1629376413609,-19.09
1629376413625,-21.0
1629376413640,-22.8
1629376413656,-24.09
1629376413671,-24.44
1629376413687,-23.56
1629376413703,-21.42
1629376413718,-18.21
1629376413734,-14.29
1629376413750,-10.09
1629376413765,-6.02
1629376413781,-2.38
1629376413796,0.61
1629376413812,2.92
1629376413828,4.65
1629376413843,6.02
1629376413859,7.23
1629376413875,8.42
1629376413890,9.59
1629376413906,10.65
1629376413921,11.47
1629376413937,11.97
1629376413953,12.14
1629376413968,12.02
1629376413984,11.68
1629376414000,11.21
1629376414015,10.73
1629376414031,10.38
1629376414046,10.27
1629376414062,10.46
1629376414078,10.86
1629376414093,11.31
1629376414109,11.62
1629376414125,11.65
1629376414140,11.38
1629376414156,10.85
1629376414171,10.13
1629376414187,9.28
1629376414203,8.37
1629376414218,7.44
1629376414234,6.55
1629376414250,5.76
1629376414265,5.09
1629376414281,4.49
1629376414296,3.9
1629376414312,3.23
1629376414328,2.41
1629376414343,1.44
1629376414359,0.31
1629376414375,-0.95
1629376414390,-2.33
1629376414406,-3.8
1629376414421,-5.31
1629376414437,-6.77
1629376414453,-8.08
1629376414468,-9.18
1629376414484,-10.06
1629376414500,-10.86
1629376414515,-11.77
1629376414531,-13.04
1629376414546,-14.8
1629376414562,-17.04
1629376414578,-19.47
1629376414593,-21.56
1629376414609,-22.75
1629376414625,-22.53
1629376414640,-20.76
1629376414656,-17.65
1629376414671,-13.7
1629376414687,-9.52
1629376414703,-5.63
1629376414718,-2.34
1629376414734,0.3
1629376414750,2.45
1629376414765,4.27
1629376414781,5.9
1629376414796,7.39
1629376414812,8.72
1629376414828,9.83
1629376414843,10.68
1629376414859,11.26
1629376414875,11.6
1629376414890,11.76
1629376414906,11.8
1629376414921,11.78
1629376414937,11.75
1629376414953,11.72
1629376414968,11.72
1629376414984,11.75
1629376415000,11.84
1629376415015,11.98
1629376415031,12.14
1629376415046,12.25
1629376415062,12.22
1629376415078,11.95
1629376415093,11.38
1629376415109,10.52
1629376415125,9.47
1629376415140,8.36
1629376415156,7.29
1629376415171,6.29
1629376415187,5.28
1629376415203,4.15
1629376415218,2.86
1629376415234,1.44
1629376415250,0.01
1629376415265,-1.33
1629376415281,-2.56
1629376415296,-3.78
1629376415312,-5.1
1629376415328,-6.57
1629376415343,-8.16
1629376415359,-9.78
1629376415375,-11.37
1629376415390,-12.96
1629376415406,-14.68
1629376415421,-16.7
1629376415437,-19.06
1629376415453,-21.6
1629376415468,-23.94
1629376415484,-25.6
1629376415500,-26.14
1629376415515,-25.34
1629376415531,-23.21
1629376415546,-20.04
1629376415562,-16.25
1629376415578,-12.22
1629376415593,-8.26
1629376415609,-4.5
1629376415625,-0.98
1629376415640,2.29
1629376415656,5.26
1629376415671,7.81
1629376415687,9.82
1629376415703,11.24
1629376415718,12.17
1629376415734,12.76
1629376415750,13.18
1629376415765,13.53
1629376415781,13.84
1629376415796,14.04
1629376415812,14.11
1629376415828,14.08
1629376415843,14.05
1629376415859,14.09
1629376415875,14.17
1629376415890,14.2
1629376415906,14.06
1629376415921,13.7
1629376415937,13.15
1629376415953,12.56
1629376415968,12.07
1629376415984,11.71
1629376416000,11.43
1629376416015,11.09
1629376416031,10.59
1629376416046,9.94
1629376416062,9.19
1629376416078,8.42
1629376416093,7.64
1629376416109,6.81
1629376416125,5.87
1629376416140,4.82
1629376416156,3.69
1629376416171,2.56
1629376416187,1.52
1629376416203,0.54
1629376416218,-0.5
1629376416234,-1.77
1629376416250,-3.49
1629376416265,-5.74
1629376416281,-8.53
1629376416296,-11.72
1629376416312,-15.12
1629376416328,-18.52
1629376416343,-21.76
1629376416359,-24.75
1629376416375,-27.43
1629376416390,-29.69
1629376416406,-31.35
1629376416421,-32.13
1629376416437,-31.8
1629376416453,-30.19
1629376416468,-27.36
1629376416484,-23.58
1629376416500,-19.19
1629376416515,-14.59
1629376416531,-10.05
1629376416546,-5.74
1629376416562,-1.7
1629376416578,2.06
1629376416593,5.52
1629376416609,8.66
1629376416625,11.44
1629376416640,13.82
1629376416656,15.78
1629376416671,17.27
1629376416687,18.25
1629376416703,18.67
1629376416718,18.53
1629376416734,17.89
1629376416750,16.84
1629376416765,15.53
1629376416781,14.1
1629376416796,12.67
1629376416812,11.31
1629376416828,10.06
1629376416843,8.92
1629376416859,7.82
1629376416875,6.73
1629376416890,5.6
1629376416906,4.44
1629376416921,3.29
1629376416937,2.23
1629376416953,1.37
1629376416968,0.78
1629376416984,0.44
1629376417000,0.26
1629376417015,0.13
1629376417031,-0.07
1629376417046,-0.39
1629376417062,-0.82
1629376417078,-1.33
1629376417093,-1.91
1629376417109,-2.59
1629376417125,-3.41
1629376417140,-4.37
1629376417156,-5.41
1629376417171,-6.42
1629376417187,-7.32
1629376417203,-8.1
1629376417218,-8.88
1629376417234,-9.89
1629376417250,-11.31
1629376417265,-13.25
1629376417281,-15.62
1629376417296,-18.19
1629376417312,-20.66
1629376417328,-22.71
1629376417343,-24.1
1629376417359,-24.7
1629376417375,-24.44
1629376417390,-23.3
1629376417406,-21.27
1629376417421,-18.39
1629376417437,-14.75
1629376417453,-10.6
1629376417468,-6.28
1629376417484,-2.14
1629376417500,1.52
1629376417515,4.59
1629376417531,7.08
1629376417546,9.14
1629376417562,10.87
1629376417578,12.32
1629376417593,13.47
1629376417609,14.28
1629376417625,14.73
1629376417640,14.9
1629376417656,14.87
1629376417671,14.76
1629376417687,14.67
1629376417703,14.6
1629376417718,14.57
1629376417734,14.56
1629376417750,14.59
1629376417765,14.67
1629376417781,14.85
1629376417796,15.11
1629376417812,15.4
1629376417828,15.62
1629376417843,15.66
1629376417859,15.44
1629376417875,14.97
1629376417890,14.34
1629376417906,13.65
1629376417921,12.93
1629376417937,12.19
1629376417953,11.37
1629376417968,10.41
1629376417984,9.34
1629376418000,8.24
1629376418015,7.19
1629376418031,6.22
1629376418046,5.31
1629376418062,4.35
1629376418078,3.28
1629376418093,2.06
1629376418109,0.73
1629376418125,-0.64
1629376418140,-2.01
1629376418156,-3.36
1629376418171,-4.71
1629376418187,-6.12
1629376418203,-7.61
1629376418218,-9.25
1629376418234,-11.06
1629376418250,-13.07
1629376418265,-15.17
1629376418281,-17.13
1629376418296,-18.58
1629376418312,-19.1
1629376418328,-18.42
1629376418343,-16.47
1629376418359,-13.51
1629376418375,-9.97
1629376418390,-6.34
1629376418406,-2.93
1629376418421,0.11
1629376418437,2.78
1629376418453,5.15
1629376418468,7.22
1629376418484,8.92
1629376418500,10.19
1629376418515,11.03
1629376418531,11.56
1629376418546,11.96
1629376418562,12.41
1629376418578,12.97
1629376418593,13.58
1629376418609,14.09
1629376418625,14.36
1629376418640,14.34
1629376418656,14.11
1629376418671,13.84
1629376418687,13.69
1629376418703,13.73
1629376418718,13.88
1629376418734,14.01
1629376418750,13.94
1629376418765,13.58
1629376418781,12.93
1629376418796,12.1
1629376418812,11.19
1629376418828,10.26
1629376418843,9.32
1629376418859,8.3
1629376418875,7.17
1629376418890,5.96
1629376418906,4.74
1629376418921,3.62
1629376418937,2.65
1629376418953,1.79
1629376418968,0.96
1629376418984,0.05
1629376419000,-0.98
1629376419015,-2.13
1629376419031,-3.36
1629376419046,-4.64
1629376419062,-6.0
1629376419078,-7.45
1629376419093,-9.04
1629376419109,-10.76
1629376419125,-12.61
1629376419140,-14.57
1629376419156,-16.61
1629376419171,-18.68
1629376419187,-20.67
1629376419203,-22.36
1629376419218,-23.48
1629376419234,-23.77
1629376419250,-23.03
1629376419265,-21.24
1629376419281,-18.5
1629376419296,-15.04
1629376419312,-11.17
1629376419328,-7.19
1629376419343,-3.4
1629376419359,-0.0
1629376419375,2.87
1629376419390,5.19
1629376419406,7.01
1629376419421,8.44
1629376419437,9.58
1629376419453,10.53
1629376419468,11.31
1629376419484,11.93
1629376419500,12.38
1629376419515,12.61
1629376419531,12.67
1629376419546,12.55
1629376419562,12.31
1629376419578,12.01
1629376419593,11.71
1629376419609,11.44
1629376419625,11.22
1629376419640,11.04
1629376419656,10.9
1629376419671,10.77
1629376419687,10.66
1629376419703,10.55
1629376419718,10.47
1629376419734,10.39
1629376419750,10.23
1629376419765,9.86
1629376419781,9.15
1629376419796,8.04
1629376419812,6.58
1629376419828,4.94
1629376419843,3.33
1629376419859,1.97
1629376419875,0.92
1629376419890,0.16
1629376419906,-0.48
1629376419921,-1.15
1629376419937,-1.99
1629376419953,-3.02
1629376419968,-4.19
1629376419984,-5.45
1629376420000,-6.73
1629376420015,-8.01
1629376420031,-9.28
1629376420046,-10.57
1629376420062,-11.89
1629376420078,-13.3
1629376420093,-14.86
1629376420109,-16.61
1629376420125,-18.57
1629376420140,-20.64
1629376420156,-22.62
1629376420171,-24.18
1629376420187,-24.99
1629376420203,-24.78
1629376420218,-23.48
1629376420234,-21.18
1629376420250,-18.1
1629376420265,-14.54
1629376420281,-10.79
1629376420296,-7.06
1629376420312,-3.49
1629376420328,-0.16
1629376420343,2.89
1629376420359,5.58
1629376420375,7.84
1629376420390,9.62
1629376420406,10.88
1629376420421,11.67
1629376420437,12.09
1629376420453,12.29
1629376420468,12.39
1629376420484,12.5
1629376420500,12.61
1629376420515,12.72
1629376420531,12.76
1629376420546,12.71
1629376420562,12.64
1629376420578,12.6
1629376420593,12.63
1629376420609,12.72
1629376420625,12.79
1629376420640,12.72
1629376420656,12.45
1629376420671,11.99
1629376420687,11.44
1629376420703,10.91
1629376420718,10.46
1629376420734,10.11
1629376420750,9.74
1629376420765,9.26
1629376420781,8.59
1629376420796,7.71
1629376420812,6.67
1629376420828,5.51
1629376420843,4.3
1629376420859,3.07
1629376420875,1.85
1629376420890,0.66
1629376420906,-0.54
1629376420921,-1.77
1629376420937,-3.11
1629376420953,-4.57
1629376420968,-6.14
1629376420984,-7.72
1629376421000,-9.2
1629376421015,-10.48
1629376421031,-11.54
1629376421046,-12.49
1629376421062,-13.5
1629376421078,-14.76
1629376421093,-16.36
1629376421109,-18.26
1629376421125,-20.22
1629376421140,-21.96
1629376421156,-23.13
1629376421171,-23.47
1629376421187,-22.84
1629376421203,-21.22
1629376421218,-18.69
1629376421234,-15.39
1629376421250,-11.56
1629376421265,-7.47
1629376421281,-3.46
1629376421296,0.13
1629376421312,3.06
1629376421328,5.22
1629376421343,6.66
1629376421359,7.56
1629376421375,8.11
1629376421390,8.48
1629376421406,8.73
1629376421421,8.89
1629376421437,8.99
1629376421453,9.14
1629376421468,9.42
1629376421484,9.91
1629376421500,10.54
1629376421515,11.15
1629376421531,11.54
1629376421546,11.6
1629376421562,11.34
1629376421578,10.9
1629376421593,10.48
1629376421609,10.22
1629376421625,10.2
1629376421640,10.34
1629376421656,10.53
1629376421671,10.59
1629376421687,10.35
1629376421703,9.69
1629376421718,8.59
1629376421734,7.14
1629376421750,5.56
1629376421765,4.08
1629376421781,2.85
1629376421796,1.94
1629376421812,1.32
1629376421828,0.88
1629376421843,0.53
1629376421859,0.16
1629376421875,-0.4
1629376421890,-1.29
1629376421906,-2.66
1629376421921,-4.48
1629376421937,-6.57
1629376421953,-8.61
1629376421968,-10.33
1629376421984,-11.63
1629376422000,-12.63
1629376422015,-13.64
1629376422031,-14.91
1629376422046,-16.52
1629376422062,-18.32
1629376422078,-19.94
1629376422093,-20.98
1629376422109,-21.15
1629376422125,-20.34
1629376422140,-18.59
1629376422156,-16.1
1629376422171,-13.12
1629376422187,-9.9
1629376422203,-6.65
1629376422218,-3.59
1629376422234,-0.84
1629376422250,1.49
1629376422265,3.38
1629376422281,4.88
1629376422296,6.05
1629376422312,6.97
1629376422328,7.69
1629376422343,8.21
1629376422359,8.52
1629376422375,8.65
1629376422390,8.64
1629376422406,8.62
1629376422421,8.74
1629376422437,9.11
1629376422453,9.7
1629376422468,10.37
1629376422484,10.9
1629376422500,11.07
1629376422515,10.79
1629376422531,10.13
1629376422546,9.23
1629376422562,8.31
1629376422578,7.51
1629376422593,6.9
1629376422609,6.44
1629376422625,6.04
1629376422640,5.6
1629376422656,5.05
1629376422671,4.36
1629376422687,3.5
1629376422703,2.49
1629376422718,1.37
1629376422734,0.22
1629376422750,-0.85
1629376422765,-1.77
1629376422781,-2.5
1629376422796,-3.12
1629376422812,-3.78
1629376422828,-4.62
1629376422843,-5.77
1629376422859,-7.24
1629376422875,-8.95
1629376422890,-10.76
1629376422906,-12.53
1629376422921,-14.19
1629376422937,-15.77
1629376422953,-17.33
1629376422968,-18.98
1629376422984,-20.73
1629376423000,-22.46
1629376423015,-23.91
1629376423031,-24.78
1629376423046,-24.79
1629376423062,-23.8
1629376423078,-21.88
1629376423093,-19.2
1629376423109,-16.0
1629376423125,-12.54
1629376423140,-9.02
1629376423156,-5.61
1629376423171,-2.44
1629376423187,0.39
1629376423203,2.86
1629376423218,4.99
1629376423234,6.82
1629376423250,8.37
1629376423265,9.59
1629376423281,10.43
1629376423296,10.87
1629376423312,10.96
1629376423328,10.87
1629376423343,10.77
1629376423359,10.79
1629376423375,10.95
1629376423390,11.14
1629376423406,11.22
1629376423421,11.1
1629376423437,10.75
1629376423453,10.28
1629376423468,9.83
1629376423484,9.53
1629376423500,9.41
1629376423515,9.4
1629376423531,9.37
1629376423546,9.2
1629376423562,8.84
1629376423578,8.31
1629376423593,7.65
1629376423609,6.88
1629376423625,6.02
1629376423640,5.04
1629376423656,3.95
1629376423671,2.8
1629376423687,1.68
1629376423703,0.65
1629376423718,-0.24
1629376423734,-0.99
1629376423750,-1.67
1629376423765,-2.37
1629376423781,-3.2
1629376423796,-4.23
1629376423812,-5.46
1629376423828,-6.83
1629376423843,-8.23
1629376423859,-9.59
1629376423875,-10.88
1629376423890,-12.2
1629376423906,-13.7
1629376423921,-15.5
1629376423937,-17.55
1629376423953,-19.63
1629376423968,-21.34
1629376423984,-22.26
1629376424000,-22.06
1629376424015,-20.63
1629376424031,-18.1
1629376424046,-14.79
1629376424062,-11.09
1629376424078,-7.33
1629376424093,-3.75
1629376424109,-0.48
1629376424125,2.46
1629376424140,5.06
1629376424156,7.32
1629376424171,9.23
1629376424187,10.78
1629376424203,11.96
1629376424218,12.82
1629376424234,13.42
1629376424250,13.84
1629376424265,14.16
1629376424281,14.48
1629376424296,14.86
1629376424312,15.27
1629376424328,15.64
1629376424343,15.88
1629376424359,15.89
1629376424375,15.64
1629376424390,15.17
1629376424406,14.56
1629376424421,13.87
1629376424437,13.1
1629376424453,12.27
1629376424468,11.35
1629376424484,10.41
1629376424500,9.51
1629376424515,8.7
1629376424531,7.95
1629376424546,7.19
1629376424562,6.3
1629376424578,5.23
1629376424593,3.98
1629376424609,2.62
1629376424625,1.25
1629376424640,-0.11
1629376424656,-1.47
1629376424671,-2.86
1629376424687,-4.28
1629376424703,-5.66
1629376424718,-6.9
1629376424734,-7.93
1629376424750,-8.76
1629376424765,-9.51
1629376424781,-10.36
1629376424796,-11.49
1629376424812,-12.97
1629376424828,-14.8
1629376424843,-16.83
1629376424859,-18.85
1629376424875,-20.6
1629376424890,-21.81
1629376424906,-22.26
1629376424921,-21.75
1629376424937,-20.22
1629376424953,-17.72
1629376424968,-14.48
1629376424984,-10.82
1629376425000,-7.1
1629376425015,-3.62
1629376425031,-0.54
1629376425046,2.07
1629376425062,4.28
1629376425078,6.15
1629376425093,7.74
1629376425109,9.06
1629376425125,10.1
1629376425140,10.87
1629376425156,11.38
1629376425171,11.69
