timestamp,bvp
1630588169000,-12.32
1630588169015,-11.88
1630588169031,-11.97
1630588169046,-13.24
1630588169062,-16.1
1630588169078,-20.55
1630588169093,-26.23
1630588169109,-32.51
1630588169125,-38.58
1630588169140,-43.59
1630588169156,-46.75
1630588169171,-47.46
1630588169187,-45.46
1630588169203,-40.87
1630588169218,-34.26
1630588169234,-26.51
1630588169250,-18.64
1630588169265,-11.54
1630588169281,-5.75
1630588169296,-1.39
1630588169312,1.8
1630588169328,4.23
1630588169343,6.29
1630588169359,8.12
1630588169375,9.63
1630588169390,10.64
1630588169406,11.09
1630588169421,11.11
1630588169437,11.01
1630588169453,11.14
1630588169468,11.69
1630588169484,12.64
1630588169500,13.79
1630588169515,14.9
1630588169531,15.78
1630588169546,16.35
1630588169562,16.58
1630588169578,16.48
1630588169593,16.03
1630588169609,15.24
1630588169625,14.17
1630588169640,12.91
1630588169656,11.53
1630588169671,10.1
1630588169687,8.63
1630588169703,7.14
1630588169718,5.63
1630588169734,4.1
1630588169750,2.57
1630588169765,1.01
1630588169781,-0.59
1630588169796,-2.23
1630588169812,-3.93
1630588169828,-5.71
1630588169843,-7.64
1630588169859,-9.8
1630588169875,-12.28
1630588169890,-15.09
1630588169906,-18.07
1630588169921,-20.83
1630588169937,-22.76
1630588169953,-23.16
1630588169968,-21.48
1630588169984,-17.5
1630588170000,-11.56
1630588170015,-4.42
1630588170031,2.95
1630588170046,9.64
1630588170062,15.17
1630588170078,19.48
1630588170093,22.83
1630588170109,25.52
1630588170125,27.71
1630588170140,29.34
1630588170156,30.23
1630588170171,30.26
1630588170187,29.45
1630588170203,28.0
1630588170218,26.27
1630588170234,24.55
1630588170250,23.12
1630588170265,22.1
1630588170281,21.49
1630588170296,21.24
1630588170312,21.21
1630588170328,21.25
1630588170343,21.21
1630588170359,20.96
1630588170375,20.4
1630588170390,19.43
1630588170406,17.94
1630588170421,15.81
1630588170437,13.04
1630588170453,9.74
1630588170468,6.19
1630588170484,2.71
1630588170500,-0.45
1630588170515,-3.21
1630588170531,-5.69
1630588170546,-8.02
1630588170562,-10.25
1630588170578,-12.26
1630588170593,-13.88
1630588170609,-15.04
1630588170625,-15.94
1630588170640,-17.02
1630588170656,-18.86
1630588170671,-21.88
1630588170687,-26.1
1630588170703,-31.04
1630588170718,-35.77
1630588170734,-39.22
1630588170750,-40.47
1630588170765,-39.02
1630588170781,-34.88
1630588170796,-28.54
1630588170812,-20.79
1630588170828,-12.43
1630588170843,-4.15
1630588170859,3.51
1630588170875,10.11
1630588170890,15.35
1630588170906,19.06
1630588170921,21.3
1630588170937,22.42
1630588170953,22.98
1630588170968,23.56
1630588170984,24.53
1630588171000,25.97
1630588171015,27.66
1630588171031,29.26
1630588171046,30.51
1630588171062,31.39
1630588171078,32.11
1630588171093,33.02
1630588171109,34.39
1630588171125,36.28
1630588171140,38.43
1630588171156,40.42
1630588171171,41.9
1630588171187,42.78
1630588171203,43.34
1630588171218,44.14
1630588171234,45.71
1630588171250,48.27
1630588171265,51.55
1630588171281,54.89
1630588171296,57.56
1630588171312,59.06
1630588171328,59.44
1630588171343,59.29
1630588171359,59.5
1630588171375,60.89
1630588171390,63.9
1630588171406,68.37
1630588171421,73.63
1630588171437,78.66
1630588171453,82.55
1630588171468,84.7
1630588171484,85.16
1630588171500,84.61
1630588171515,84.39
1630588171531,86.13
1630588171546,91.35
1630588171562,100.92
1630588171578,114.45
1630588171593,129.97
1630588171609,144.08
1630588171625,152.64
1630588171640,151.95
1630588171656,140.02
1630588171671,117.17
1630588171687,86.03
1630588171703,50.51
1630588171718,14.46
1630588171734,-19.32
1630588171750,-49.5
1630588171765,-75.81
1630588171781,-98.36
1630588171796,-117.04
1630588171812,-131.48
1630588171828,-141.36
1630588171843,-146.84
1630588171859,-148.53
1630588171875,-147.25
1630588171890,-143.6
1630588171906,-137.6
1630588171921,-128.95
1630588171937,-117.41
1630588171953,-103.35
1630588171968,-87.81
1630588171984,-72.34
1630588172000,-58.43
1630588172015,-46.91
1630588172031,-37.74
1630588172046,-30.02
1630588172062,-22.36
1630588172078,-13.33
1630588172093,-1.87
1630588172109,12.3
1630588172125,28.5
1630588172140,45.06
1630588172156,59.49
1630588172171,68.89
1630588172187,70.53
1630588172203,62.49
1630588172218,44.24
1630588172234,16.84
1630588172250,-17.19
1630588172265,-54.53
1630588172281,-91.85
1630588172296,-126.6
1630588172312,-157.35
1630588172328,-183.63
1630588172343,-205.33
1630588172359,-222.06
1630588172375,-232.92
1630588172390,-236.75
1630588172406,-232.85
1630588172421,-221.74
1630588172437,-205.37
1630588172453,-186.68
1630588172468,-168.57
1630588172484,-153.04
1630588172500,-140.57
1630588172515,-130.34
1630588172531,-120.73
1630588172546,-110.06
1630588172562,-97.02
1630588172578,-80.89
1630588172593,-61.62
1630588172609,-39.82
1630588172625,-16.78
1630588172640,5.79
1630588172656,26.2
1630588172671,43.42
1630588172687,57.51
1630588172703,69.65
1630588172718,81.67
1630588172734,95.22
1630588172750,110.97
1630588172765,128.06
1630588172781,144.02
1630588172796,154.96
1630588172812,156.47
1630588172828,144.92
1630588172843,118.95
1630588172859,80.44
1630588172875,34.53
1630588172890,-11.91
1630588172906,-52.38
1630588172921,-82.78
1630588172937,-102.31
1630588172953,-112.78
1630588172968,-117.05
1630588172984,-117.43
1630588173000,-114.96
1630588173015,-109.77
1630588173031,-101.93
1630588173046,-92.07
1630588173062,-81.28
1630588173078,-70.4
1630588173093,-59.46
1630588173109,-47.52
1630588173125,-33.22
1630588173140,-15.6
1630588173156,5.33
1630588173171,28.54
1630588173187,52.43
1630588173203,75.48
1630588173218,96.79
1630588173234,116.36
1630588173250,134.98
1630588173265,153.89
1630588173281,174.29
1630588173296,196.71
1630588173312,220.43
1630588173328,243.19
1630588173343,261.58
1630588173359,272.05
1630588173375,272.34
1630588173390,262.46
1630588173406,244.87
1630588173421,223.5
1630588173437,202.04
1630588173453,182.49
1630588173468,164.47
1630588173484,145.9
1630588173500,124.32
1630588173515,98.3
1630588173531,68.16
1630588173546,35.83
1630588173562,3.95
1630588173578,-25.03
1630588173593,-49.67
1630588173609,-69.74
1630588173625,-86.13
1630588173640,-100.23
1630588173656,-113.26
1630588173671,-125.36
1630588173687,-134.98
1630588173703,-138.88
1630588173718,-133.0
1630588173734,-113.95
1630588173750,-80.77
1630588173765,-35.91
1630588173781,14.98
1630588173796,64.53
1630588173812,105.9
1630588173828,134.67
1630588173843,149.74
1630588173859,153.04
1630588173875,148.23
1630588173890,139.43
1630588173906,130.14
1630588173921,122.78
1630588173937,118.52
1630588173953,117.22
1630588173968,117.26
1630588173984,115.74
1630588174000,109.06
1630588174015,93.99
1630588174031,68.84
1630588174046,34.25
1630588174062,-6.64
1630588174078,-48.89
1630588174093,-87.01
1630588174109,-116.47
1630588174125,-134.94
1630588174140,-142.82
1630588174156,-142.99
1630588174171,-139.72
1630588174187,-137.15
1630588174203,-138.14
1630588174218,-143.57
1630588174234,-152.74
1630588174250,-164.1
1630588174265,-176.23
1630588174281,-188.19
1630588174296,-199.48
1630588174312,-209.67
1630588174328,-218.19
1630588174343,-224.36
1630588174359,-227.71
1630588174375,-228.22
1630588174390,-226.28
1630588174406,-222.52
1630588174421,-217.47
1630588174437,-211.37
1630588174453,-204.02
1630588174468,-194.95
1630588174484,-183.72
1630588174500,-170.19
1630588174515,-154.78
1630588174531,-138.32
1630588174546,-121.71
1630588174562,-105.26
1630588174578,-88.42
1630588174593,-69.76
1630588174609,-47.77
1630588174625,-21.78
1630588174640,7.19
1630588174656,36.3
1630588174671,61.66
1630588174687,79.8
1630588174703,88.97
1630588174718,89.74
1630588174734,84.61
1630588174750,76.74
1630588174765,68.79
1630588174781,62.11
1630588174796,56.82
1630588174812,52.43
1630588174828,48.58
1630588174843,45.44
1630588174859,43.55
1630588174875,43.34
1630588174890,44.74
1630588174906,46.96
1630588174921,48.82
1630588174937,49.2
1630588174953,47.54
1630588174968,43.88
1630588174984,38.76
1630588175000,32.86
1630588175015,26.78
1630588175031,20.82
1630588175046,14.92
1630588175062,8.91
1630588175078,2.62
1630588175093,-3.9
1630588175109,-10.37
1630588175125,-16.42
1630588175140,-21.83
1630588175156,-26.71
1630588175171,-31.49
1630588175187,-36.73
1630588175203,-42.73
1630588175218,-49.28
1630588175234,-55.53
1630588175250,-60.1
1630588175265,-61.58
1630588175281,-59.0
1630588175296,-52.15
1630588175312,-41.71
1630588175328,-28.93
1630588175343,-15.18
1630588175359,-1.63
1630588175375,10.98
1630588175390,22.19
1630588175406,31.73
1630588175421,39.37
1630588175437,44.94
1630588175453,48.43
1630588175468,50.07
1630588175484,50.27
1630588175500,49.5
1630588175515,48.16
1630588175531,46.47
1630588175546,44.47
1630588175562,42.2
1630588175578,39.74
1630588175593,37.31
1630588175609,35.16
1630588175625,33.47
1630588175640,32.24
1630588175656,31.3
1630588175671,30.33
1630588175687,29.0
1630588175703,27.1
1630588175718,24.61
1630588175734,21.65
1630588175750,18.39
1630588175765,15.04
1630588175781,11.68
1630588175796,8.4
1630588175812,5.19
1630588175828,1.99
1630588175843,-1.35
1630588175859,-5.07
1630588175875,-9.42
1630588175890,-14.58
1630588175906,-20.46
1630588175921,-26.64
1630588175937,-32.29
1630588175953,-36.4
1630588175968,-38.03
1630588175984,-36.61
1630588176000,-32.2
1630588176015,-25.46
1630588176031,-17.48
1630588176046,-9.46
1630588176062,-2.32
1630588176078,3.5
1630588176093,8.01
1630588176109,11.58
1630588176125,14.58
1630588176140,17.27
1630588176156,19.63
1630588176171,21.56
1630588176187,22.93
1630588176203,23.79
1630588176218,24.33
1630588176234,24.73
1630588176250,25.09
1630588176265,25.29
1630588176281,25.13
1630588176296,24.46
1630588176312,23.38
1630588176328,22.19
1630588176343,21.32
1630588176359,21.03
1630588176375,21.24
1630588176390,21.47
1630588176406,21.06
1630588176421,19.49
1630588176437,16.66
1630588176453,12.97
1630588176468,9.15
1630588176484,5.92
1630588176500,3.65
1630588176515,2.19
1630588176531,0.97
1630588176546,-0.76
1630588176562,-3.63
1630588176578,-7.88
1630588176593,-13.33
1630588176609,-19.37
1630588176625,-25.17
1630588176640,-29.82
1630588176656,-32.49
1630588176671,-32.66
1630588176687,-30.23
1630588176703,-25.56
1630588176718,-19.35
1630588176734,-12.41
1630588176750,-5.39
1630588176765,1.28
1630588176781,7.43
1630588176796,12.99
1630588176812,17.82
1630588176828,21.75
1630588176843,24.66
1630588176859,26.57
1630588176875,27.67
1630588176890,28.25
1630588176906,28.48
1630588176921,28.41
1630588176937,27.89
1630588176953,26.85
1630588176968,25.34
1630588176984,23.69
1630588177000,22.27
1630588177015,21.41
1630588177031,21.15
1630588177046,21.27
1630588177062,21.3
1630588177078,20.79
1630588177093,19.5
1630588177109,17.45
1630588177125,14.91
1630588177140,12.16
1630588177156,9.45
1630588177171,6.84
1630588177187,4.33
1630588177203,1.97
1630588177218,-0.14
1630588177234,-1.89
1630588177250,-3.29
1630588177265,-4.59
1630588177281,-6.31
1630588177296,-8.94
1630588177312,-12.77
1630588177328,-17.57
1630588177343,-22.6
1630588177359,-26.74
1630588177375,-28.9
1630588177390,-28.35
1630588177406,-24.95
1630588177421,-19.16
1630588177437,-11.83
1630588177453,-3.94
1630588177468,3.68
1630588177484,10.51
1630588177500,16.35
1630588177515,21.18
1630588177531,25.05
1630588177546,27.98
1630588177562,30.03
1630588177578,31.29
1630588177593,32.01
1630588177609,32.44
1630588177625,32.81
1630588177640,33.17
1630588177656,33.43
1630588177671,33.39
1630588177687,32.91
1630588177703,32.0
1630588177718,30.77
1630588177734,29.44
1630588177750,28.19
1630588177765,27.13
1630588177781,26.21
1630588177796,25.37
1630588177812,24.53
1630588177828,23.6
1630588177843,22.5
1630588177859,21.13
1630588177875,19.38
1630588177890,17.19
1630588177906,14.57
1630588177921,11.73
1630588177937,8.91
1630588177953,6.34
1630588177968,4.09
1630588177984,1.98
1630588178000,-0.36
1630588178015,-3.31
1630588178031,-7.09
1630588178046,-11.61
1630588178062,-16.45
1630588178078,-20.94
1630588178093,-24.33
1630588178109,-25.96
1630588178125,-25.47
1630588178140,-22.83
1630588178156,-18.38
1630588178171,-12.66
1630588178187,-6.33
1630588178203,0.02
1630588178218,5.94
1630588178234,11.13
1630588178250,15.43
1630588178265,18.76
1630588178281,21.13
1630588178296,22.63
1630588178312,23.44
1630588178328,23.76
1630588178343,23.78
1630588178359,23.59
1630588178375,23.21
1630588178390,22.65
1630588178406,21.9
1630588178421,21.05
1630588178437,20.14
1630588178453,19.22
1630588178468,18.3
1630588178484,17.42
1630588178500,16.64
1630588178515,16.03
1630588178531,15.6
1630588178546,15.27
1630588178562,14.83
1630588178578,14.02
1630588178593,12.65
1630588178609,10.67
1630588178625,8.18
1630588178640,5.42
1630588178656,2.62
1630588178671,0.01
1630588178687,-2.31
1630588178703,-4.27
1630588178718,-5.95
1630588178734,-7.46
1630588178750,-9.07
1630588178765,-11.06
1630588178781,-13.71
1630588178796,-17.02
1630588178812,-20.66
1630588178828,-23.94
1630588178843,-25.94
1630588178859,-25.84
1630588178875,-23.18
1630588178890,-18.14
1630588178906,-11.4
1630588178921,-4.04
1630588178937,2.95
1630588178953,8.87
1630588178968,13.5
1630588178984,16.91
1630588179000,19.35
1630588179015,20.96
1630588179031,21.75
1630588179046,21.69
1630588179062,20.88
1630588179078,19.55
1630588179093,18.09
1630588179109,16.81
1630588179125,15.83
1630588179140,15.02
1630588179156,14.16
1630588179171,13.07
1630588179187,11.77
1630588179203,10.5
1630588179218,9.5
1630588179234,8.95
1630588179250,8.85
1630588179265,9.01
1630588179281,9.17
1630588179296,9.02
1630588179312,8.34
1630588179328,7.01
1630588179343,5.09
1630588179359,2.69
1630588179375,0.06
1630588179390,-2.58
1630588179406,-5.09
1630588179421,-7.38
1630588179437,-9.49
1630588179453,-11.5
1630588179468,-13.55
1630588179484,-15.78
1630588179500,-18.37
1630588179515,-21.39
1630588179531,-24.77
1630588179546,-28.19
1630588179562,-31.08
1630588179578,-32.81
1630588179593,-32.79
1630588179609,-30.8
1630588179625,-26.97
1630588179640,-21.81
1630588179656,-16.01
1630588179671,-10.25
1630588179687,-5.01
1630588179703,-0.53
1630588179718,3.16
1630588179734,6.13
1630588179750,8.45
1630588179765,10.11
1630588179781,11.05
1630588179796,11.24
1630588179812,10.76
1630588179828,9.82
1630588179843,8.73
1630588179859,7.77
1630588179875,7.14
1630588179890,6.82
1630588179906,6.68
1630588179921,6.51
1630588179937,6.2
1630588179953,5.77
1630588179968,5.29
1630588179984,4.92
1630588180000,4.71
1630588180015,4.58
1630588180031,4.38
1630588180046,3.92
1630588180062,3.1
1630588180078,1.94
1630588180093,0.61
1630588180109,-0.71
1630588180125,-1.89
1630588180140,-2.95
1630588180156,-3.96
1630588180171,-5.07
1630588180187,-6.25
1630588180203,-7.42
1630588180218,-8.45
1630588180234,-9.32
1630588180250,-10.19
1630588180265,-11.37
1630588180281,-13.16
1630588180296,-15.63
1630588180312,-18.5
1630588180328,-21.15
1630588180343,-22.84
1630588180359,-22.98
1630588180375,-21.31
1630588180390,-18.0
1630588180406,-13.55
1630588180421,-8.54
1630588180437,-3.54
1630588180453,1.1
1630588180468,5.14
1630588180484,8.45
1630588180500,10.93
1630588180515,12.49
1630588180531,13.07
1630588180546,12.72
1630588180562,11.64
1630588180578,10.12
1630588180593,8.57
1630588180609,7.34
1630588180625,6.7
1630588180640,6.75
1630588180656,7.4
1630588180671,8.38
1630588180687,9.3
1630588180703,9.77
1630588180718,9.54
1630588180734,8.61
1630588180750,7.23
1630588180765,5.78
1630588180781,4.6
1630588180796,3.81
1630588180812,3.3
1630588180828,2.76
1630588180843,1.91
1630588180859,0.63
1630588180875,-1.02
1630588180890,-2.8
1630588180906,-4.5
1630588180921,-6.06
1630588180937,-7.59
1630588180953,-9.24
1630588180968,-11.1
1630588180984,-13.17
1630588181000,-15.3
1630588181015,-17.42
1630588181031,-19.53
1630588181046,-21.75
1630588181062,-24.15
1630588181078,-26.56
1630588181093,-28.49
1630588181109,-29.26
1630588181125,-28.28
1630588181140,-25.27
1630588181156,-20.49
1630588181171,-14.61
1630588181187,-8.47
1630588181203,-2.81
1630588181218,1.97
1630588181234,5.74
1630588181250,8.52
1630588181265,10.34
1630588181281,11.16
1630588181296,10.95
1630588181312,9.84
1630588181328,8.14
1630588181343,6.36
1630588181359,5.0
1630588181375,4.38
1630588181390,4.5
1630588181406,5.13
1630588181421,5.84
1630588181437,6.28
1630588181453,6.24
1630588181468,5.77
1630588181484,5.09
1630588181500,4.48
1630588181515,4.17
1630588181531,4.19
1630588181546,4.34
1630588181562,4.32
1630588181578,3.84
1630588181593,2.76
1630588181609,1.21
1630588181625,-0.55
1630588181640,-2.21
1630588181656,-3.57
1630588181671,-4.6
1630588181687,-5.43
1630588181703,-6.19
1630588181718,-7.06
1630588181734,-8.16
1630588181750,-9.65
1630588181765,-11.72
1630588181781,-14.42
1630588181796,-17.64
1630588181812,-20.94
1630588181828,-23.67
1630588181843,-25.11
1630588181859,-24.73
1630588181875,-22.4
1630588181890,-18.4
1630588181906,-13.35
1630588181921,-8.01
1630588181937,-3.02
1630588181953,1.2
1630588181968,4.49
1630588181984,6.9
1630588182000,8.53
1630588182015,9.5
1630588182031,9.8
1630588182046,9.44
1630588182062,8.42
1630588182078,6.94
1630588182093,5.32
1630588182109,4.02
1630588182125,3.41
1630588182140,3.65
1630588182156,4.57
1630588182171,5.75
1630588182187,6.65
1630588182203,6.93
1630588182218,6.56
1630588182234,5.83
1630588182250,5.17
1630588182265,4.86
1630588182281,4.91
1630588182296,5.02
1630588182312,4.82
1630588182328,4.03
1630588182343,2.66
1630588182359,0.94
1630588182375,-0.78
1630588182390,-2.28
1630588182406,-3.53
1630588182421,-4.77
1630588182437,-6.26
1630588182453,-8.16
1630588182468,-10.43
1630588182484,-12.87
1630588182500,-15.21
1630588182515,-17.32
1630588182531,-19.23
1630588182546,-21.01
1630588182562,-22.57
1630588182578,-23.63
1630588182593,-23.69
1630588182609,-22.31
1630588182625,-19.32
1630588182640,-15.05
1630588182656,-10.18
1630588182671,-5.52
1630588182687,-1.64
1630588182703,1.28
1630588182718,3.43
1630588182734,5.16
1630588182750,6.67
1630588182765,7.96
1630588182781,8.82
1630588182796,9.02
1630588182812,8.55
1630588182828,7.67
1630588182843,6.84
1630588182859,6.44
1630588182875,6.64
1630588182890,7.29
1630588182906,8.0
1630588182921,8.41
1630588182937,8.33
1630588182953,7.85
1630588182968,7.27
1630588182984,6.89
1630588183000,6.88
1630588183015,7.12
1630588183031,7.28
1630588183046,6.95
1630588183062,5.8
1630588183078,3.76
1630588183093,1.09
1630588183109,-1.75
1630588183125,-4.27
1630588183140,-6.14
1630588183156,-7.32
1630588183171,-8.07
1630588183187,-8.8
1630588183203,-9.87
1630588183218,-11.52
1630588183234,-13.84
1630588183250,-16.78
1630588183265,-20.23
1630588183281,-23.91
1630588183296,-27.43
1630588183312,-30.2
1630588183328,-31.55
1630588183343,-30.97
1630588183359,-28.24
1630588183375,-23.61
1630588183390,-17.71
1630588183406,-11.37
1630588183421,-5.33
1630588183437,-0.05
1630588183453,4.28
1630588183468,7.7
1630588183484,10.28
1630588183500,12.02
1630588183515,12.89
1630588183531,12.89
1630588183546,12.12
1630588183562,10.84
1630588183578,9.39
1630588183593,8.09
1630588183609,7.16
1630588183625,6.7
1630588183640,6.61
1630588183656,6.76
1630588183671,6.94
1630588183687,6.97
1630588183703,6.75
1630588183718,6.29
1630588183734,5.66
1630588183750,5.02
1630588183765,4.48
1630588183781,4.05
1630588183796,3.64
1630588183812,3.09
1630588183828,2.28
1630588183843,1.2
1630588183859,-0.03
1630588183875,-1.24
1630588183890,-2.27
1630588183906,-3.06
1630588183921,-3.78
1630588183937,-4.67
1630588183953,-6.05
1630588183968,-8.14
1630588183984,-10.99
1630588184000,-14.42
1630588184015,-18.04
1630588184031,-21.37
1630588184046,-23.88
1630588184062,-25.15
1630588184078,-24.92
1630588184093,-23.12
1630588184109,-19.87
1630588184125,-15.47
1630588184140,-10.33
1630588184156,-4.89
1630588184171,0.41
1630588184187,5.28
1630588184203,9.56
1630588184218,13.21
1630588184234,16.23
1630588184250,18.59
1630588184265,20.26
1630588184281,21.16
1630588184296,21.24
1630588184312,20.58
1630588184328,19.41
1630588184343,18.12
1630588184359,17.12
1630588184375,16.72
1630588184390,16.93
1630588184406,17.51
1630588184421,18.07
1630588184437,18.28
1630588184453,17.97
1630588184468,17.28
1630588184484,16.47
1630588184500,15.79
1630588184515,15.33
1630588184531,14.91
1630588184546,14.19
1630588184562,12.91
1630588184578,10.96
1630588184593,8.44
1630588184609,5.63
1630588184625,2.77
1630588184640,0.04
1630588184656,-2.52
1630588184671,-4.96
1630588184687,-7.33
1630588184703,-9.61
1630588184718,-11.78
1630588184734,-13.77
1630588184750,-15.66
1630588184765,-17.65
1630588184781,-20.0
1630588184796,-22.87
1630588184812,-26.12
1630588184828,-29.22
1630588184843,-31.33
1630588184859,-31.54
1630588184875,-29.28
1630588184890,-24.53
1630588184906,-17.84
1630588184921,-10.18
1630588184937,-2.51
1630588184953,4.44
1630588184968,10.33
1630588184984,15.17
1630588185000,19.03
1630588185015,21.98
1630588185031,23.99
1630588185046,25.02
1630588185062,25.08
1630588185078,24.31
1630588185093,22.97
1630588185109,21.36
1630588185125,19.7
1630588185140,18.15
1630588185156,16.75
1630588185171,15.53
1630588185187,14.42
1630588185203,13.32
1630588185218,12.16
1630588185234,10.91
1630588185250,9.6
1630588185265,8.32
1630588185281,7.12
1630588185296,5.96
1630588185312,4.72
1630588185328,3.23
1630588185343,1.37
1630588185359,-0.84
1630588185375,-3.29
1630588185390,-5.8
1630588185406,-8.27
1630588185421,-10.77
1630588185437,-13.48
1630588185453,-16.6
1630588185468,-20.16
1630588185484,-24.05
1630588185500,-28.05
1630588185515,-32.01
1630588185531,-35.98
1630588185546,-40.15
1630588185562,-44.76
1630588185578,-49.91
1630588185593,-55.34
1630588185609,-60.49
1630588185625,-64.61
1630588185640,-67.02
1630588185656,-67.35
1630588185671,-65.67
1630588185687,-62.46
1630588185703,-58.48
1630588185718,-54.52
1630588185734,-51.19
1630588185750,-48.8
1630588185765,-47.4
1630588185781,-46.94
1630588185796,-47.38
1630588185812,-48.8
1630588185828,-51.26
1630588185843,-54.7
1630588185859,-58.89
1630588185875,-63.52
1630588185890,-68.31
1630588185906,-72.98
1630588185921,-76.94
1630588185937,-79.11
1630588185953,-77.77
1630588185968,-70.99
1630588185984,-57.28
1630588186000,-36.34
1630588186015,-9.4
1630588186031,20.92
1630588186046,51.21
1630588186062,78.06
1630588186078,98.62
1630588186093,111.12
1630588186109,114.99
1630588186125,111.06
1630588186140,101.38
1630588186156,88.85
1630588186171,76.45
1630588186187,66.38
1630588186203,59.55
1630588186218,55.53
1630588186234,53.01
1630588186250,50.67
1630588186265,47.75
1630588186281,44.2
1630588186296,40.41
1630588186312,36.72
1630588186328,33.27
1630588186343,30.11
1630588186359,27.4
1630588186375,25.45
1630588186390,24.43
1630588186406,23.81
1630588186421,22.33
1630588186437,18.38
1630588186453,10.97
1630588186468,0.53
1630588186484,-10.76
1630588186500,-19.7
1630588186515,-23.31
1630588186531,-20.12
1630588186546,-10.85
1630588186562,1.95
1630588186578,14.9
1630588186593,25.04
1630588186609,30.54
1630588186625,31.01
1630588186640,27.19
1630588186656,20.46
1630588186671,12.47
1630588186687,4.87
1630588186703,-0.92
1630588186718,-3.76
1630588186734,-2.95
1630588186750,1.64
1630588186765,9.47
1630588186781,19.31
1630588186796,29.48
1630588186812,38.22
1630588186828,44.23
1630588186843,46.97
1630588186859,46.82
1630588186875,44.75
1630588186890,41.94
1630588186906,39.29
1630588186921,37.1
1630588186937,35.15
1630588186953,33.02
1630588186968,30.41
1630588186984,27.39
1630588187000,24.33
1630588187015,21.59
1630588187031,19.23
1630588187046,16.89
1630588187062,13.9
1630588187078,9.69
1630588187093,4.09
1630588187109,-2.57
1630588187125,-9.51
1630588187140,-15.84
1630588187156,-20.77
1630588187171,-23.79
1630588187187,-24.64
1630588187203,-23.31
1630588187218,-19.98
1630588187234,-15.04
1630588187250,-9.17
1630588187265,-3.11
1630588187281,2.44
1630588187296,7.04
1630588187312,10.65
1630588187328,13.5
1630588187343,15.93
1630588187359,18.22
1630588187375,20.4
1630588187390,22.32
1630588187406,23.76
1630588187421,24.57
1630588187437,24.74
1630588187453,24.46
1630588187468,24.0
1630588187484,23.59
1630588187500,23.41
1630588187515,23.47
1630588187531,23.68
1630588187546,23.94
1630588187562,24.1
1630588187578,24.08
1630588187593,23.85
1630588187609,23.34
1630588187625,22.49
1630588187640,21.23
1630588187656,19.46
1630588187671,17.18
1630588187687,14.44
1630588187703,11.4
1630588187718,8.23
1630588187734,5.15
1630588187750,2.29
1630588187765,-0.33
1630588187781,-2.77
1630588187796,-5.2
1630588187812,-7.8
1630588187828,-10.68
1630588187843,-13.81
1630588187859,-17.09
1630588187875,-20.35
1630588187890,-23.47
1630588187906,-26.33
1630588187921,-28.8
1630588187937,-30.64
1630588187953,-31.52
1630588187968,-31.07
1630588187984,-29.11
1630588188000,-25.68
1630588188015,-21.15
1630588188031,-16.11
1630588188046,-11.12
1630588188062,-6.63
1630588188078,-2.82
1630588188093,0.32
1630588188109,2.9
1630588188125,5.0
1630588188140,6.63
1630588188156,7.75
1630588188171,8.36
1630588188187,8.51
1630588188203,8.33
1630588188218,7.96
1630588188234,7.53
1630588188250,7.06
1630588188265,6.5
1630588188281,5.8
1630588188296,4.95
1630588188312,4.01
1630588188328,3.18
1630588188343,2.63
1630588188359,2.46
1630588188375,2.59
1630588188390,2.82
1630588188406,2.88
1630588188421,2.51
1630588188437,1.56
1630588188453,-0.02
1630588188468,-2.1
1630588188484,-4.47
1630588188500,-6.87
1630588188515,-9.01
1630588188531,-10.69
1630588188546,-11.86
1630588188562,-12.68
1630588188578,-13.47
1630588188593,-14.65
1630588188609,-16.54
1630588188625,-19.2
1630588188640,-22.42
1630588188656,-25.68
1630588188671,-28.31
1630588188687,-29.66
1630588188703,-29.3
1630588188718,-27.08
1630588188734,-23.2
1630588188750,-18.13
1630588188765,-12.51
1630588188781,-6.94
1630588188796,-1.86
1630588188812,2.48
1630588188828,6.01
1630588188843,8.75
1630588188859,10.8
1630588188875,12.25
1630588188890,13.17
1630588188906,13.62
1630588188921,13.67
1630588188937,13.38
1630588188953,12.85
1630588188968,12.19
1630588188984,11.58
1630588189000,11.12
1630588189015,10.9
1630588189031,10.88
1630588189046,10.95
1630588189062,10.94
1630588189078,10.71
1630588189093,10.18
1630588189109,9.35
1630588189125,8.28
1630588189140,7.01
1630588189156,5.55
1630588189171,3.82
1630588189187,1.75
1630588189203,-0.66
1630588189218,-3.26
1630588189234,-5.8
1630588189250,-8.0
1630588189265,-9.74
1630588189281,-11.18
1630588189296,-12.65
1630588189312,-14.59
1630588189328,-17.26
1630588189343,-20.66
1630588189359,-24.41
1630588189375,-27.96
1630588189390,-30.74
1630588189406,-32.29
1630588189421,-32.37
1630588189437,-30.93
1630588189453,-28.05
1630588189468,-23.94
1630588189484,-18.92
1630588189500,-13.39
1630588189515,-7.79
1630588189531,-2.56
1630588189546,2.06
1630588189562,5.93
1630588189578,9.1
1630588189593,11.68
1630588189609,13.75
1630588189625,15.37
1630588189640,16.5
1630588189656,17.14
1630588189671,17.26
1630588189687,16.98
1630588189703,16.37
1630588189718,15.58
1630588189734,14.69
1630588189750,13.78
1630588189765,12.89
1630588189781,12.01
1630588189796,11.15
1630588189812,10.32
1630588189828,9.58
1630588189843,8.99
1630588189859,8.59
1630588189875,8.33
1630588189890,8.04
1630588189906,7.52
1630588189921,6.6
1630588189937,5.19
1630588189953,3.33
1630588189968,1.21
1630588189984,-0.98
1630588190000,-3.02
1630588190015,-4.72
1630588190031,-6.04
1630588190046,-7.07
1630588190062,-8.06
1630588190078,-9.37
1630588190093,-11.39
1630588190109,-14.31
1630588190125,-18.09
1630588190140,-22.38
1630588190156,-26.56
1630588190171,-29.95
1630588190187,-31.92
1630588190203,-32.09
1630588190218,-30.38
1630588190234,-27.0
1630588190250,-22.4
1630588190265,-17.12
1630588190281,-11.68
1630588190296,-6.44
1630588190312,-1.63
1630588190328,2.59
1630588190343,6.15
1630588190359,9.01
1630588190375,11.18
1630588190390,12.75
1630588190406,13.9
1630588190421,14.81
1630588190437,15.56
1630588190453,16.15
1630588190468,16.56
1630588190484,16.73
1630588190500,16.72
1630588190515,16.59
1630588190531,16.48
1630588190546,16.44
1630588190562,16.49
1630588190578,16.6
1630588190593,16.75
1630588190609,16.88
1630588190625,16.92
1630588190640,16.75
1630588190656,16.28
1630588190671,15.43
1630588190687,14.27
1630588190703,12.94
1630588190718,11.67
1630588190734,10.69
1630588190750,10.09
1630588190765,9.76
1630588190781,9.38
1630588190796,8.56
1630588190812,6.98
1630588190828,4.59
1630588190843,1.63
1630588190859,-1.44
1630588190875,-4.14
1630588190890,-6.21
1630588190906,-7.7
1630588190921,-8.94
1630588190937,-10.33
1630588190953,-12.2
1630588190968,-14.64
1630588190984,-17.46
1630588191000,-20.28
1630588191015,-22.58
1630588191031,-23.83
1630588191046,-23.62
1630588191062,-21.77
1630588191078,-18.36
1630588191093,-13.71
1630588191109,-8.28
1630588191125,-2.57
1630588191140,3.03
1630588191156,8.17
1630588191171,12.66
1630588191187,16.32
1630588191203,19.08
1630588191218,20.96
1630588191234,22.11
1630588191250,22.74
1630588191265,23.04
1630588191281,23.13
1630588191296,23.02
1630588191312,22.69
1630588191328,22.15
1630588191343,21.51
1630588191359,20.96
1630588191375,20.64
1630588191390,20.58
1630588191406,20.73
1630588191421,20.93
1630588191437,21.0
1630588191453,20.83
1630588191468,20.32
1630588191484,19.45
1630588191500,18.21
1630588191515,16.65
1630588191531,14.87
1630588191546,13.08
1630588191562,11.46
1630588191578,10.16
1630588191593,9.18
1630588191609,8.46
1630588191625,7.81
1630588191640,7.06
1630588191656,6.08
1630588191671,4.81
1630588191687,3.25
1630588191703,1.46
1630588191718,-0.42
1630588191734,-2.2
1630588191750,-3.74
1630588191765,-4.93
1630588191781,-5.8
1630588191796,-6.54
1630588191812,-7.39
1630588191828,-8.63
1630588191843,-10.43
1630588191859,-12.73
1630588191875,-15.23
1630588191890,-17.42
1630588191906,-18.81
1630588191921,-19.0
1630588191937,-17.91
1630588191953,-15.68
1630588191968,-12.69
1630588191984,-9.32
1630588192000,-5.89
1630588192015,-2.62
1630588192031,0.34
1630588192046,2.87
1630588192062,4.89
1630588192078,6.29
1630588192093,7.08
1630588192109,7.26
1630588192125,6.93
1630588192140,6.2
1630588192156,5.26
1630588192171,4.29
1630588192187,3.47
1630588192203,2.91
1630588192218,2.61
1630588192234,2.49
1630588192250,2.4
1630588192265,2.29
1630588192281,2.14
1630588192296,2.0
1630588192312,1.88
1630588192328,1.69
1630588192343,1.26
1630588192359,0.39
1630588192375,-0.99
1630588192390,-2.76
1630588192406,-4.69
1630588192421,-6.49
1630588192437,-7.93
1630588192453,-8.93
1630588192468,-9.52
1630588192484,-9.8
1630588192500,-9.9
1630588192515,-9.92
1630588192531,-10.01
1630588192546,-10.32
1630588192562,-10.98
1630588192578,-12.06
1630588192593,-13.45
1630588192609,-14.91
1630588192625,-16.15
1630588192640,-16.94
1630588192656,-17.3
1630588192671,-17.48
1630588192687,-17.87
1630588192703,-18.78
1630588192718,-20.3
1630588192734,-22.25
1630588192750,-24.17
1630588192765,-25.51
1630588192781,-25.82
1630588192796,-24.84
1630588192812,-22.56
1630588192828,-19.18
1630588192843,-15.07
1630588192859,-10.65
1630588192875,-6.34
1630588192890,-2.48
1630588192906,0.74
1630588192921,3.26
1630588192937,5.16
1630588192953,6.57
1630588192968,7.59
1630588192984,8.27
1630588193000,8.67
1630588193015,8.86
1630588193031,8.94
1630588193046,9.02
1630588193062,9.13
1630588193078,9.26
1630588193093,9.34
1630588193109,9.3
1630588193125,9.21
1630588193140,9.13
1630588193156,9.11
1630588193171,9.13
1630588193187,9.09
1630588193203,8.85
1630588193218,8.36
1630588193234,7.67
1630588193250,6.89
1630588193265,6.1
1630588193281,5.35
1630588193296,4.68
1630588193312,4.09
1630588193328,3.64
1630588193343,3.39
1630588193359,3.28
1630588193375,3.2
1630588193390,2.95
1630588193406,2.34
1630588193421,1.28
1630588193437,-0.19
1630588193453,-1.92
1630588193468,-3.67
1630588193484,-5.24
1630588193500,-6.47
1630588193515,-7.34
1630588193531,-7.95
1630588193546,-8.49
1630588193562,-9.15
1630588193578,-10.12
1630588193593,-11.45
1630588193609,-13.12
1630588193625,-14.99
1630588193640,-16.86
1630588193656,-18.47
1630588193671,-19.49
1630588193687,-19.57
1630588193703,-18.45
1630588193718,-16.06
1630588193734,-12.62
1630588193750,-8.61
1630588193765,-4.6
1630588193781,-1.09
1630588193796,1.7
1630588193812,3.83
1630588193828,5.59
1630588193843,7.24
1630588193859,8.88
1630588193875,10.38
1630588193890,11.48
1630588193906,11.93
1630588193921,11.66
1630588193937,10.87
1630588193953,9.92
1630588193968,9.17
1630588193984,8.85
1630588194000,8.97
1630588194015,9.32
1630588194031,9.65
1630588194046,9.75
1630588194062,9.55
1630588194078,9.07
1630588194093,8.38
1630588194109,7.55
1630588194125,6.66
1630588194140,5.79
1630588194156,5.06
1630588194171,4.57
1630588194187,4.4
1630588194203,4.58
1630588194218,5.09
1630588194234,5.83
1630588194250,6.65
1630588194265,7.37
1630588194281,7.82
1630588194296,7.87
1630588194312,7.5
1630588194328,6.79
1630588194343,5.88
1630588194359,4.89
1630588194375,3.94
1630588194390,3.07
1630588194406,2.3
1630588194421,1.63
1630588194437,1.05
1630588194453,0.46
1630588194468,-0.29
1630588194484,-1.45
1630588194500,-3.14
1630588194515,-5.34
1630588194531,-7.78
1630588194546,-10.0
1630588194562,-11.52
1630588194578,-11.93
1630588194593,-11.09
1630588194609,-9.07
1630588194625,-6.17
1630588194640,-2.74
1630588194656,0.87
1630588194671,4.35
1630588194687,7.52
1630588194703,10.23
1630588194718,12.41
1630588194734,14.07
1630588194750,15.2
1630588194765,15.82
1630588194781,16.02
1630588194796,15.87
1630588194812,15.51
1630588194828,15.13
1630588194843,14.89
1630588194859,14.89
1630588194875,15.17
1630588194890,15.67
1630588194906,16.31
1630588194921,16.97
1630588194937,17.55
1630588194953,17.92
1630588194968,17.97
1630588194984,17.64
1630588195000,16.95
1630588195015,16.0
1630588195031,14.92
1630588195046,13.86
1630588195062,12.86
1630588195078,11.88
1630588195093,10.85
1630588195109,9.7
1630588195125,8.38
1630588195140,6.91
1630588195156,5.25
1630588195171,3.37
1630588195187,1.25
1630588195203,-1.09
1630588195218,-3.58
1630588195234,-6.11
1630588195250,-8.58
1630588195265,-10.95
1630588195281,-13.18
1630588195296,-15.28
1630588195312,-17.2
1630588195328,-18.9
1630588195343,-20.43
1630588195359,-21.9
1630588195375,-23.56
1630588195390,-25.58
1630588195406,-28.05
1630588195421,-30.79
1630588195437,-33.39
1630588195453,-35.3
1630588195468,-36.05
1630588195484,-35.37
1630588195500,-33.32
1630588195515,-30.24
1630588195531,-26.59
1630588195546,-22.83
1630588195562,-19.34
1630588195578,-16.38
1630588195593,-14.09
1630588195609,-12.52
1630588195625,-11.58
1630588195640,-11.06
1630588195656,-10.68
1630588195671,-10.16
1630588195687,-9.36
1630588195703,-8.28
1630588195718,-7.04
1630588195734,-5.8
1630588195750,-4.62
1630588195765,-3.55
1630588195781,-2.56
1630588195796,-1.65
1630588195812,-0.89
1630588195828,-0.3
1630588195843,0.06
1630588195859,0.23
1630588195875,0.25
1630588195890,0.15
1630588195906,-0.07
1630588195921,-0.46
1630588195937,-1.0
1630588195953,-1.67
1630588195968,-2.39
1630588195984,-3.06
1630588196000,-3.65
1630588196015,-4.22
1630588196031,-4.87
1630588196046,-5.7
1630588196062,-6.77
1630588196078,-8.02
1630588196093,-9.33
1630588196109,-10.55
1630588196125,-11.57
1630588196140,-12.34
1630588196156,-12.94
1630588196171,-13.52
1630588196187,-14.23
1630588196203,-15.25
1630588196218,-16.68
1630588196234,-18.54
1630588196250,-20.72
1630588196265,-22.98
1630588196281,-24.89
1630588196296,-25.95
1630588196312,-25.71
1630588196328,-23.98
1630588196343,-20.89
1630588196359,-16.91
1630588196375,-12.65
1630588196390,-8.6
1630588196406,-4.99
1630588196421,-1.81
1630588196437,1.08
1630588196453,3.73
1630588196468,6.01
1630588196484,7.68
1630588196500,8.52
1630588196515,8.53
1630588196531,7.93
1630588196546,7.1
1630588196562,6.4
1630588196578,6.03
1630588196593,5.99
1630588196609,6.19
1630588196625,6.5
1630588196640,6.81
1630588196656,7.09
1630588196671,7.3
1630588196687,7.42
1630588196703,7.39
1630588196718,7.17
1630588196734,6.76
1630588196750,6.21
1630588196765,5.61
1630588196781,5.06
1630588196796,4.63
1630588196812,4.31
1630588196828,4.04
1630588196843,3.74
1630588196859,3.32
1630588196875,2.68
1630588196890,1.8
1630588196906,0.64
1630588196921,-0.78
1630588196937,-2.43
1630588196953,-4.17
1630588196968,-5.82
1630588196984,-7.2
1630588197000,-8.22
1630588197015,-8.94
1630588197031,-9.58
1630588197046,-10.46
1630588197062,-11.85
1630588197078,-13.87
1630588197093,-16.4
1630588197109,-19.02
1630588197125,-21.16
1630588197140,-22.24
1630588197156,-21.88
1630588197171,-20.0
1630588197187,-16.87
1630588197203,-12.97
1630588197218,-8.78
1630588197234,-4.71
1630588197250,-0.93
1630588197265,2.55
1630588197281,5.72
1630588197296,8.56
1630588197312,10.94
1630588197328,12.68
1630588197343,13.64
1630588197359,13.81
1630588197375,13.32
1630588197390,12.48
1630588197406,11.63
1630588197421,11.09
1630588197437,11.09
1630588197453,11.61
1630588197468,12.47
1630588197484,13.37
1630588197500,14.04
1630588197515,14.4
1630588197531,14.49
1630588197546,14.49
1630588197562,14.5
1630588197578,14.58
1630588197593,14.62
1630588197609,14.53
1630588197625,14.31
1630588197640,14.05
1630588197656,13.9
1630588197671,13.97
1630588197687,14.22
1630588197703,14.44
1630588197718,14.36
1630588197734,13.78
1630588197750,12.63
1630588197765,11.02
1630588197781,9.19
1630588197796,7.39
1630588197812,5.78
1630588197828,4.36
1630588197843,3.04
1630588197859,1.66
1630588197875,0.12
1630588197890,-1.65
1630588197906,-3.61
1630588197921,-5.73
1630588197937,-7.89
1630588197953,-9.92
1630588197968,-11.53
1630588197984,-12.36
1630588198000,-12.07
1630588198015,-10.5
1630588198031,-7.74
1630588198046,-4.13
1630588198062,-0.18
1630588198078,3.67
1630588198093,7.09
1630588198109,9.98
1630588198125,12.37
1630588198140,14.37
1630588198156,16.05
1630588198171,17.4
1630588198187,18.36
1630588198203,18.81
1630588198218,18.66
1630588198234,17.94
1630588198250,16.79
1630588198265,15.5
1630588198281,14.4
1630588198296,13.77
1630588198312,13.7
1630588198328,14.07
1630588198343,14.58
1630588198359,14.93
1630588198375,14.88
1630588198390,14.33
1630588198406,13.29
1630588198421,11.84
1630588198437,10.07
1630588198453,8.04
1630588198468,5.87
1630588198484,3.66
1630588198500,1.48
1630588198515,-0.64
1630588198531,-2.81
1630588198546,-5.11
1630588198562,-7.63
1630588198578,-10.34
1630588198593,-13.08
1630588198609,-15.63
1630588198625,-17.78
1630588198640,-19.43
1630588198656,-20.63
1630588198671,-21.57
1630588198687,-22.49
1630588198703,-23.63
1630588198718,-25.2
1630588198734,-27.28
1630588198750,-29.76
1630588198765,-32.39
1630588198781,-34.75
1630588198796,-36.32
1630588198812,-36.69
1630588198828,-35.55
1630588198843,-32.91
1630588198859,-29.05
1630588198875,-24.45
1630588198890,-19.71
1630588198906,-15.32
1630588198921,-11.62
1630588198937,-8.71
1630588198953,-6.51
1630588198968,-4.78
1630588198984,-3.3
1630588199000,-1.89
1630588199015,-0.49
1630588199031,0.85
1630588199046,2.05
1630588199062,3.01
1630588199078,3.72
1630588199093,4.23
1630588199109,4.67
1630588199125,5.11
1630588199140,5.62
1630588199156,6.15
1630588199171,6.61
1630588199187,6.92
1630588199203,7.04
1630588199218,6.93
1630588199234,6.61
1630588199250,6.04
1630588199265,5.19
1630588199281,4.04
1630588199296,2.67
1630588199312,1.18
1630588199328,-0.22
1630588199343,-1.38
1630588199359,-2.22
1630588199375,-2.77
1630588199390,-3.18
1630588199406,-3.67
1630588199421,-4.39
1630588199437,-5.39
1630588199453,-6.6
1630588199468,-7.81
1630588199484,-8.87
1630588199500,-9.72
1630588199515,-10.53
1630588199531,-11.56
1630588199546,-13.17
1630588199562,-15.52
1630588199578,-18.53
1630588199593,-21.78
1630588199609,-24.66
1630588199625,-26.48
1630588199640,-26.74
1630588199656,-25.18
1630588199671,-21.89
1630588199687,-17.26
1630588199703,-11.87
1630588199718,-6.38
1630588199734,-1.36
1630588199750,2.82
1630588199765,6.04
1630588199781,8.46
1630588199796,10.31
1630588199812,11.81
1630588199828,13.02
1630588199843,13.9
1630588199859,14.4
1630588199875,14.56
1630588199890,14.62
1630588199906,14.84
1630588199921,15.42
1630588199937,16.35
1630588199953,17.45
1630588199968,18.45
1630588199984,19.16
1630588200000,19.58
1630588200015,19.81
1630588200031,20.02
1630588200046,20.25
1630588200062,20.44
1630588200078,20.43
1630588200093,20.05
1630588200109,19.23
1630588200125,18.03
1630588200140,16.61
1630588200156,15.17
1630588200171,13.84
1630588200187,12.65
1630588200203,11.51
1630588200218,10.3
1630588200234,8.91
1630588200250,7.32
1630588200265,5.58
1630588200281,3.81
1630588200296,2.15
1630588200312,0.69
1630588200328,-0.56
1630588200343,-1.66
1630588200359,-2.77
1630588200375,-4.09
1630588200390,-5.79
1630588200406,-7.91
1630588200421,-10.3
1630588200437,-12.63
1630588200453,-14.42
1630588200468,-15.24
1630588200484,-14.78
1630588200500,-12.92
1630588200515,-9.8
1630588200531,-5.69
1630588200546,-1.01
1630588200562,3.85
1630588200578,8.5
1630588200593,12.69
1630588200609,16.24
1630588200625,19.06
1630588200640,21.13
1630588200656,22.42
1630588200671,22.97
1630588200687,22.84
1630588200703,22.19
1630588200718,21.25
1630588200734,20.32
1630588200750,19.67
1630588200765,19.49
1630588200781,19.81
1630588200796,20.5
1630588200812,21.37
1630588200828,22.15
1630588200843,22.69
1630588200859,22.85
1630588200875,22.63
1630588200890,22.08
1630588200906,21.2
1630588200921,19.99
1630588200937,18.41
1630588200953,16.44
1630588200968,14.2
1630588200984,11.9
1630588201000,9.82
1630588201015,8.14
1630588201031,6.92
1630588201046,5.97
1630588201062,4.99
1630588201078,3.71
1630588201093,1.95
1630588201109,-0.29
1630588201125,-2.93
1630588201140,-5.85
1630588201156,-8.97
1630588201171,-12.24
1630588201187,-15.56
1630588201203,-18.79
1630588201218,-21.85
1630588201234,-24.7
1630588201250,-27.36
1630588201265,-29.85
1630588201281,-32.07
1630588201296,-33.78
1630588201312,-34.63
1630588201328,-34.29
1630588201343,-32.62
1630588201359,-29.76
1630588201375,-26.04
1630588201390,-21.93
1630588201406,-17.85
1630588201421,-14.11
1630588201437,-10.87
1630588201453,-8.23
1630588201468,-6.23
1630588201484,-4.95
1630588201500,-4.4
1630588201515,-4.5
1630588201531,-5.08
1630588201546,-5.86
1630588201562,-6.58
1630588201578,-6.98
1630588201593,-6.88
1630588201609,-6.22
1630588201625,-5.06
1630588201640,-3.54
1630588201656,-1.94
1630588201671,-0.52
1630588201687,0.49
1630588201703,1.02
1630588201718,1.18
1630588201734,1.18
1630588201750,1.18
1630588201765,1.24
1630588201781,1.2
1630588201796,0.88
1630588201812,0.16
1630588201828,-0.89
1630588201843,-2.08
1630588201859,-3.17
1630588201875,-4.04
1630588201890,-4.72
1630588201906,-5.34
1630588201921,-6.02
1630588201937,-6.8
1630588201953,-7.68
1630588201968,-8.65
1630588201984,-9.81
1630588202000,-11.29
1630588202015,-13.17
1630588202031,-15.47
1630588202046,-18.02
1630588202062,-20.51
1630588202078,-22.54
1630588202093,-23.69
1630588202109,-23.59
1630588202125,-22.0
1630588202140,-18.88
1630588202156,-14.49
1630588202171,-9.31
1630588202187,-3.96
1630588202203,1.01
1630588202218,5.25
1630588202234,8.7
1630588202250,11.52
1630588202265,13.93
1630588202281,16.08
1630588202296,17.94
1630588202312,19.33
1630588202328,19.98
1630588202343,19.74
1630588202359,18.64
1630588202375,16.99
1630588202390,15.26
1630588202406,13.91
1630588202421,13.2
1630588202437,13.1
1630588202453,13.39
1630588202468,13.76
1630588202484,14.06
1630588202500,14.25
1630588202515,14.46
1630588202531,14.69
1630588202546,14.85
1630588202562,14.74
1630588202578,14.21
1630588202593,13.25
1630588202609,12.07
1630588202625,10.98
1630588202640,10.16
1630588202656,9.59
1630588202671,9.03
1630588202687,8.18
1630588202703,6.88
1630588202718,5.2
1630588202734,3.42
1630588202750,1.95
1630588202765,1.09
1630588202781,0.87
1630588202796,0.95
1630588202812,0.77
1630588202828,-0.28
1630588202843,-2.6
1630588202859,-6.17
1630588202875,-10.57
1630588202890,-15.05
1630588202906,-18.74
1630588202921,-20.9
1630588202937,-21.09
1630588202953,-19.21
1630588202968,-15.57
1630588202984,-10.69
1630588203000,-5.26
1630588203015,0.1
1630588203031,4.93
1630588203046,9.02
1630588203062,12.33
1630588203078,15.01
1630588203093,17.19
1630588203109,18.93
1630588203125,20.3
1630588203140,21.36
1630588203156,22.24
1630588203171,23.12
1630588203187,24.14
1630588203203,25.28
1630588203218,26.43
1630588203234,27.35
1630588203250,27.86
1630588203265,27.94
1630588203281,27.76
1630588203296,27.62
1630588203312,27.74
1630588203328,28.21
1630588203343,28.82
1630588203359,29.22
1630588203375,29.06
1630588203390,28.21
1630588203406,26.78
1630588203421,25.12
1630588203437,23.59
1630588203453,22.4
1630588203468,21.48
1630588203484,20.59
1630588203500,19.47
1630588203515,17.97
1630588203531,16.17
1630588203546,14.23
1630588203562,12.26
1630588203578,10.21
1630588203593,7.84
1630588203609,4.87
1630588203625,1.11
1630588203640,-3.49
1630588203656,-8.78
1630588203671,-14.52
1630588203687,-20.45
1630588203703,-26.32
1630588203718,-31.82
1630588203734,-36.61
1630588203750,-40.28
1630588203765,-42.43
1630588203781,-42.77
1630588203796,-41.21
1630588203812,-37.95
1630588203828,-33.47
1630588203843,-28.45
1630588203859,-23.64
1630588203875,-19.62
1630588203890,-16.71
1630588203906,-14.87
1630588203921,-13.85
1630588203937,-13.3
1630588203953,-12.93
1630588203968,-12.61
1630588203984,-12.28
1630588204000,-11.92
1630588204015,-11.46
1630588204031,-10.83
1630588204046,-9.98
1630588204062,-8.96
1630588204078,-7.88
1630588204093,-6.86
1630588204109,-5.97
1630588204125,-5.23
1630588204140,-4.59
1630588204156,-4.04
1630588204171,-3.6
1630588204187,-3.33
1630588204203,-3.29
1630588204218,-3.51
1630588204234,-3.96
1630588204250,-4.65
1630588204265,-5.55
1630588204281,-6.68
1630588204296,-8.01
1630588204312,-9.52
1630588204328,-11.11
1630588204343,-12.7
1630588204359,-14.17
1630588204375,-15.5
1630588204390,-16.69
1630588204406,-17.81
1630588204421,-18.94
1630588204437,-20.18
1630588204453,-21.65
1630588204468,-23.43
1630588204484,-25.61
1630588204500,-28.13
1630588204515,-30.75
1630588204531,-33.02
1630588204546,-34.36
1630588204562,-34.26
1630588204578,-32.48
1630588204593,-29.17
1630588204609,-24.81
1630588204625,-19.95
1630588204640,-15.05
1630588204656,-10.31
1630588204671,-5.69
1630588204687,-1.12
1630588204703,3.34
1630588204718,7.45
1630588204734,10.82
1630588204750,13.11
1630588204765,14.2
1630588204781,14.2
1630588204796,13.5
1630588204812,12.59
1630588204828,11.9
1630588204843,11.71
1630588204859,12.05
1630588204875,12.81
1630588204890,13.77
1630588204906,14.76
1630588204921,15.69
1630588204937,16.53
1630588204953,17.23
1630588204968,17.64
1630588204984,17.54
1630588205000,16.72
1630588205015,15.16
1630588205031,13.07
1630588205046,10.82
1630588205062,8.79
1630588205078,7.2
1630588205093,6.0
1630588205109,4.97
1630588205125,3.82
1630588205140,2.43
1630588205156,0.89
1630588205171,-0.6
1630588205187,-1.82
1630588205203,-2.78
1630588205218,-3.65
1630588205234,-4.75
1630588205250,-6.36
1630588205265,-8.6
1630588205281,-11.38
1630588205296,-14.43
1630588205312,-17.4
1630588205328,-19.91
1630588205343,-21.57
1630588205359,-22.07
1630588205375,-21.16
1630588205390,-18.75
1630588205406,-14.91
1630588205421,-9.96
1630588205437,-4.33
1630588205453,1.45
1630588205468,6.92
1630588205484,11.76
1630588205500,15.82
1630588205515,19.11
1630588205531,21.76
1630588205546,23.96
1630588205562,25.82
1630588205578,27.36
1630588205593,28.54
1630588205609,29.24
1630588205625,29.43
1630588205640,29.18
1630588205656,28.68
1630588205671,28.15
1630588205687,27.76
1630588205703,27.61
1630588205718,27.68
1630588205734,27.93
1630588205750,28.32
1630588205765,28.77
1630588205781,29.21
1630588205796,29.47
1630588205812,29.35
1630588205828,28.7
1630588205843,27.51
1630588205859,25.94
1630588205875,24.23
1630588205890,22.65
1630588205906,21.29
1630588205921,20.06
1630588205937,18.75
1630588205953,17.13
1630588205968,15.11
1630588205984,12.75
1630588206000,10.26
1630588206015,7.83
1630588206031,5.61
1630588206046,3.64
1630588206062,1.84
1630588206078,0.11
1630588206093,-1.76
1630588206109,-3.95
1630588206125,-6.64
1630588206140,-9.78
1630588206156,-13.11
1630588206171,-16.03
1630588206187,-17.81
1630588206203,-17.81
1630588206218,-15.74
1630588206234,-11.84
1630588206250,-6.84
1630588206265,-1.7
1630588206281,2.76
1630588206296,6.07
1630588206312,8.15
1630588206328,9.23
1630588206343,9.62
1630588206359,9.52
1630588206375,9.02
1630588206390,8.15
1630588206406,6.97
1630588206421,5.64
1630588206437,4.28
1630588206453,2.97
1630588206468,1.63
1630588206484,0.09
1630588206500,-1.76
1630588206515,-3.83
1630588206531,-5.85
1630588206546,-7.47
1630588206562,-8.46
1630588206578,-8.85
1630588206593,-8.91
1630588206609,-9.03
1630588206625,-9.49
1630588206640,-10.37
1630588206656,-11.55
1630588206671,-12.79
1630588206687,-13.89
1630588206703,-14.77
1630588206718,-15.45
1630588206734,-16.0
1630588206750,-16.47
1630588206765,-16.9
1630588206781,-17.36
1630588206796,-17.91
1630588206812,-18.6
1630588206828,-19.44
1630588206843,-20.5
1630588206859,-21.83
1630588206875,-23.51
1630588206890,-25.63
1630588206906,-28.19
1630588206921,-31.09
1630588206937,-34.09
1630588206953,-36.8
1630588206968,-38.76
1630588206984,-39.52
1630588207000,-38.71
1630588207015,-36.19
1630588207031,-32.09
1630588207046,-26.86
1630588207062,-21.16
1630588207078,-15.68
1630588207093,-10.93
1630588207109,-7.09
1630588207125,-4.05
1630588207140,-1.53
1630588207156,0.69
1630588207171,2.69
1630588207187,4.34
1630588207203,5.49
1630588207218,6.04
1630588207234,6.08
1630588207250,5.85
1630588207265,5.7
1630588207281,5.88
1630588207296,6.45
1630588207312,7.31
1630588207328,8.26
1630588207343,9.14
1630588207359,9.88
1630588207375,10.52
1630588207390,11.09
1630588207406,11.51
1630588207421,11.6
1630588207437,11.23
1630588207453,10.34
1630588207468,9.07
1630588207484,7.64
1630588207500,6.22
1630588207515,4.88
1630588207531,3.56
1630588207546,2.14
1630588207562,0.56
1630588207578,-1.15
1630588207593,-2.88
1630588207609,-4.51
1630588207625,-6.01
1630588207640,-7.37
1630588207656,-8.65
1630588207671,-9.9
1630588207687,-11.27
1630588207703,-12.92
1630588207718,-15.04
1630588207734,-17.68
1630588207750,-20.66
1630588207765,-23.51
1630588207781,-25.55
1630588207796,-26.11
1630588207812,-24.78
1630588207828,-21.56
1630588207843,-16.8
1630588207859,-11.13
1630588207875,-5.2
1630588207890,0.55
1630588207906,5.86
1630588207921,10.63
1630588207937,14.84
1630588207953,18.38
1630588207968,21.1
1630588207984,22.87
1630588208000,23.71
1630588208015,23.85
1630588208031,23.64
1630588208046,23.5
1630588208062,23.68
1630588208078,24.25
1630588208093,25.07
1630588208109,25.99
1630588208125,26.88
1630588208140,27.71
1630588208156,28.46
1630588208171,29.11
1630588208187,29.53
1630588208203,29.53
1630588208218,29.03
1630588208234,28.03
1630588208250,26.71
1630588208265,25.36
1630588208281,24.2
1630588208296,23.38
1630588208312,22.86
1630588208328,22.43
1630588208343,21.8
1630588208359,20.65
1630588208375,18.76
1630588208390,16.12
1630588208406,13.01
1630588208421,9.84
1630588208437,7.06
1630588208453,5.02
1630588208468,3.75
1630588208484,3.02
1630588208500,2.36
1630588208515,1.24
1630588208531,-0.77
1630588208546,-3.83
1630588208562,-7.77
1630588208578,-12.04
1630588208593,-15.86
1630588208609,-18.43
1630588208625,-19.13
1630588208640,-17.8
1630588208656,-14.7
1630588208671,-10.48
1630588208687,-5.83
1630588208703,-1.37
1630588208718,2.61
1630588208734,5.98
1630588208750,8.68
1630588208765,10.62
1630588208781,11.65
1630588208796,11.69
1630588208812,10.81
1630588208828,9.26
1630588208843,7.43
1630588208859,5.65
1630588208875,4.16
1630588208890,3.01
1630588208906,2.17
1630588208921,1.54
1630588208937,1.09
1630588208953,0.75
1630588208968,0.43
1630588208984,0.02
1630588209000,-0.61
1630588209015,-1.55
1630588209031,-2.85
1630588209046,-4.46
1630588209062,-6.31
1630588209078,-8.28
1630588209093,-10.27
1630588209109,-12.2
1630588209125,-13.97
1630588209140,-15.55
1630588209156,-16.9
1630588209171,-18.04
1630588209187,-18.99
1630588209203,-19.83
1630588209218,-20.67
1630588209234,-21.6
1630588209250,-22.72
1630588209265,-24.09
1630588209281,-25.73
1630588209296,-27.65
1630588209312,-29.87
1630588209328,-32.34
1630588209343,-34.95
1630588209359,-37.4
1630588209375,-39.23
1630588209390,-39.86
1630588209406,-38.75
1630588209421,-35.65
1630588209437,-30.71
1630588209453,-24.5
1630588209468,-17.8
1630588209484,-11.35
1630588209500,-5.62
1630588209515,-0.76
1630588209531,3.32
1630588209546,6.75
1630588209562,9.58
1630588209578,11.8
1630588209593,13.34
1630588209609,14.21
1630588209625,14.5
1630588209640,14.34
1630588209656,13.9
1630588209671,13.35
1630588209687,12.88
1630588209703,12.66
1630588209718,12.83
1630588209734,13.41
1630588209750,14.29
1630588209765,15.21
1630588209781,15.9
1630588209796,16.19
1630588209812,16.09
1630588209828,15.71
1630588209843,15.14
1630588209859,14.39
1630588209875,13.32
1630588209890,11.81
1630588209906,9.79
1630588209921,7.35
1630588209937,4.75
1630588209953,2.22
1630588209968,-0.03
1630588209984,-1.93
1630588210000,-3.51
1630588210015,-4.88
1630588210031,-6.12
1630588210046,-7.33
1630588210062,-8.64
1630588210078,-10.21
1630588210093,-12.23
1630588210109,-14.82
1630588210125,-17.96
1630588210140,-21.37
1630588210156,-24.55
1630588210171,-26.84
1630588210187,-27.61
1630588210203,-26.49
1630588210218,-23.44
1630588210234,-18.81
1630588210250,-13.21
1630588210265,-7.33
1630588210281,-1.73
1630588210296,3.23
1630588210312,7.43
1630588210328,10.88
1630588210343,13.67
1630588210359,15.84
1630588210375,17.43
1630588210390,18.44
1630588210406,18.96
1630588210421,19.13
1630588210437,19.14
1630588210453,19.16
1630588210468,19.27
1630588210484,19.44
1630588210500,19.6
1630588210515,19.67
1630588210531,19.64
1630588210546,19.58
1630588210562,19.54
1630588210578,19.5
1630588210593,19.41
1630588210609,19.12
1630588210625,18.53
1630588210640,17.64
1630588210656,16.54
1630588210671,15.37
1630588210687,14.27
1630588210703,13.26
1630588210718,12.28
1630588210734,11.22
1630588210750,9.99
1630588210765,8.54
1630588210781,6.92
1630588210796,5.18
1630588210812,3.39
1630588210828,1.59
1630588210843,-0.16
1630588210859,-1.84
1630588210875,-3.44
1630588210890,-5.06
1630588210906,-6.83
1630588210921,-8.93
1630588210937,-11.38
1630588210953,-13.99
1630588210968,-16.29
1630588210984,-17.62
1630588211000,-17.43
1630588211015,-15.4
1630588211031,-11.64
1630588211046,-6.54
1630588211062,-0.75
1630588211078,5.12
1630588211093,10.51
1630588211109,15.04
1630588211125,18.51
1630588211140,20.83
1630588211156,22.12
1630588211171,22.62
1630588211187,22.65
1630588211203,22.5
1630588211218,22.39
1630588211234,22.42
1630588211250,22.55
1630588211265,22.76
1630588211281,22.94
1630588211296,23.05
1630588211312,23.09
1630588211328,23.05
1630588211343,22.9
1630588211359,22.58
1630588211375,21.96
1630588211390,20.89
1630588211406,19.37
1630588211421,17.48
1630588211437,15.4
1630588211453,13.32
1630588211468,11.34
1630588211484,9.44
1630588211500,7.53
1630588211515,5.47
1630588211531,3.2
1630588211546,0.74
1630588211562,-1.92
1630588211578,-4.73
1630588211593,-7.7
1630588211609,-10.79
1630588211625,-13.89
1630588211640,-16.86
1630588211656,-19.53
1630588211671,-21.9
1630588211687,-24.11
1630588211703,-26.45
1630588211718,-29.21
1630588211734,-32.46
1630588211750,-35.93
1630588211765,-39.01
1630588211781,-40.97
1630588211796,-41.22
1630588211812,-39.52
1630588211828,-36.12
1630588211843,-31.63
1630588211859,-26.72
1630588211875,-21.95
1630588211890,-17.67
1630588211906,-13.98
1630588211921,-11.0
1630588211937,-8.76
1630588211953,-7.33
1630588211968,-6.64
1630588211984,-6.54
1630588212000,-6.74
1630588212015,-6.98
1630588212031,-7.09
1630588212046,-6.99
1630588212062,-6.66
1630588212078,-6.1
1630588212093,-5.3
1630588212109,-4.22
1630588212125,-2.91
1630588212140,-1.46
1630588212156,-0.03
1630588212171,1.18
1630588212187,2.02
1630588212203,2.37
1630588212218,2.23
1630588212234,1.67
1630588212250,0.78
1630588212265,-0.33
1630588212281,-1.58
1630588212296,-2.94
1630588212312,-4.46
1630588212328,-6.13
1630588212343,-7.94
1630588212359,-9.8
1630588212375,-11.61
1630588212390,-13.28
1630588212406,-14.73
1630588212421,-16.0
1630588212437,-17.21
1630588212453,-18.52
1630588212468,-20.09
1630588212484,-21.99
1630588212500,-24.15
1630588212515,-26.27
1630588212531,-27.95
1630588212546,-28.7
1630588212562,-28.11
1630588212578,-25.92
1630588212593,-22.15
1630588212609,-17.02
1630588212625,-11.04
1630588212640,-4.85
1630588212656,0.93
1630588212671,5.78
1630588212687,9.44
1630588212703,11.94
1630588212718,13.54
1630588212734,14.55
1630588212750,15.21
1630588212765,15.6
1630588212781,15.69
1630588212796,15.5
1630588212812,15.13
1630588212828,14.8
1630588212843,14.75
1630588212859,15.06
1630588212875,15.6
1630588212890,16.15
1630588212906,16.45
1630588212921,16.43
1630588212937,16.13
1630588212953,15.69
1630588212968,15.27
1630588212984,14.91
1630588213000,14.57
1630588213015,14.14
1630588213031,13.48
1630588213046,12.47
1630588213062,11.01
1630588213078,9.09
1630588213093,6.78
1630588213109,4.31
1630588213125,1.9
1630588213140,-0.27
1630588213156,-2.16
1630588213171,-3.86
1630588213187,-5.53
1630588213203,-7.33
1630588213218,-9.34
1630588213234,-11.62
1630588213250,-14.26
1630588213265,-17.26
1630588213281,-20.5
1630588213296,-23.6
1630588213312,-25.92
1630588213328,-26.78
1630588213343,-25.7
1630588213359,-22.58
1630588213375,-17.83
1630588213390,-12.08
1630588213406,-6.03
1630588213421,-0.19
1630588213437,5.18
1630588213453,9.94
1630588213468,14.05
1630588213484,17.4
1630588213500,19.91
1630588213515,21.54
1630588213531,22.34
1630588213546,22.52
1630588213562,22.35
1630588213578,22.16
1630588213593,22.22
1630588213609,22.73
1630588213625,23.75
1630588213640,25.15
1630588213656,26.67
1630588213671,28.01
1630588213687,28.91
1630588213703,29.25
1630588213718,29.11
1630588213734,28.68
1630588213750,28.17
1630588213765,27.71
1630588213781,27.31
1630588213796,26.93
1630588213812,26.51
1630588213828,26.02
1630588213843,25.46
1630588213859,24.77
1630588213875,23.87
1630588213890,22.67
1630588213906,21.15
1630588213921,19.38
1630588213937,17.5
1630588213953,15.68
1630588213968,14.04
1630588213984,12.57
1630588214000,11.17
1630588214015,9.73
1630588214031,8.11
1630588214046,6.29
1630588214062,4.34
1630588214078,2.47
1630588214093,1.03
1630588214109,0.5
1630588214125,1.25
1630588214140,3.4
1630588214156,6.73
1630588214171,10.72
1630588214187,14.71
1630588214203,18.14
1630588214218,20.68
1630588214234,22.21
1630588214250,22.77
1630588214265,22.39
1630588214281,21.11
1630588214296,18.97
1630588214312,16.09
1630588214328,12.72
1630588214343,9.21
1630588214359,5.88
1630588214375,2.93
1630588214390,0.45
1630588214406,-1.66
1630588214421,-3.53
1630588214437,-5.31
1630588214453,-7.12
1630588214468,-8.96
1630588214484,-10.85
1630588214500,-12.76
1630588214515,-14.66
1630588214531,-16.59
1630588214546,-18.62
1630588214562,-20.82
1630588214578,-23.2
1630588214593,-25.74
1630588214609,-28.31
1630588214625,-30.74
1630588214640,-32.89
1630588214656,-34.6
1630588214671,-35.86
1630588214687,-36.65
1630588214703,-37.07
1630588214718,-37.27
1630588214734,-37.5
1630588214750,-38.08
1630588214765,-39.35
1630588214781,-41.52
1630588214796,-44.6
1630588214812,-48.22
1630588214828,-51.74
1630588214843,-54.42
1630588214859,-55.58
1630588214875,-54.86
1630588214890,-52.26
1630588214906,-48.12
1630588214921,-42.97
1630588214937,-37.37
1630588214953,-31.73
1630588214968,-26.31
1630588214984,-21.25
1630588215000,-16.59
1630588215015,-12.4
1630588215031,-8.72
1630588215046,-5.59
1630588215062,-2.93
1630588215078,-0.56
1630588215093,1.81
1630588215109,4.43
1630588215125,7.44
1630588215140,10.88
1630588215156,14.69
1630588215171,18.73
1630588215187,22.85
1630588215203,26.69
1630588215218,29.72
1630588215234,31.31
1630588215250,30.91
1630588215265,28.35
1630588215281,23.91
1630588215296,18.29
1630588215312,12.31
1630588215328,6.63
1630588215343,1.59
1630588215359,-2.74
1630588215375,-6.44
1630588215390,-9.56
1630588215406,-12.06
1630588215421,-13.89
1630588215437,-15.04
1630588215453,-15.6
1630588215468,-15.7
1630588215484,-15.51
1630588215500,-15.22
1630588215515,-15.08
1630588215531,-15.36
1630588215546,-16.39
1630588215562,-18.37
1630588215578,-21.28
1630588215593,-24.8
1630588215609,-28.35
1630588215625,-31.18
1630588215640,-32.66
1630588215656,-32.39
1630588215671,-30.38
1630588215687,-27.0
1630588215703,-22.86
1630588215718,-18.58
1630588215734,-14.62
1630588215750,-11.2
1630588215765,-8.29
1630588215781,-5.79
1630588215796,-3.62
1630588215812,-1.79
1630588215828,-0.34
1630588215843,0.69
1630588215859,1.32
1630588215875,1.66
1630588215890,1.88
1630588215906,2.13
1630588215921,2.55
1630588215937,3.21
1630588215953,4.08
1630588215968,5.1
1630588215984,6.13
1630588216000,7.02
1630588216015,7.65
1630588216031,7.98
1630588216046,7.95
1630588216062,7.51
1630588216078,6.57
1630588216093,5.04
1630588216109,2.85
1630588216125,0.11
1630588216140,-2.91
1630588216156,-5.78
1630588216171,-7.99
1630588216187,-9.18
1630588216203,-9.23
1630588216218,-8.26
1630588216234,-6.74
1630588216250,-5.23
1630588216265,-4.32
1630588216281,-4.45
1630588216296,-5.8
1630588216312,-8.26
1630588216328,-11.4
1630588216343,-14.58
1630588216359,-17.03
1630588216375,-18.03
1630588216390,-17.16
1630588216406,-14.33
1630588216421,-9.87
1630588216437,-4.37
1630588216453,1.47
1630588216468,7.02
1630588216484,11.87
1630588216500,15.79
1630588216515,18.76
1630588216531,20.83
1630588216546,22.11
1630588216562,22.68
1630588216578,22.64
1630588216593,22.1
1630588216609,21.2
1630588216625,20.08
1630588216640,18.87
1630588216656,17.66
1630588216671,16.53
1630588216687,15.48
1630588216703,14.55
1630588216718,13.79
1630588216734,13.24
1630588216750,12.96
1630588216765,12.96
1630588216781,13.16
1630588216796,13.34
1630588216812,13.2
1630588216828,12.42
1630588216843,10.86
1630588216859,8.59
1630588216875,5.94
1630588216890,3.34
1630588216906,1.19
1630588216921,-0.44
1630588216937,-1.73
1630588216953,-3.11
1630588216968,-5.04
1630588216984,-7.86
1630588217000,-11.61
1630588217015,-16.04
1630588217031,-20.63
1630588217046,-24.63
1630588217062,-27.29
1630588217078,-27.99
1630588217093,-26.44
1630588217109,-22.81
1630588217125,-17.65
1630588217140,-11.79
1630588217156,-6.01
1630588217171,-0.87
1630588217187,3.45
1630588217203,7.05
1630588217218,10.18
1630588217234,13.01
1630588217250,15.58
1630588217265,17.75
1630588217281,19.35
1630588217296,20.27
1630588217312,20.6
1630588217328,20.55
1630588217343,20.35
1630588217359,20.18
1630588217375,20.03
1630588217390,19.88
1630588217406,19.64
1630588217421,19.36
1630588217437,19.14
1630588217453,19.09
1630588217468,19.24
1630588217484,19.49
1630588217500,19.64
1630588217515,19.5
1630588217531,18.91
1630588217546,17.77
1630588217562,16.12
1630588217578,14.0
1630588217593,11.54
1630588217609,8.86
1630588217625,6.08
1630588217640,3.26
1630588217656,0.45
1630588217671,-2.4
1630588217687,-5.35
1630588217703,-8.49
1630588217718,-11.85
1630588217734,-15.35
1630588217750,-18.73
1630588217765,-21.63
1630588217781,-23.56
1630588217796,-24.12
1630588217812,-23.08
1630588217828,-20.49
1630588217843,-16.61
1630588217859,-11.83
1630588217875,-6.55
1630588217890,-1.08
1630588217906,4.33
1630588217921,9.43
1630588217937,14.0
1630588217953,17.75
1630588217968,20.51
1630588217984,22.2
1630588218000,22.93
1630588218015,22.92
1630588218031,22.46
1630588218046,21.86
1630588218062,21.39
1630588218078,21.21
1630588218093,21.42
1630588218109,21.92
1630588218125,22.49
1630588218140,22.76
1630588218156,22.35
1630588218171,21.03
1630588218187,18.84
1630588218203,16.09
1630588218218,13.22
1630588218234,10.61
1630588218250,8.39
1630588218265,6.4
1630588218281,4.37
1630588218296,2.1
1630588218312,-0.36
1630588218328,-2.74
1630588218343,-4.7
1630588218359,-6.06
1630588218375,-6.92
1630588218390,-7.61
1630588218406,-8.53
1630588218421,-9.99
1630588218437,-12.07
1630588218453,-14.62
1630588218468,-17.33
1630588218484,-19.75
1630588218500,-21.39
1630588218515,-21.73
1630588218531,-20.38
1630588218546,-17.15
1630588218562,-12.17
1630588218578,-5.92
1630588218593,0.95
1630588218609,7.73
1630588218625,13.92
1630588218640,19.26
1630588218656,23.72
1630588218671,27.36
1630588218687,30.29
1630588218703,32.5
1630588218718,34.0
1630588218734,34.84
1630588218750,35.16
1630588218765,35.23
1630588218781,35.25
1630588218796,35.33
1630588218812,35.43
1630588218828,35.34
1630588218843,34.82
1630588218859,33.69
1630588218875,31.89
1630588218890,29.52
1630588218906,26.76
1630588218921,23.82
1630588218937,20.89
1630588218953,18.07
1630588218968,15.33
1630588218984,12.58
1630588219000,9.66
1630588219015,6.4
1630588219031,2.73
1630588219046,-1.32
1630588219062,-5.61
1630588219078,-9.9
1630588219093,-13.96
1630588219109,-17.63
1630588219125,-20.85
1630588219140,-23.69
1630588219156,-26.33
1630588219171,-28.96
1630588219187,-31.73
1630588219203,-34.69
1630588219218,-37.74
1630588219234,-40.6
1630588219250,-42.86
1630588219265,-44.07
1630588219281,-43.91
1630588219296,-42.25
1630588219312,-39.21
1630588219328,-35.13
1630588219343,-30.44
1630588219359,-25.53
1630588219375,-20.67
1630588219390,-16.02
1630588219406,-11.7
1630588219421,-7.86
1630588219437,-4.65
1630588219453,-2.18
1630588219468,-0.48
1630588219484,0.55
1630588219500,1.08
1630588219515,1.29
1630588219531,1.32
1630588219546,1.29
1630588219562,1.27
1630588219578,1.4
1630588219593,1.75
1630588219609,2.42
1630588219625,3.35
1630588219640,4.44
1630588219656,5.52
1630588219671,6.44
1630588219687,7.14
1630588219703,7.55
1630588219718,7.66
1630588219734,7.37
1630588219750,6.6
1630588219765,5.27
1630588219781,3.47
1630588219796,1.42
1630588219812,-0.56
1630588219828,-2.15
1630588219843,-3.23
1630588219859,-3.95
1630588219875,-4.63
1630588219890,-5.74
1630588219906,-7.66
1630588219921,-10.53
1630588219937,-14.21
1630588219953,-18.3
1630588219968,-22.22
1630588219984,-25.33
1630588220000,-27.08
1630588220015,-27.1
1630588220031,-25.35
1630588220046,-22.05
1630588220062,-17.7
1630588220078,-12.81
1630588220093,-7.8
1630588220109,-2.88
1630588220125,1.91
1630588220140,6.51
1630588220156,10.8
1630588220171,14.47
1630588220187,17.23
1630588220203,18.87
1630588220218,19.5
1630588220234,19.43
1630588220250,19.07
1630588220265,18.8
1630588220281,18.8
1630588220296,19.08
1630588220312,19.58
1630588220328,20.15
1630588220343,20.66
1630588220359,20.96
1630588220375,20.89
1630588220390,20.38
1630588220406,19.45
1630588220421,18.22
1630588220437,16.91
1630588220453,15.67
1630588220468,14.53
1630588220484,13.4
1630588220500,12.06
1630588220515,10.36
1630588220531,8.25
1630588220546,5.8
1630588220562,3.2
1630588220578,0.6
1630588220593,-1.86
1630588220609,-4.14
1630588220625,-6.19
1630588220640,-8.09
1630588220656,-9.96
1630588220671,-11.99
1630588220687,-14.37
1630588220703,-17.27
1630588220718,-20.64
1630588220734,-24.17
1630588220750,-27.29
1630588220765,-29.28
1630588220781,-29.51
1630588220796,-27.62
1630588220812,-23.7
1630588220828,-18.24
1630588220843,-12.0
1630588220859,-5.76
1630588220875,-0.1
1630588220890,4.7
1630588220906,8.66
1630588220921,11.92
1630588220937,14.62
1630588220953,16.83
1630588220968,18.54
1630588220984,19.72
1630588221000,20.46
1630588221015,20.86
1630588221031,21.08
1630588221046,21.26
1630588221062,21.49
1630588221078,21.8
1630588221093,22.21
1630588221109,22.7
1630588221125,23.2
1630588221140,23.57
1630588221156,23.68
1630588221171,23.38
1630588221187,22.62
1630588221203,21.44
1630588221218,19.94
1630588221234,18.26
1630588221250,16.47
1630588221265,14.58
1630588221281,12.59
1630588221296,10.44
1630588221312,8.18
1630588221328,5.87
1630588221343,3.65
1630588221359,1.65
1630588221375,-0.04
1630588221390,-1.42
1630588221406,-2.59
1630588221421,-3.68
1630588221437,-4.82
1630588221453,-6.11
1630588221468,-7.63
1630588221484,-9.51
1630588221500,-11.84
1630588221515,-14.62
1630588221531,-17.67
1630588221546,-20.57
1630588221562,-22.74
1630588221578,-23.62
1630588221593,-22.9
1630588221609,-20.58
1630588221625,-17.04
1630588221640,-12.81
1630588221656,-8.42
1630588221671,-4.29
1630588221687,-0.67
1630588221703,2.32
1630588221718,4.64
1630588221734,6.3
1630588221750,7.32
1630588221765,7.78
1630588221781,7.81
1630588221796,7.57
1630588221812,7.21
1630588221828,6.87
1630588221843,6.57
1630588221859,6.26
1630588221875,5.81
1630588221890,5.09
1630588221906,4.06
1630588221921,2.83
1630588221937,1.59
1630588221953,0.55
1630588221968,-0.16
1630588221984,-0.55
1630588222000,-0.74
1630588222015,-0.97
1630588222031,-1.42
1630588222046,-2.21
1630588222062,-3.33
1630588222078,-4.65
1630588222093,-6.02
1630588222109,-7.37
1630588222125,-8.67
1630588222140,-9.99
1630588222156,-11.38
1630588222171,-12.76
1630588222187,-14.01
1630588222203,-14.99
1630588222218,-15.68
1630588222234,-16.17
1630588222250,-16.71
1630588222265,-17.54
1630588222281,-18.82
1630588222296,-20.59
1630588222312,-22.74
1630588222328,-25.04
1630588222343,-27.16
1630588222359,-28.71
1630588222375,-29.27
1630588222390,-28.49
1630588222406,-26.23
1630588222421,-22.59
1630588222437,-17.91
1630588222453,-12.67
1630588222468,-7.39
1630588222484,-2.5
1630588222500,1.72
1630588222515,5.13
1630588222531,7.72
1630588222546,9.58
1630588222562,10.85
1630588222578,11.67
1630588222593,12.13
1630588222609,12.25
1630588222625,12.07
1630588222640,11.67
1630588222656,11.19
1630588222671,10.8
1630588222687,10.65
1630588222703,10.77
1630588222718,11.15
1630588222734,11.71
1630588222750,12.35
1630588222765,12.96
1630588222781,13.4
1630588222796,13.48
1630588222812,13.1
1630588222828,12.22
1630588222843,10.94
1630588222859,9.51
1630588222875,8.16
1630588222890,7.12
1630588222906,6.42
1630588222921,5.97
1630588222937,5.59
1630588222953,5.07
1630588222968,4.25
1630588222984,3.06
1630588223000,1.5
1630588223015,-0.36
1630588223031,-2.4
1630588223046,-4.51
1630588223062,-6.56
1630588223078,-8.46
1630588223093,-10.2
1630588223109,-11.85
1630588223125,-13.56
1630588223140,-15.47
1630588223156,-17.63
1630588223171,-19.9
1630588223187,-21.94
1630588223203,-23.28
1630588223218,-23.47
1630588223234,-22.25
1630588223250,-19.64
1630588223265,-15.95
1630588223281,-11.66
1630588223296,-7.25
1630588223312,-3.04
1630588223328,0.81
1630588223343,4.3
1630588223359,7.46
1630588223375,10.22
1630588223390,12.44
1630588223406,13.94
1630588223421,14.67
1630588223437,14.75
1630588223453,14.54
1630588223468,14.45
1630588223484,14.89
1630588223500,16.05
1630588223515,17.92
1630588223531,20.34
1630588223546,23.03
1630588223562,25.72
1630588223578,28.16
1630588223593,30.11
1630588223609,31.4
1630588223625,31.88
1630588223640,31.56
1630588223656,30.59
1630588223671,29.2
1630588223687,27.69
1630588223703,26.27
1630588223718,25.06
1630588223734,23.99
1630588223750,22.88
1630588223765,21.42
1630588223781,19.3
1630588223796,16.28
1630588223812,12.27
1630588223828,7.44
1630588223843,2.15
1630588223859,-3.13
1630588223875,-7.96
1630588223890,-12.14
1630588223906,-15.61
1630588223921,-18.47
1630588223937,-20.82
1630588223953,-22.71
1630588223968,-24.17
1630588223984,-25.25
1630588224000,-26.08
1630588224015,-26.76
1630588224031,-27.33
1630588224046,-27.61
1630588224062,-27.3
1630588224078,-26.1
1630588224093,-23.89
1630588224109,-20.81
1630588224125,-17.27
1630588224140,-13.77
1630588224156,-10.76
1630588224171,-8.49
1630588224187,-6.98
1630588224203,-6.13
1630588224218,-5.77
1630588224234,-5.79
1630588224250,-6.13
1630588224265,-6.78
1630588224281,-7.66
1630588224296,-8.58
1630588224312,-9.2
1630588224328,-9.15
1630588224343,-8.16
1630588224359,-6.22
1630588224375,-3.56
1630588224390,-0.59
1630588224406,2.34
1630588224421,5.0
1630588224437,7.3
1630588224453,9.23
1630588224468,10.71
1630588224484,11.64
1630588224500,11.89
1630588224515,11.46
1630588224531,10.52
1630588224546,9.33
1630588224562,8.17
1630588224578,7.18
1630588224593,6.37
1630588224609,5.63
1630588224625,4.91
1630588224640,4.17
1630588224656,3.4
1630588224671,2.54
1630588224687,1.49
1630588224703,0.06
1630588224718,-1.83
1630588224734,-4.17
1630588224750,-6.84
1630588224765,-9.69
1630588224781,-12.62
1630588224796,-15.58
1630588224812,-18.53
1630588224828,-21.31
1630588224843,-23.64
1630588224859,-25.18
1630588224875,-25.66
1630588224890,-24.99
1630588224906,-23.31
1630588224921,-20.89
1630588224937,-18.06
1630588224953,-15.09
1630588224968,-12.2
1630588224984,-9.57
1630588225000,-7.39
1630588225015,-5.82
1630588225031,-5.01
1630588225046,-4.94
1630588225062,-5.51
1630588225078,-6.45
1630588225093,-7.43
1630588225109,-8.17
1630588225125,-8.53
1630588225140,-8.49
1630588225156,-8.13
1630588225171,-7.57
1630588225187,-6.88
1630588225203,-6.11
1630588225218,-5.23
1630588225234,-4.29
1630588225250,-3.35
1630588225265,-2.54
1630588225281,-1.98
1630588225296,-1.76
1630588225312,-1.87
1630588225328,-2.19
1630588225343,-2.57
1630588225359,-2.91
1630588225375,-3.16
1630588225390,-3.38
1630588225406,-3.69
1630588225421,-4.22
1630588225437,-5.04
1630588225453,-6.08
1630588225468,-7.2
1630588225484,-8.25
1630588225500,-9.15
1630588225515,-9.94
1630588225531,-10.77
1630588225546,-11.81
1630588225562,-13.22
1630588225578,-15.03
1630588225593,-17.22
1630588225609,-19.63
1630588225625,-22.06
1630588225640,-24.2
1630588225656,-25.69
1630588225671,-26.19
1630588225687,-25.4
1630588225703,-23.2
1630588225718,-19.64
1630588225734,-15.03
1630588225750,-9.85
1630588225765,-4.69
1630588225781,-0.12
1630588225796,3.45
1630588225812,5.91
1630588225828,7.43
1630588225843,8.37
1630588225859,9.09
1630588225875,9.82
1630588225890,10.51
1630588225906,10.99
1630588225921,11.07
1630588225937,10.71
1630588225953,10.04
1630588225968,9.34
1630588225984,8.81
1630588226000,8.48
1630588226015,8.25
1630588226031,7.99
1630588226046,7.69
1630588226062,7.47
1630588226078,7.55
1630588226093,8.11
1630588226109,9.16
1630588226125,10.54
1630588226140,11.98
1630588226156,13.18
1630588226171,13.86
1630588226187,13.85
1630588226203,13.09
1630588226218,11.6
1630588226234,9.53
1630588226250,7.12
1630588226265,4.62
1630588226281,2.28
1630588226296,0.24
1630588226312,-1.44
1630588226328,-2.8
1630588226343,-3.93
1630588226359,-5.0
1630588226375,-6.23
1630588226390,-7.88
1630588226406,-10.16
1630588226421,-13.07
1630588226437,-16.33
1630588226453,-19.36
1630588226468,-21.37
1630588226484,-21.69
1630588226500,-20.06
1630588226515,-16.64
1630588226531,-12.09
1630588226546,-7.22
1630588226562,-2.75
1630588226578,0.91
1630588226593,3.71
1630588226609,5.8
1630588226625,7.41
1630588226640,8.72
1630588226656,9.8
1630588226671,10.68
1630588226687,11.39
1630588226703,11.98
1630588226718,12.47
1630588226734,12.89
1630588226750,13.19
1630588226765,13.36
1630588226781,13.4
1630588226796,13.36
1630588226812,13.31
1630588226828,13.35
1630588226843,13.51
1630588226859,13.79
1630588226875,14.07
1630588226890,14.23
1630588226906,14.1
1630588226921,13.57
1630588226937,12.63
1630588226953,11.42
1630588226968,10.13
1630588226984,8.99
1630588227000,8.13
1630588227015,7.54
1630588227031,7.09
1630588227046,6.58
1630588227062,5.84
1630588227078,4.79
1630588227093,3.5
1630588227109,2.1
1630588227125,0.71
1630588227140,-0.63
1630588227156,-1.99
1630588227171,-3.49
1630588227187,-5.26
1630588227203,-7.31
1630588227218,-9.52
1630588227234,-11.63
1630588227250,-13.34
1630588227265,-14.3
1630588227281,-14.24
1630588227296,-12.99
1630588227312,-10.57
1630588227328,-7.15
1630588227343,-3.06
1630588227359,1.27
1630588227375,5.41
1630588227390,9.02
1630588227406,11.9
1630588227421,14.03
1630588227437,15.47
1630588227453,16.36
1630588227468,16.8
1630588227484,16.88
1630588227500,16.68
1630588227515,16.25
1630588227531,15.64
1630588227546,14.89
1630588227562,14.05
1630588227578,13.2
1630588227593,12.45
1630588227609,11.93
1630588227625,11.74
1630588227640,11.88
1630588227656,12.21
1630588227671,12.47
1630588227687,12.39
1630588227703,11.75
1630588227718,10.56
1630588227734,8.96
1630588227750,7.2
1630588227765,5.51
1630588227781,3.97
1630588227796,2.54
1630588227812,1.1
1630588227828,-0.44
1630588227843,-2.06
1630588227859,-3.65
1630588227875,-5.1
1630588227890,-6.36
1630588227906,-7.55
1630588227921,-8.9
1630588227937,-10.58
1630588227953,-12.71
1630588227968,-15.18
1630588227984,-17.85
1630588228000,-20.5
1630588228015,-23.0
1630588228031,-25.18
1630588228046,-26.83
1630588228062,-27.68
1630588228078,-27.47
1630588228093,-26.05
1630588228109,-23.53
1630588228125,-20.26
1630588228140,-16.73
1630588228156,-13.41
1630588228171,-10.55
1630588228187,-8.17
1630588228203,-6.14
1630588228218,-4.34
1630588228234,-2.72
1630588228250,-1.37
1630588228265,-0.48
1630588228281,-0.17
1630588228296,-0.45
1630588228312,-1.13
1630588228328,-1.88
1630588228343,-2.34
1630588228359,-2.26
1630588228375,-1.61
1630588228390,-0.57
1630588228406,0.59
1630588228421,1.6
1630588228437,2.34
1630588228453,2.79
1630588228468,3.0
1630588228484,3.02
1630588228500,2.83
1630588228515,2.34
1630588228531,1.56
1630588228546,0.55
1630588228562,-0.58
1630588228578,-1.66
1630588228593,-2.63
1630588228609,-3.49
1630588228625,-4.33
1630588228640,-5.22
1630588228656,-6.24
1630588228671,-7.37
1630588228687,-8.58
1630588228703,-9.86
1630588228718,-11.19
1630588228734,-12.62
1630588228750,-14.2
1630588228765,-16.0
1630588228781,-18.07
1630588228796,-20.34
1630588228812,-22.6
1630588228828,-24.46
1630588228843,-25.42
1630588228859,-25.01
1630588228875,-22.97
1630588228890,-19.42
1630588228906,-14.8
1630588228921,-9.73
1630588228937,-4.79
1630588228953,-0.38
1630588228968,3.35
1630588228984,6.39
1630588229000,8.78
1630588229015,10.49
1630588229031,11.55
1630588229046,12.02
1630588229062,12.13
1630588229078,12.15
1630588229093,12.33
1630588229109,12.75
1630588229125,13.32
1630588229140,13.83
1630588229156,14.14
1630588229171,14.22
1630588229187,14.18
1630588229203,14.17
1630588229218,14.27
1630588229234,14.41
1630588229250,14.48
1630588229265,14.32
1630588229281,13.87
1630588229296,13.23
1630588229312,12.53
1630588229328,11.86
1630588229343,11.23
1630588229359,10.54
1630588229375,9.63
1630588229390,8.4
1630588229406,6.83
1630588229421,5.0
1630588229437,3.06
1630588229453,1.1
1630588229468,-0.83
1630588229484,-2.7
1630588229500,-4.5
1630588229515,-6.21
1630588229531,-7.86
1630588229546,-9.58
1630588229562,-11.55
1630588229578,-13.95
1630588229593,-16.79
1630588229609,-19.8
1630588229625,-22.45
1630588229640,-24.1
1630588229656,-24.21
1630588229671,-22.55
1630588229687,-19.26
1630588229703,-14.87
1630588229718,-9.96
1630588229734,-5.06
1630588229750,-0.51
1630588229765,3.57
1630588229781,7.11
1630588229796,10.08
1630588229812,12.36
1630588229828,13.91
1630588229843,14.75
1630588229859,15.06
1630588229875,15.09
1630588229890,15.1
1630588229906,15.24
1630588229921,15.54
1630588229937,15.96
1630588229953,16.47
1630588229968,17.07
1630588229984,17.78
1630588230000,18.53
1630588230015,19.14
1630588230031,19.39
1630588230046,19.09
1630588230062,18.24
1630588230078,17.02
1630588230093,15.73
1630588230109,14.65
1630588230125,13.92
1630588230140,13.53
1630588230156,13.25
1630588230171,12.84
1630588230187,12.14
1630588230203,11.11
1630588230218,9.9
1630588230234,8.65
1630588230250,7.46
1630588230265,6.31
1630588230281,5.11
1630588230296,3.74
1630588230312,2.13
1630588230328,0.29
1630588230343,-1.78
1630588230359,-4.09
1630588230375,-6.7
1630588230390,-9.6
1630588230406,-12.6
1630588230421,-15.29
1630588230437,-17.14
1630588230453,-17.63
1630588230468,-16.5
1630588230484,-13.82
1630588230500,-9.99
1630588230515,-5.57
1630588230531,-1.08
1630588230546,3.1
1630588230562,6.8
1630588230578,10.01
1630588230593,12.75
1630588230609,15.04
1630588230625,16.85
1630588230640,18.14
1630588230656,18.88
1630588230671,19.1
1630588230687,18.88
1630588230703,18.35
1630588230718,17.66
1630588230734,16.92
1630588230750,16.26
1630588230765,15.75
1630588230781,15.48
1630588230796,15.46
1630588230812,15.65
1630588230828,15.93
1630588230843,16.15
1630588230859,16.11
1630588230875,15.64
1630588230890,14.65
1630588230906,13.1
1630588230921,11.07
1630588230937,8.72
1630588230953,6.26
1630588230968,3.92
1630588230984,1.85
1630588231000,0.1
1630588231015,-1.47
1630588231031,-3.04
1630588231046,-4.85
1630588231062,-7.0
1630588231078,-9.48
1630588231093,-12.19
1630588231109,-15.02
1630588231125,-17.9
1630588231140,-20.79
1630588231156,-23.73
1630588231171,-26.71
1630588231187,-29.67
1630588231203,-32.52
1630588231218,-35.06
1630588231234,-37.01
1630588231250,-38.0
1630588231265,-37.74
1630588231281,-36.05
1630588231296,-33.05
1630588231312,-29.06
1630588231328,-24.53
1630588231343,-19.87
1630588231359,-15.37
1630588231375,-11.15
1630588231390,-7.3
1630588231406,-3.94
1630588231421,-1.22
1630588231437,0.77
1630588231453,2.07
1630588231468,2.83
1630588231484,3.29
1630588231500,3.63
1630588231515,3.92
1630588231531,4.14
1630588231546,4.26
1630588231562,4.31
1630588231578,4.4
1630588231593,4.62
1630588231609,5.05
1630588231625,5.61
1630588231640,6.14
1630588231656,6.45
1630588231671,6.36
1630588231687,5.84
1630588231703,4.92
1630588231718,3.78
1630588231734,2.58
1630588231750,1.43
1630588231765,0.4
1630588231781,-0.57
1630588231796,-1.51
1630588231812,-2.46
1630588231828,-3.42
1630588231843,-4.37
1630588231859,-5.35
1630588231875,-6.39
1630588231890,-7.53
1630588231906,-8.74
1630588231921,-9.96
1630588231937,-11.15
1630588231953,-12.37
1630588231968,-13.77
1630588231984,-15.56
1630588232000,-17.86
1630588232015,-20.52
1630588232031,-23.16
1630588232046,-25.15
1630588232062,-25.89
1630588232078,-24.93
1630588232093,-22.21
1630588232109,-18.0
1630588232125,-12.88
1630588232140,-7.53
1630588232156,-2.48
1630588232171,1.98
1630588232187,5.83
1630588232203,9.22
1630588232218,12.27
1630588232234,14.98
1630588232250,17.17
1630588232265,18.65
1630588232281,19.3
1630588232296,19.26
1630588232312,18.86
1630588232328,18.47
1630588232343,18.32
1630588232359,18.39
1630588232375,18.45
1630588232390,18.27
1630588232406,17.74
1630588232421,16.91
1630588232437,15.99
1630588232453,15.14
1630588232468,14.42
1630588232484,13.77
1630588232500,13.02
1630588232515,12.0
1630588232531,10.63
1630588232546,8.93
1630588232562,6.99
1630588232578,4.95
1630588232593,2.87
1630588232609,0.8
1630588232625,-1.22
1630588232640,-3.15
1630588232656,-4.86
1630588232671,-6.22
1630588232687,-7.06
1630588232703,-7.36
1630588232718,-7.23
1630588232734,-6.99
1630588232750,-7.0
1630588232765,-7.62
1630588232781,-9.09
1630588232796,-11.45
1630588232812,-14.49
1630588232828,-17.81
1630588232843,-20.82
1630588232859,-22.85
1630588232875,-23.32
1630588232890,-21.9
1630588232906,-18.65
1630588232921,-13.99
1630588232937,-8.58
1630588232953,-3.09
1630588232968,2.02
1630588232984,6.51
1630588233000,10.38
1630588233015,13.67
1630588233031,16.43
1630588233046,18.66
1630588233062,20.33
1630588233078,21.46
1630588233093,22.1
1630588233109,22.35
1630588233125,22.33
1630588233140,22.18
1630588233156,22.03
1630588233171,21.99
1630588233187,22.13
1630588233203,22.46
1630588233218,22.9
1630588233234,23.34
1630588233250,23.68
1630588233265,23.87
1630588233281,23.86
1630588233296,23.59
1630588233312,22.97
1630588233328,21.9
1630588233343,20.35
1630588233359,18.42
1630588233375,16.32
1630588233390,14.28
1630588233406,12.47
1630588233421,10.9
1630588233437,9.43
1630588233453,7.86
1630588233468,6.06
1630588233484,4.06
1630588233500,2.04
1630588233515,0.19
1630588233531,-1.39
1630588233546,-2.76
1630588233562,-4.13
1630588233578,-5.7
1630588233593,-7.54
1630588233609,-9.58
1630588233625,-11.69
1630588233640,-13.7
1630588233656,-15.48
1630588233671,-16.92
1630588233687,-17.82
1630588233703,-17.89
1630588233718,-16.83
1630588233734,-14.49
1630588233750,-11.01
1630588233765,-6.8
1630588233781,-2.47
1630588233796,1.42
1630588233812,4.54
1630588233828,6.84
1630588233843,8.46
1630588233859,9.56
1630588233875,10.22
1630588233890,10.39
1630588233906,9.98
1630588233921,8.94
1630588233937,7.41
1630588233953,5.63
1630588233968,3.94
1630588233984,2.61
1630588234000,1.75
1630588234015,1.25
1630588234031,0.93
1630588234046,0.53
1630588234062,-0.11
1630588234078,-1.03
1630588234093,-2.19
1630588234109,-3.49
1630588234125,-4.97
1630588234140,-6.63
1630588234156,-8.49
1630588234171,-10.49
1630588234187,-12.39
1630588234203,-13.98
1630588234218,-15.09
1630588234234,-15.74
1630588234250,-16.16
1630588234265,-16.65
1630588234281,-17.44
1630588234296,-18.6
1630588234312,-19.98
1630588234328,-21.37
1630588234343,-22.61
1630588234359,-23.67
1630588234375,-24.69
1630588234390,-25.87
1630588234406,-27.39
1630588234421,-29.23
1630588234437,-31.23
1630588234453,-33.0
1630588234468,-34.06
1630588234484,-33.99
1630588234500,-32.49
1630588234515,-29.59
1630588234531,-25.5
1630588234546,-20.66
1630588234562,-15.56
1630588234578,-10.6
1630588234593,-6.03
1630588234609,-1.91
1630588234625,1.79
1630588234640,5.11
1630588234656,7.99
1630588234671,10.29
1630588234687,11.84
1630588234703,12.59
1630588234718,12.72
1630588234734,12.57
1630588234750,12.51
1630588234765,12.81
1630588234781,13.5
1630588234796,14.41
1630588234812,15.34
1630588234828,16.13
1630588234843,16.74
1630588234859,17.23
1630588234875,17.61
1630588234890,17.8
1630588234906,17.67
1630588234921,17.11
1630588234937,16.09
1630588234953,14.71
1630588234968,13.14
1630588234984,11.52
1630588235000,9.96
1630588235015,8.44
1630588235031,6.94
1630588235046,5.43
1630588235062,3.9
1630588235078,2.46
1630588235093,1.18
1630588235109,0.15
1630588235125,-0.67
1630588235140,-1.43
1630588235156,-2.37
1630588235171,-3.75
1630588235187,-5.7
1630588235203,-8.22
1630588235218,-11.17
1630588235234,-14.27
1630588235250,-17.2
1630588235265,-19.64
1630588235281,-21.25
1630588235296,-21.72
1630588235312,-20.83
1630588235328,-18.52
1630588235343,-14.94
1630588235359,-10.46
1630588235375,-5.57
1630588235390,-0.82
1630588235406,3.37
1630588235421,6.73
1630588235437,9.16
1630588235453,10.8
1630588235468,11.91
1630588235484,12.82
1630588235500,13.79
1630588235515,14.97
1630588235531,16.27
1630588235546,17.47
1630588235562,18.28
1630588235578,18.51
1630588235593,18.16
1630588235609,17.39
1630588235625,16.41
1630588235640,15.42
1630588235656,14.54
1630588235671,13.75
1630588235687,13.05
1630588235703,12.37
1630588235718,11.73
1630588235734,11.13
1630588235750,10.61
1630588235765,10.12
1630588235781,9.58
1630588235796,8.87
1630588235812,7.88
1630588235828,6.57
1630588235843,5.04
1630588235859,3.49
1630588235875,2.09
1630588235890,0.93
1630588235906,-0.04
1630588235921,-0.99
1630588235937,-2.06
1630588235953,-3.29
1630588235968,-4.64
1630588235984,-6.01
1630588236000,-7.4
1630588236015,-8.95
1630588236031,-10.79
1630588236046,-13.0
1630588236062,-15.36
1630588236078,-17.45
1630588236093,-18.71
1630588236109,-18.69
1630588236125,-17.21
1630588236140,-14.41
1630588236156,-10.65
1630588236171,-6.38
1630588236187,-1.97
1630588236203,2.31
1630588236218,6.32
1630588236234,9.99
1630588236250,13.26
1630588236265,16.03
1630588236281,18.18
1630588236296,19.63
1630588236312,20.36
1630588236328,20.42
1630588236343,19.99
1630588236359,19.31
1630588236375,18.63
1630588236390,18.13
1630588236406,17.91
1630588236421,17.93
1630588236437,18.07
1630588236453,18.19
1630588236468,18.18
1630588236484,17.95
1630588236500,17.46
1630588236515,16.68
1630588236531,15.57
1630588236546,14.16
1630588236562,12.5
1630588236578,10.72
1630588236593,8.98
1630588236609,7.41
1630588236625,6.1
1630588236640,5.02
1630588236656,4.09
1630588236671,3.19
1630588236687,2.21
1630588236703,1.07
1630588236718,-0.27
1630588236734,-1.83
1630588236750,-3.64
1630588236765,-5.69
1630588236781,-7.98
1630588236796,-10.42
1630588236812,-12.89
1630588236828,-15.24
1630588236843,-17.36
1630588236859,-19.13
1630588236875,-20.48
1630588236890,-21.31
1630588236906,-21.49
1630588236921,-20.87
1630588236937,-19.36
1630588236953,-16.95
1630588236968,-13.78
1630588236984,-10.12
1630588237000,-6.29
1630588237015,-2.65
1630588237031,0.44
1630588237046,2.76
1630588237062,4.16
1630588237078,4.61
1630588237093,4.22
1630588237109,3.21
1630588237125,1.85
1630588237140,0.42
1630588237156,-0.84
1630588237171,-1.76
1630588237187,-2.3
1630588237203,-2.49
1630588237218,-2.47
1630588237234,-2.41
1630588237250,-2.51
1630588237265,-2.82
1630588237281,-3.31
1630588237296,-3.84
1630588237312,-4.29
1630588237328,-4.59
1630588237343,-4.74
1630588237359,-4.81
1630588237375,-4.89
1630588237390,-5.04
1630588237406,-5.37
1630588237421,-5.99
1630588237437,-6.96
1630588237453,-8.28
1630588237468,-9.81
1630588237484,-11.34
1630588237500,-12.64
1630588237515,-13.57
1630588237531,-14.16
1630588237546,-14.55
1630588237562,-14.99
1630588237578,-15.73
1630588237593,-16.97
1630588237609,-18.77
1630588237625,-21.02
1630588237640,-23.38
1630588237656,-25.41
1630588237671,-26.6
1630588237687,-26.59
1630588237703,-25.28
1630588237718,-22.77
1630588237734,-19.37
1630588237750,-15.36
1630588237765,-11.03
1630588237781,-6.62
1630588237796,-2.39
1630588237812,1.37
1630588237828,4.45
1630588237843,6.74
1630588237859,8.33
1630588237875,9.4
1630588237890,10.18
1630588237906,10.81
1630588237921,11.33
1630588237937,11.74
1630588237953,12.05
1630588237968,12.31
1630588237984,12.63
1630588238000,13.06
1630588238015,13.53
1630588238031,13.87
1630588238046,13.87
1630588238062,13.36
1630588238078,12.32
1630588238093,10.95
1630588238109,9.53
1630588238125,8.36
1630588238140,7.55
1630588238156,7.01
1630588238171,6.49
1630588238187,5.72
1630588238203,4.55
1630588238218,3.03
1630588238234,1.33
1630588238250,-0.35
1630588238265,-1.9
1630588238281,-3.3
1630588238296,-4.61
1630588238312,-5.88
1630588238328,-7.14
1630588238343,-8.36
1630588238359,-9.57
1630588238375,-10.89
1630588238390,-12.48
1630588238406,-14.47
1630588238421,-16.81
1630588238437,-19.18
1630588238453,-21.0
1630588238468,-21.6
1630588238484,-20.46
1630588238500,-17.46
1630588238515,-12.97
1630588238531,-7.69
1630588238546,-2.48
1630588238562,2.03
1630588238578,5.57
1630588238593,8.2
1630588238609,10.14
1630588238625,11.59
1630588238640,12.64
1630588238656,13.28
1630588238671,13.48
1630588238687,13.31
1630588238703,12.94
1630588238718,12.58
1630588238734,12.43
1630588238750,12.6
1630588238765,13.07
1630588238781,13.75
1630588238796,14.5
1630588238812,15.13
1630588238828,15.54
1630588238843,15.65
1630588238859,15.52
1630588238875,15.25
1630588238890,14.94
1630588238906,14.61
1630588238921,14.18
1630588238937,13.55
1630588238953,12.66
1630588238968,11.59
1630588238984,10.51
1630588239000,9.57
1630588239015,8.85
1630588239031,8.24
1630588239046,7.54
1630588239062,6.57
1630588239078,5.28
1630588239093,3.77
1630588239109,2.25
1630588239125,0.86
1630588239140,-0.39
1630588239156,-1.71
1630588239171,-3.34
1630588239187,-5.4
1630588239203,-7.75
1630588239218,-9.94
1630588239234,-11.36
1630588239250,-11.47
1630588239265,-10.05
1630588239281,-7.21
1630588239296,-3.42
1630588239312,0.72
1630588239328,4.67
1630588239343,8.11
1630588239359,10.97
1630588239375,13.38
1630588239390,15.52
1630588239406,17.57
1630588239421,19.6
1630588239437,21.56
1630588239453,23.4
1630588239468,25.06
1630588239484,26.51
1630588239500,27.76
1630588239515,28.86
1630588239531,29.85
1630588239546,30.7
1630588239562,31.41
1630588239578,32.02
1630588239593,32.62
1630588239609,33.41
1630588239625,34.5
1630588239640,35.86
1630588239656,37.16
1630588239671,37.86
1630588239687,37.37
1630588239703,35.24
1630588239718,31.42
1630588239734,26.21
1630588239750,20.14
1630588239765,13.72
1630588239781,7.35
1630588239796,1.19
1630588239812,-4.68
1630588239828,-10.18
1630588239843,-15.12
1630588239859,-19.31
1630588239875,-22.65
1630588239890,-25.28
1630588239906,-27.55
1630588239921,-29.93
1630588239937,-32.76
1630588239953,-36.13
1630588239968,-39.73
1630588239984,-42.93
1630588240000,-45.04
1630588240015,-45.53
1630588240031,-44.28
1630588240046,-41.61
1630588240062,-38.2
1630588240078,-34.9
1630588240093,-32.39
1630588240109,-31.03
1630588240125,-30.84
1630588240140,-31.52
1630588240156,-32.62
1630588240171,-33.67
1630588240187,-34.28
1630588240203,-34.23
1630588240218,-33.4
1630588240234,-31.86
1630588240250,-29.79
1630588240265,-27.44
1630588240281,-25.06
1630588240296,-22.85
1630588240312,-20.9
1630588240328,-19.19
1630588240343,-17.62
1630588240359,-15.97
1630588240375,-14.09
1630588240390,-11.92
1630588240406,-9.52
1630588240421,-7.11
1630588240437,-4.98
1630588240453,-3.36
1630588240468,-2.35
1630588240484,-1.95
1630588240500,-2.03
1630588240515,-2.47
1630588240531,-3.17
1630588240546,-4.09
1630588240562,-5.19
1630588240578,-6.4
1630588240593,-7.63
1630588240609,-8.74
1630588240625,-9.65
1630588240640,-10.3
1630588240656,-10.73
1630588240671,-11.02
1630588240687,-11.3
1630588240703,-11.73
1630588240718,-12.45
1630588240734,-13.55
1630588240750,-15.02
1630588240765,-16.72
1630588240781,-18.38
1630588240796,-19.69
1630588240812,-20.28
1630588240828,-19.85
1630588240843,-18.27
1630588240859,-15.63
1630588240875,-12.16
1630588240890,-8.22
1630588240906,-4.08
1630588240921,0.05
1630588240937,4.11
1630588240953,8.06
1630588240968,11.85
1630588240984,15.26
1630588241000,18.09
1630588241015,20.15
1630588241031,21.42
1630588241046,22.03
1630588241062,22.2
1630588241078,22.19
1630588241093,22.22
1630588241109,22.48
1630588241125,23.11
1630588241140,24.2
1630588241156,25.75
1630588241171,27.61
1630588241187,29.57
1630588241203,31.33
1630588241218,32.65
1630588241234,33.4
1630588241250,33.53
1630588241265,33.01
1630588241281,31.88
1630588241296,30.18
1630588241312,27.99
1630588241328,25.49
1630588241343,22.84
1630588241359,20.18
1630588241375,17.46
1630588241390,14.55
1630588241406,11.2
1630588241421,7.29
1630588241437,2.88
1630588241453,-1.73
1630588241468,-6.13
1630588241484,-9.97
1630588241500,-13.13
1630588241515,-15.79
1630588241531,-18.36
1630588241546,-21.32
1630588241562,-24.97
1630588241578,-29.31
1630588241593,-33.99
1630588241609,-38.42
1630588241625,-41.98
1630588241640,-44.22
1630588241656,-44.93
1630588241671,-44.23
1630588241687,-42.38
1630588241703,-39.69
1630588241718,-36.42
1630588241734,-32.73
1630588241750,-28.64
1630588241765,-24.12
1630588241781,-19.17
1630588241796,-13.89
1630588241812,-8.55
1630588241828,-3.47
1630588241843,1.05
1630588241859,4.88
1630588241875,8.09
1630588241890,10.97
1630588241906,13.87
1630588241921,17.02
1630588241937,20.51
1630588241953,24.21
1630588241968,27.92
1630588241984,31.49
1630588242000,34.83
1630588242015,37.91
1630588242031,40.68
1630588242046,42.99
1630588242062,44.63
1630588242078,45.48
1630588242093,45.56
1630588242109,45.14
1630588242125,44.62
1630588242140,44.37
1630588242156,44.55
1630588242171,45.07
1630588242187,45.67
1630588242203,46.11
1630588242218,46.31
1630588242234,46.37
1630588242250,46.5
1630588242265,46.76
1630588242281,47.02
1630588242296,46.84
1630588242312,45.64
1630588242328,42.84
1630588242343,38.02
1630588242359,31.06
1630588242375,22.12
1630588242390,11.72
1630588242406,0.68
1630588242421,-9.85
1630588242437,-18.59
1630588242453,-24.34
1630588242468,-26.3
1630588242484,-24.42
1630588242500,-19.39
1630588242515,-12.59
1630588242531,-5.71
1630588242546,-0.34
1630588242562,2.44
1630588242578,2.26
1630588242593,-0.48
1630588242609,-4.77
1630588242625,-9.36
1630588242640,-13.02
1630588242656,-15.07
1630588242671,-15.42
1630588242687,-14.62
1630588242703,-13.5
1630588242718,-12.71
1630588242734,-12.33
1630588242750,-11.65
1630588242765,-9.44
1630588242781,-4.2
1630588242796,5.28
1630588242812,19.52
1630588242828,37.82
1630588242843,57.98
1630588242859,76.3
1630588242875,88.31
1630588242890,90.06
1630588242906,79.55
1630588242921,57.73
1630588242937,28.23
1630588242953,-3.71
1630588242968,-33.05
1630588242984,-56.39
1630588243000,-72.37
1630588243015,-81.26
1630588243031,-84.03
1630588243046,-81.71
1630588243062,-75.24
1630588243078,-65.88
1630588243093,-55.44
1630588243109,-46.11
1630588243125,-39.73
1630588243140,-37.1
1630588243156,-37.61
1630588243171,-39.55
1630588243187,-40.87
1630588243203,-40.04
1630588243218,-36.59
1630588243234,-31.18
1630588243250,-25.17
1630588243265,-19.92
1630588243281,-16.31
1630588243296,-14.48
1630588243312,-14.0
1630588243328,-14.2
1630588243343,-14.55
1630588243359,-14.86
1630588243375,-15.24
1630588243390,-15.88
1630588243406,-16.82
1630588243421,-17.83
1630588243437,-18.49
1630588243453,-18.32
1630588243468,-16.99
1630588243484,-14.49
1630588243500,-11.14
1630588243515,-7.44
1630588243531,-3.89
1630588243546,-0.84
1630588243562,1.57
1630588243578,3.35
1630588243593,4.54
1630588243609,5.22
1630588243625,5.35
1630588243640,4.95
1630588243656,4.07
1630588243671,2.88
1630588243687,1.56
1630588243703,0.26
1630588243718,-0.9
1630588243734,-1.86
1630588243750,-2.56
1630588243765,-2.99
1630588243781,-3.26
1630588243796,-3.58
1630588243812,-4.3
1630588243828,-5.71
1630588243843,-7.87
1630588243859,-10.42
1630588243875,-12.76
1630588243890,-14.09
1630588243906,-13.81
1630588243921,-11.62
1630588243937,-7.61
1630588243953,-2.14
1630588243968,4.34
1630588243984,11.36
1630588244000,18.52
1630588244015,25.46
1630588244031,31.82
1630588244046,37.29
1630588244062,41.63
1630588244078,44.76
1630588244093,46.7
1630588244109,47.57
1630588244125,47.51
1630588244140,46.67
1630588244156,45.15
1630588244171,43.11
1630588244187,40.71
1630588244203,38.1
1630588244218,35.36
1630588244234,32.51
1630588244250,29.5
1630588244265,26.27
1630588244281,22.86
1630588244296,19.39
1630588244312,15.99
1630588244328,12.66
1630588244343,9.27
1630588244359,5.54
1630588244375,1.22
1630588244390,-3.78
1630588244406,-9.3
1630588244421,-15.01
1630588244437,-20.5
1630588244453,-25.48
1630588244468,-29.82
1630588244484,-33.51
1630588244500,-36.66
1630588244515,-39.43
1630588244531,-42.03
1630588244546,-44.64
1630588244562,-47.37
1630588244578,-50.14
1630588244593,-52.65
1630588244609,-54.4
1630588244625,-54.85
1630588244640,-53.64
1630588244656,-50.72
1630588244671,-46.37
1630588244687,-41.02
1630588244703,-35.23
1630588244718,-29.45
1630588244734,-24.01
1630588244750,-19.08
1630588244765,-14.69
1630588244781,-10.76
1630588244796,-7.18
1630588244812,-3.86
1630588244828,-0.86
1630588244843,1.74
1630588244859,3.84
1630588244875,5.43
1630588244890,6.65
1630588244906,7.7
1630588244921,8.74
1630588244937,9.79
1630588244953,10.76
1630588244968,11.51
1630588244984,12.03
1630588245000,12.36
1630588245015,12.61
1630588245031,12.86
1630588245046,13.01
1630588245062,12.91
1630588245078,12.39
1630588245093,11.4
1630588245109,10.02
1630588245125,8.4
1630588245140,6.73
1630588245156,5.12
1630588245171,3.5
1630588245187,1.76
1630588245203,-0.29
1630588245218,-2.76
1630588245234,-5.64
1630588245250,-8.77
1630588245265,-11.86
1630588245281,-14.58
1630588245296,-16.54
1630588245312,-17.43
1630588245328,-17.01
1630588245343,-15.19
1630588245359,-12.04
1630588245375,-7.79
1630588245390,-2.83
1630588245406,2.42
1630588245421,7.56
1630588245437,12.3
1630588245453,16.44
1630588245468,19.84
1630588245484,22.4
1630588245500,24.05
1630588245515,24.78
1630588245531,24.71
1630588245546,24.05
1630588245562,23.06
1630588245578,22.02
1630588245593,21.12
1630588245609,20.52
1630588245625,20.26
1630588245640,20.33
1630588245656,20.66
1630588245671,21.11
1630588245687,21.51
1630588245703,21.73
1630588245718,21.67
1630588245734,21.29
1630588245750,20.64
1630588245765,19.76
1630588245781,18.74
1630588245796,17.75
1630588245812,16.99
1630588245828,16.69
1630588245843,16.94
1630588245859,17.59
1630588245875,18.17
1630588245890,17.97
1630588245906,16.25
1630588245921,12.45
1630588245937,6.48
1630588245953,-1.22
1630588245968,-9.68
1630588245984,-17.67
1630588246000,-24.02
1630588246015,-27.99
1630588246031,-29.39
1630588246046,-28.61
1630588246062,-26.37
1630588246078,-23.41
1630588246093,-20.26
1630588246109,-17.12
1630588246125,-14.02
1630588246140,-10.94
1630588246156,-8.0
1630588246171,-5.42
1630588246187,-3.41
1630588246203,-2.02
1630588246218,-1.08
1630588246234,-0.31
1630588246250,0.61
1630588246265,1.81
1630588246281,3.22
1630588246296,4.62
1630588246312,5.74
1630588246328,6.43
1630588246343,6.73
1630588246359,6.84
1630588246375,7.0
1630588246390,7.37
1630588246406,7.88
1630588246421,8.32
1630588246437,8.38
1630588246453,7.87
1630588246468,6.8
1630588246484,5.33
1630588246500,3.75
1630588246515,2.28
1630588246531,0.97
1630588246546,-0.32
1630588246562,-1.86
1630588246578,-3.88
1630588246593,-6.58
1630588246609,-10.03
1630588246625,-14.2
1630588246640,-18.89
1630588246656,-23.86
1630588246671,-28.65
1630588246687,-32.72
1630588246703,-35.5
1630588246718,-36.51
1630588246734,-35.54
1630588246750,-32.71
1630588246765,-28.49
1630588246781,-23.51
1630588246796,-18.44
1630588246812,-13.79
1630588246828,-9.81
1630588246843,-6.59
1630588246859,-4.11
1630588246875,-2.35
1630588246890,-1.31
1630588246906,-0.99
1630588246921,-1.28
1630588246937,-1.86
1630588246953,-2.32
1630588246968,-2.23
1630588246984,-1.43
1630588247000,-0.06
1630588247015,1.43
1630588247031,2.49
1630588247046,2.78
1630588247062,2.26
1630588247078,1.34
1630588247093,0.59
1630588247109,0.47
1630588247125,1.09
1630588247140,2.12
1630588247156,2.98
1630588247171,3.07
1630588247187,2.12
1630588247203,0.22
1630588247218,-2.23
1630588247234,-4.8
1630588247250,-7.2
1630588247265,-9.4
1630588247281,-11.51
1630588247296,-13.6
1630588247312,-15.68
1630588247328,-17.68
1630588247343,-19.61
1630588247359,-21.67
1630588247375,-24.1
1630588247390,-27.03
1630588247406,-30.24
1630588247421,-33.09
1630588247437,-34.72
1630588247453,-34.42
1630588247468,-31.85
1630588247484,-27.21
1630588247500,-21.11
1630588247515,-14.3
1630588247531,-7.46
1630588247546,-1.01
1630588247562,4.77
1630588247578,9.74
1630588247593,13.75
1630588247609,16.71
1630588247625,18.59
1630588247640,19.48
1630588247656,19.62
1630588247671,19.27
1630588247687,18.76
1630588247703,18.3
1630588247718,18.08
1630588247734,18.1
1630588247750,18.31
1630588247765,18.58
1630588247781,18.76
1630588247796,18.76
1630588247812,18.58
1630588247828,18.23
1630588247843,17.76
1630588247859,17.22
1630588247875,16.67
1630588247890,16.18
1630588247906,15.81
1630588247921,15.55
1630588247937,15.28
1630588247953,14.77
1630588247968,13.79
1630588247984,12.19
1630588248000,10.02
1630588248015,7.51
1630588248031,4.92
1630588248046,2.42
1630588248062,0.01
1630588248078,-2.49
1630588248093,-5.3
1630588248109,-8.56
1630588248125,-12.26
1630588248140,-16.27
1630588248156,-20.32
1630588248171,-24.03
1630588248187,-26.91
1630588248203,-28.37
1630588248218,-27.91
1630588248234,-25.24
1630588248250,-20.54
1630588248265,-14.43
1630588248281,-7.81
1630588248296,-1.6
1630588248312,3.6
1630588248328,7.67
1630588248343,10.85
1630588248359,13.51
1630588248375,15.86
1630588248390,17.85
1630588248406,19.24
1630588248421,19.85
1630588248437,19.73
1630588248453,19.24
1630588248468,18.85
1630588248484,18.88
1630588248500,19.39
1630588248515,20.13
1630588248531,20.78
1630588248546,21.11
1630588248562,21.12
1630588248578,21.02
1630588248593,21.06
1630588248609,21.41
1630588248625,21.96
1630588248640,22.52
1630588248656,22.82
1630588248671,22.71
1630588248687,22.21
1630588248703,21.42
1630588248718,20.48
1630588248734,19.48
1630588248750,18.38
1630588248765,17.05
1630588248781,15.34
1630588248796,13.22
1630588248812,10.75
1630588248828,8.18
1630588248843,5.79
1630588248859,3.76
1630588248875,2.1
1630588248890,0.58
1630588248906,-1.13
1630588248921,-3.32
1630588248937,-6.11
1630588248953,-9.43
1630588248968,-13.0
1630588248984,-16.42
1630588249000,-19.19
1630588249015,-20.83
1630588249031,-20.92
1630588249046,-19.16
1630588249062,-15.53
1630588249078,-10.29
1630588249093,-4.05
1630588249109,2.51
1630588249125,8.74
1630588249140,14.25
1630588249156,18.88
1630588249171,22.62
1630588249187,25.49
1630588249203,27.49
1630588249218,28.59
1630588249234,28.85
1630588249250,28.46
1630588249265,27.68
1630588249281,26.76
1630588249296,25.87
1630588249312,25.09
1630588249328,24.33
1630588249343,23.54
1630588249359,22.63
1630588249375,21.58
1630588249390,20.36
1630588249406,18.89
1630588249421,17.09
1630588249437,14.88
1630588249453,12.2
1630588249468,9.14
1630588249484,5.78
1630588249500,2.25
1630588249515,-1.36
1630588249531,-4.96
1630588249546,-8.48
1630588249562,-11.86
1630588249578,-14.97
1630588249593,-17.68
1630588249609,-19.89
1630588249625,-21.61
1630588249640,-22.95
1630588249656,-24.05
1630588249671,-24.99
1630588249687,-25.77
1630588249703,-26.28
1630588249718,-26.47
1630588249734,-26.41
1630588249750,-26.32
1630588249765,-26.56
1630588249781,-27.44
1630588249796,-29.09
1630588249812,-31.35
1630588249828,-33.74
1630588249843,-35.56
1630588249859,-36.06
1630588249875,-34.75
1630588249890,-31.48
1630588249906,-26.58
1630588249921,-20.68
1630588249937,-14.5
1630588249953,-8.69
1630588249968,-3.64
1630588249984,0.51
1630588250000,3.79
1630588250015,6.22
1630588250031,7.85
1630588250046,8.74
1630588250062,8.97
1630588250078,8.73
1630588250093,8.25
1630588250109,7.79
1630588250125,7.61
1630588250140,7.9
1630588250156,8.78
1630588250171,10.2
1630588250187,11.99
1630588250203,13.89
1630588250218,15.66
1630588250234,17.14
1630588250250,18.29
1630588250265,19.1
1630588250281,19.58
1630588250296,19.64
1630588250312,19.2
1630588250328,18.22
1630588250343,16.79
1630588250359,15.03
1630588250375,13.01
1630588250390,10.62
1630588250406,7.5
1630588250421,3.26
1630588250437,-2.29
1630588250453,-8.88
1630588250468,-15.79
1630588250484,-22.03
1630588250500,-26.66
1630588250515,-29.19
1630588250531,-29.74
1630588250546,-28.88
1630588250562,-27.41
1630588250578,-26.06
1630588250593,-25.34
1630588250609,-25.43
1630588250625,-26.3
1630588250640,-27.67
1630588250656,-29.09
1630588250671,-29.9
1630588250687,-29.36
1630588250703,-26.86
1630588250718,-22.2
1630588250734,-15.7
1630588250750,-8.12
1630588250765,-0.44
1630588250781,6.56
1630588250796,12.47
1630588250812,17.32
1630588250828,21.37
1630588250843,24.83
1630588250859,27.77
1630588250875,30.06
1630588250890,31.54
1630588250906,32.1
1630588250921,31.76
1630588250937,30.59
1630588250953,28.66
1630588250968,26.05
1630588250984,22.87
1630588251000,19.27
1630588251015,15.51
1630588251031,11.87
1630588251046,8.63
1630588251062,5.92
1630588251078,3.8
1630588251093,2.16
1630588251109,0.85
1630588251125,-0.35
1630588251140,-1.64
1630588251156,-3.16
1630588251171,-4.96
1630588251187,-6.98
1630588251203,-9.05
1630588251218,-10.99
1630588251234,-12.68
1630588251250,-14.07
1630588251265,-15.16
1630588251281,-15.98
1630588251296,-16.6
1630588251312,-17.07
1630588251328,-17.46
1630588251343,-17.85
1630588251359,-18.28
1630588251375,-18.79
1630588251390,-19.4
1630588251406,-20.11
1630588251421,-20.99
1630588251437,-22.04
1630588251453,-23.19
1630588251468,-24.24
1630588251484,-24.81
1630588251500,-24.49
1630588251515,-23.0
1630588251531,-20.23
1630588251546,-16.36
1630588251562,-11.81
1630588251578,-7.07
1630588251593,-2.66
1630588251609,1.02
1630588251625,3.72
1630588251640,5.38
1630588251656,6.09
1630588251671,5.99
1630588251687,5.26
1630588251703,4.1
1630588251718,2.73
1630588251734,1.41
1630588251750,0.42
1630588251765,-0.05
1630588251781,0.1
1630588251796,0.82
1630588251812,1.98
1630588251828,3.37
1630588251843,4.79
1630588251859,6.07
1630588251875,6.99
1630588251890,7.35
1630588251906,7.02
1630588251921,6.0
1630588251937,4.47
1630588251953,2.8
1630588251968,1.37
1630588251984,0.45
1630588252000,0.12
1630588252015,0.23
1630588252031,0.43
1630588252046,0.31
1630588252062,-0.44
1630588252078,-1.9
1630588252093,-3.8
1630588252109,-5.7
1630588252125,-7.14
1630588252140,-7.94
1630588252156,-8.35
1630588252171,-8.9
1630588252187,-10.2
1630588252203,-12.51
1630588252218,-15.76
1630588252234,-19.52
1630588252250,-23.24
1630588252265,-26.4
1630588252281,-28.5
1630588252296,-29.06
1630588252312,-27.76
1630588252328,-24.84
1630588252343,-21.3
1630588252359,-18.83
1630588252375,-19.2
1630588252390,-23.4
1630588252406,-30.96
1630588252421,-40.03
1630588252437,-48.09
1630588252453,-53.13
1630588252468,-54.33
1630588252484,-52.19
1630588252500,-47.92
1630588252515,-42.63
1630588252531,-36.8
1630588252546,-30.49
1630588252562,-23.72
1630588252578,-16.91
1630588252593,-10.8
1630588252609,-6.06
1630588252625,-2.77
1630588252640,-0.25
1630588252656,2.67
1630588252671,7.12
1630588252687,13.45
1630588252703,21.12
1630588252718,28.84
1630588252734,35.15
1630588252750,39.05
1630588252765,40.38
1630588252781,39.71
1630588252796,38.04
1630588252812,36.18
1630588252828,34.48
1630588252843,32.79
1630588252859,30.69
1630588252875,27.84
1630588252890,24.2
1630588252906,19.99
1630588252921,15.48
1630588252937,10.89
1630588252953,6.31
1630588252968,1.89
1630588252984,-2.08
1630588253000,-5.09
1630588253015,-6.61
1630588253031,-6.35
1630588253046,-4.39
1630588253062,-1.26
1630588253078,2.32
1630588253093,5.68
1630588253109,8.43
1630588253125,10.44
1630588253140,11.87
1630588253156,12.9
1630588253171,13.64
1630588253187,14.11
1630588253203,14.22
1630588253218,13.88
1630588253234,13.1
1630588253250,11.98
1630588253265,10.7
1630588253281,9.52
1630588253296,8.67
1630588253312,8.24
1630588253328,8.17
1630588253343,8.23
1630588253359,8.18
1630588253375,7.81
1630588253390,7.13
1630588253406,6.26
1630588253421,5.38
1630588253437,4.63
1630588253453,4.06
1630588253468,3.59
1630588253484,3.13
1630588253500,2.62
1630588253515,2.04
1630588253531,1.36
1630588253546,0.54
1630588253562,-0.49
1630588253578,-1.79
1630588253593,-3.31
1630588253609,-4.95
1630588253625,-6.59
1630588253640,-8.19
1630588253656,-9.84
1630588253671,-11.66
1630588253687,-13.75
1630588253703,-16.02
1630588253718,-18.18
1630588253734,-19.8
1630588253750,-20.42
1630588253765,-19.74
1630588253781,-17.72
1630588253796,-14.54
1630588253812,-10.64
1630588253828,-6.48
1630588253843,-2.55
1630588253859,0.85
1630588253875,3.62
1630588253890,5.82
1630588253906,7.64
1630588253921,9.17
1630588253937,10.41
1630588253953,11.21
1630588253968,11.45
1630588253984,11.11
1630588254000,10.4
1630588254015,9.68
1630588254031,9.31
1630588254046,9.45
1630588254062,10.04
1630588254078,10.82
1630588254093,11.49
1630588254109,11.86
1630588254125,11.86
1630588254140,11.56
1630588254156,11.04
1630588254171,10.39
1630588254187,9.64
1630588254203,8.84
1630588254218,8.06
1630588254234,7.34
1630588254250,6.7
1630588254265,6.1
1630588254281,5.41
1630588254296,4.53
1630588254312,3.38
1630588254328,1.95
1630588254343,0.31
1630588254359,-1.45
1630588254375,-3.27
1630588254390,-5.18
1630588254406,-7.28
1630588254421,-9.66
1630588254437,-12.32
1630588254453,-15.02
1630588254468,-17.32
1630588254484,-18.67
1630588254500,-18.6
1630588254515,-16.91
1630588254531,-13.72
1630588254546,-9.53
1630588254562,-4.92
1630588254578,-0.5
1630588254593,3.3
1630588254609,6.32
1630588254625,8.62
1630588254640,10.37
1630588254656,11.74
1630588254671,12.77
1630588254687,13.41
1630588254703,13.6
1630588254718,13.35
1630588254734,12.79
1630588254750,12.16
1630588254765,11.66
1630588254781,11.35
1630588254796,11.15
1630588254812,10.89
1630588254828,10.48
1630588254843,9.96
1630588254859,9.5
1630588254875,9.24
1630588254890,9.18
1630588254906,9.15
1630588254921,8.89
1630588254937,8.21
1630588254953,7.11
1630588254968,5.76
1630588254984,4.38
1630588255000,3.15
1630588255015,2.06
1630588255031,1.01
1630588255046,-0.15
1630588255062,-1.54
1630588255078,-3.2
1630588255093,-5.09
1630588255109,-7.16
1630588255125,-9.36
1630588255140,-11.71
1630588255156,-14.26
1630588255171,-16.98
1630588255187,-19.69
1630588255203,-22.0
1630588255218,-23.39
1630588255234,-23.39
1630588255250,-21.78
1630588255265,-18.68
1630588255281,-14.57
1630588255296,-10.07
1630588255312,-5.75
1630588255328,-1.89
1630588255343,1.49
1630588255359,4.53
1630588255375,7.35
1630588255390,9.91
1630588255406,12.03
1630588255421,13.44
1630588255437,13.93
1630588255453,13.49
1630588255468,12.32
1630588255484,10.74
1630588255500,9.21
1630588255515,8.1
1630588255531,7.65
1630588255546,7.9
1630588255562,8.7
1630588255578,9.77
1630588255593,10.78
1630588255609,11.47
1630588255625,11.65
1630588255640,11.29
1630588255656,10.45
1630588255671,9.25
1630588255687,7.82
1630588255703,6.24
1630588255718,4.57
1630588255734,2.85
1630588255750,1.18
1630588255765,-0.34
1630588255781,-1.64
1630588255796,-2.77
1630588255812,-3.86
1630588255828,-5.15
1630588255843,-6.82
1630588255859,-9.02
1630588255875,-11.72
1630588255890,-14.76
1630588255906,-17.89
1630588255921,-20.73
1630588255937,-22.86
1630588255953,-23.83
1630588255968,-23.3
1630588255984,-21.19
1630588256000,-17.71
1630588256015,-13.4
1630588256031,-8.89
1630588256046,-4.69
1630588256062,-1.09
1630588256078,1.92
1630588256093,4.51
1630588256109,6.83
1630588256125,8.97
1630588256140,10.88
1630588256156,12.47
1630588256171,13.64
1630588256187,14.33
1630588256203,14.54
1630588256218,14.35
1630588256234,13.88
1630588256250,13.32
1630588256265,12.85
1630588256281,12.57
1630588256296,12.54
1630588256312,12.72
1630588256328,13.04
1630588256343,13.42
1630588256359,13.74
1630588256375,13.91
1630588256390,13.81
1630588256406,13.38
1630588256421,12.59
1630588256437,11.44
1630588256453,9.99
1630588256468,8.3
1630588256484,6.35
1630588256500,4.23
1630588256515,2.06
1630588256531,0.03
1630588256546,-1.62
1630588256562,-2.77
1630588256578,-3.49
1630588256593,-4.04
1630588256609,-4.83
1630588256625,-6.26
1630588256640,-8.49
1630588256656,-11.43
1630588256671,-14.59
1630588256687,-17.34
1630588256703,-18.96
1630588256718,-18.96
1630588256734,-17.21
1630588256750,-13.89
1630588256765,-9.51
1630588256781,-4.62
1630588256796,0.28
1630588256812,4.86
1630588256828,8.94
1630588256843,12.41
1630588256859,15.14
1630588256875,17.08
1630588256890,18.27
1630588256906,18.85
1630588256921,19.07
1630588256937,19.13
1630588256953,19.22
1630588256968,19.43
1630588256984,19.8
1630588257000,20.38
1630588257015,21.16
1630588257031,22.08
1630588257046,22.98
1630588257062,23.67
1630588257078,23.92
1630588257093,23.58
1630588257109,22.65
1630588257125,21.21
1630588257140,19.37
1630588257156,17.27
1630588257171,15.05
1630588257187,12.87
1630588257203,10.92
1630588257218,9.3
1630588257234,8.03
1630588257250,7.02
1630588257265,6.1
1630588257281,5.16
1630588257296,4.09
1630588257312,2.88
1630588257328,1.51
1630588257343,-0.06
1630588257359,-1.93
1630588257375,-4.2
1630588257390,-6.94
1630588257406,-10.05
1630588257421,-13.32
1630588257437,-16.37
1630588257453,-18.75
1630588257468,-20.06
1630588257484,-20.07
1630588257500,-18.78
1630588257515,-16.4
1630588257531,-13.26
1630588257546,-9.7
1630588257562,-6.04
1630588257578,-2.54
1630588257593,0.53
1630588257609,2.89
1630588257625,4.28
1630588257640,4.59
1630588257656,3.94
1630588257671,2.71
1630588257687,1.36
1630588257703,0.28
1630588257718,-0.36
1630588257734,-0.68
1630588257750,-0.88
1630588257765,-1.11
1630588257781,-1.27
1630588257796,-1.13
1630588257812,-0.45
1630588257828,0.82
1630588257843,2.46
1630588257859,4.05
1630588257875,5.14
1630588257890,5.48
1630588257906,5.11
1630588257921,4.35
1630588257937,3.47
1630588257953,2.6
1630588257968,1.6
1630588257984,0.22
1630588258000,-1.68
1630588258015,-3.91
1630588258031,-5.97
1630588258046,-7.26
1630588258062,-7.37
1630588258078,-6.31
1630588258093,-4.58
1630588258109,-2.97
1630588258125,-2.32
1630588258140,-3.18
1630588258156,-5.74
1630588258171,-9.71
1630588258187,-14.46
1630588258203,-19.07
1630588258218,-22.59
1630588258234,-24.24
1630588258250,-23.63
1630588258265,-20.88
1630588258281,-16.58
1630588258296,-11.57
1630588258312,-6.69
1630588258328,-2.58
1630588258343,0.41
1630588258359,2.26
1630588258375,3.16
1630588258390,3.44
1630588258406,3.4
1630588258421,3.33
1630588258437,3.43
1630588258453,3.8
1630588258468,4.45
1630588258484,5.33
1630588258500,6.3
1630588258515,7.18
1630588258531,7.79
1630588258546,8.01
1630588258562,7.79
1630588258578,7.18
1630588258593,6.28
1630588258609,5.19
1630588258625,3.99
1630588258640,2.75
1630588258656,1.51
1630588258671,0.37
1630588258687,-0.61
1630588258703,-1.39
1630588258718,-2.1
1630588258734,-2.97
1630588258750,-4.23
1630588258765,-5.97
1630588258781,-8.04
1630588258796,-10.13
1630588258812,-11.9
1630588258828,-13.15
1630588258843,-13.95
1630588258859,-14.58
1630588258875,-15.45
1630588258890,-16.83
1630588258906,-18.79
1630588258921,-21.16
1630588258937,-23.56
1630588258953,-25.54
1630588258968,-26.67
1630588258984,-26.61
1630588259000,-25.15
1630588259015,-22.26
1630588259031,-18.01
1630588259046,-12.71
1630588259062,-6.8
1630588259078,-0.85
1630588259093,4.59
1630588259109,9.1
1630588259125,12.5
1630588259140,14.88
1630588259156,16.45
1630588259171,17.46
1630588259187,18.02
1630588259203,18.14
1630588259218,17.77
1630588259234,16.96
1630588259250,15.88
1630588259265,14.84
1630588259281,14.14
1630588259296,13.96
1630588259312,14.25
1630588259328,14.8
1630588259343,15.35
1630588259359,15.69
1630588259375,15.7
1630588259390,15.37
1630588259406,14.78
1630588259421,14.04
1630588259437,13.22
1630588259453,12.38
1630588259468,11.51
1630588259484,10.58
1630588259500,9.55
1630588259515,8.44
1630588259531,7.3
1630588259546,6.18
1630588259562,5.08
1630588259578,3.91
1630588259593,2.54
1630588259609,0.83
1630588259625,-1.29
1630588259640,-3.7
1630588259656,-6.24
1630588259671,-8.72
1630588259687,-11.09
1630588259703,-13.38
1630588259718,-15.65
1630588259734,-17.8
1630588259750,-19.46
1630588259765,-20.06
1630588259781,-19.09
1630588259796,-16.33
1630588259812,-12.03
1630588259828,-6.92
1630588259843,-1.77
1630588259859,2.81
1630588259875,6.62
1630588259890,9.82
1630588259906,12.68
1630588259921,15.31
1630588259937,17.53
1630588259953,19.03
1630588259968,19.59
1630588259984,19.3
1630588260000,18.54
1630588260015,17.8
1630588260031,17.48
1630588260046,17.69
1630588260062,18.31
1630588260078,19.1
1630588260093,19.83
1630588260109,20.44
1630588260125,20.97
1630588260140,21.51
1630588260156,22.09
1630588260171,22.66
1630588260187,23.06
1630588260203,23.1
1630588260218,22.62
1630588260234,21.6
1630588260250,20.18
1630588260265,18.6
1630588260281,17.12
1630588260296,15.87
1630588260312,14.79
1630588260328,13.71
1630588260343,12.46
1630588260359,10.96
1630588260375,9.29
1630588260390,7.59
1630588260406,5.98
1630588260421,4.42
1630588260437,2.73
1630588260453,0.67
1630588260468,-1.91
1630588260484,-5.04
1630588260500,-8.52
1630588260515,-12.03
1630588260531,-15.12
1630588260546,-17.38
1630588260562,-18.48
1630588260578,-18.3
1630588260593,-16.93
1630588260609,-14.68
1630588260625,-11.96
1630588260640,-9.12
1630588260656,-6.41
1630588260671,-3.95
1630588260687,-1.8
1630588260703,0.02
1630588260718,1.43
1630588260734,2.32
1630588260750,2.68
1630588260765,2.54
1630588260781,2.04
1630588260796,1.39
1630588260812,0.75
1630588260828,0.22
1630588260843,-0.14
1630588260859,-0.33
1630588260875,-0.39
1630588260890,-0.37
1630588260906,-0.33
1630588260921,-0.37
1630588260937,-0.5
1630588260953,-0.67
1630588260968,-0.8
1630588260984,-0.84
1630588261000,-0.84
1630588261015,-0.96
1630588261031,-1.38
1630588261046,-2.22
1630588261062,-3.42
1630588261078,-4.83
1630588261093,-6.26
1630588261109,-7.63
1630588261125,-8.97
1630588261140,-10.37
1630588261156,-11.89
1630588261171,-13.4
1630588261187,-14.73
1630588261203,-15.67
1630588261218,-16.21
1630588261234,-16.59
1630588261250,-17.21
1630588261265,-18.46
1630588261281,-20.56
1630588261296,-23.33
1630588261312,-26.3
1630588261328,-28.79
1630588261343,-30.11
1630588261359,-29.81
1630588261375,-27.81
1630588261390,-24.31
1630588261406,-19.79
1630588261421,-14.75
1630588261437,-9.67
1630588261453,-4.93
1630588261468,-0.8
1630588261484,2.55
1630588261500,5.06
1630588261515,6.77
1630588261531,7.87
1630588261546,8.59
1630588261562,9.18
1630588261578,9.75
1630588261593,10.35
1630588261609,10.87
1630588261625,11.21
1630588261640,11.32
1630588261656,11.23
1630588261671,11.08
1630588261687,10.96
1630588261703,10.93
1630588261718,10.88
1630588261734,10.65
1630588261750,10.09
1630588261765,9.19
1630588261781,8.09
1630588261796,7.05
1630588261812,6.23
1630588261828,5.65
1630588261843,5.13
1630588261859,4.39
1630588261875,3.2
1630588261890,1.54
1630588261906,-0.45
1630588261921,-2.47
1630588261937,-4.22
1630588261953,-5.58
1630588261968,-6.59
1630588261984,-7.41
1630588262000,-8.27
1630588262015,-9.37
1630588262031,-10.84
1630588262046,-12.73
1630588262062,-15.07
1630588262078,-17.74
1630588262093,-20.53
1630588262109,-23.06
1630588262125,-24.8
1630588262140,-25.16
1630588262156,-23.74
1630588262171,-20.43
1630588262187,-15.61
1630588262203,-9.98
1630588262218,-4.35
1630588262234,0.67
1630588262250,4.75
1630588262265,7.93
1630588262281,10.37
1630588262296,12.22
1630588262312,13.54
1630588262328,14.3
1630588262343,14.61
1630588262359,14.61
1630588262375,14.53
1630588262390,14.52
1630588262406,14.62
1630588262421,14.73
1630588262437,14.79
1630588262453,14.77
1630588262468,14.7
1630588262484,14.59
1630588262500,14.35
1630588262515,13.86
1630588262531,13.05
1630588262546,12.05
1630588262562,11.08
1630588262578,10.37
1630588262593,10.02
1630588262609,9.87
1630588262625,9.67
1630588262640,9.21
1630588262656,8.43
1630588262671,7.42
1630588262687,6.35
1630588262703,5.29
1630588262718,4.16
1630588262734,2.85
1630588262750,1.23
1630588262765,-0.7
1630588262781,-2.84
