timestamp,bvp
1631632613000,-14.18
1631632613015,-8.07
1631632613031,-1.0
1631632613046,6.21
1631632613062,12.64
1631632613078,17.55
1631632613093,20.49
1631632613109,21.5
1631632613125,21.11
1631632613140,20.11
1631632613156,19.26
1631632613171,18.98
1631632613187,19.24
1631632613203,19.67
1631632613218,19.86
1631632613234,19.59
1631632613250,18.9
1631632613265,18.04
1631632613281,17.2
1631632613296,16.45
1631632613312,15.69
1631632613328,14.81
1631632613343,13.81
1631632613359,12.81
1631632613375,11.96
1631632613390,11.37
1631632613406,10.99
1631632613421,10.61
1631632613437,9.95
1631632613453,8.82
1631632613468,7.15
1631632613484,5.09
1631632613500,2.87
1631632613515,0.78
1631632613531,-0.95
1631632613546,-2.22
1631632613562,-3.06
1631632613578,-3.64
1631632613593,-4.2
1631632613609,-4.99
1631632613625,-6.21
1631632613640,-7.95
1631632613656,-10.16
1631632613671,-12.66
1631632613687,-15.16
1631632613703,-17.33
1631632613718,-18.84
1631632613734,-19.44
1631632613750,-18.95
1631632613765,-17.35
1631632613781,-14.75
1631632613796,-11.4
1631632613812,-7.64
1631632613828,-3.81
1631632613843,-0.17
1631632613859,3.12
1631632613875,5.99
1631632613890,8.44
1631632613906,10.43
1631632613921,11.93
1631632613937,12.92
1631632613953,13.45
1631632613968,13.68
1631632613984,13.76
1631632614000,13.8
1631632614015,13.79
1631632614031,13.67
1631632614046,13.33
1631632614062,12.77
1631632614078,12.1
1631632614093,11.49
1631632614109,11.1
1631632614125,10.98
1631632614140,11.01
1631632614156,11.02
1631632614171,10.83
1631632614187,10.34
1631632614203,9.58
1631632614218,8.68
1631632614234,7.77
1631632614250,6.92
1631632614265,6.08
1631632614281,5.15
1631632614296,3.98
1631632614312,2.54
1631632614328,0.86
1631632614343,-0.94
1631632614359,-2.73
1631632614375,-4.39
1631632614390,-5.88
1631632614406,-7.19
1631632614421,-8.33
1631632614437,-9.37
1631632614453,-10.37
1631632614468,-11.41
1631632614484,-12.58
1631632614500,-13.93
1631632614515,-15.41
1631632614531,-16.85
1631632614546,-17.98
1631632614562,-18.48
1631632614578,-18.06
1631632614593,-16.57
1631632614609,-14.06
1631632614625,-10.79
1631632614640,-7.13
1631632614656,-3.5
1631632614671,-0.2
1631632614687,2.63
1631632614703,4.96
1631632614718,6.83
1631632614734,8.25
1631632614750,9.16
1631632614765,9.5
1631632614781,9.31
1631632614796,8.76
1631632614812,8.18
1631632614828,7.86
1631632614843,7.95
1631632614859,8.37
1631632614875,8.86
1631632614890,9.08
1631632614906,8.84
1631632614921,8.18
1631632614937,7.33
1631632614953,6.6
1631632614968,6.18
1631632614984,6.11
1631632615000,6.22
1631632615015,6.24
1631632615031,5.92
1631632615046,5.12
1631632615062,3.84
1631632615078,2.18
1631632615093,0.34
1631632615109,-1.48
1631632615125,-3.14
1631632615140,-4.59
1631632615156,-5.9
1631632615171,-7.14
1631632615187,-8.37
1631632615203,-9.55
1631632615218,-10.62
1631632615234,-11.52
1631632615250,-12.33
1631632615265,-13.22
1631632615281,-14.4
1631632615296,-16.01
1631632615312,-17.9
1631632615328,-19.73
1631632615343,-20.98
1631632615359,-21.19
1631632615375,-20.14
1631632615390,-17.9
1631632615406,-14.8
1631632615421,-11.33
1631632615437,-7.93
1631632615453,-4.89
1631632615468,-2.35
1631632615484,-0.3
1631632615500,1.29
1631632615515,2.52
1631632615531,3.43
1631632615546,4.1
1631632615562,4.66
1631632615578,5.19
1631632615593,5.76
1631632615609,6.29
1631632615625,6.65
1631632615640,6.64
1631632615656,6.12
1631632615671,5.13
1631632615687,3.82
1631632615703,2.42
1631632615718,1.11
1631632615734,-0.1
1631632615750,-1.31
1631632615765,-2.67
1631632615781,-4.24
1631632615796,-5.97
1631632615812,-7.71
1631632615828,-9.38
1631632615843,-11.02
1631632615859,-12.79
1631632615875,-14.89
1631632615890,-17.48
1631632615906,-20.61
1631632615921,-24.21
1631632615937,-28.18
1631632615953,-32.42
1631632615968,-36.8
1631632615984,-41.13
1631632616000,-45.12
1631632616015,-48.58
1631632616031,-51.51
1631632616046,-54.25
1631632616062,-57.43
1631632616078,-61.64
1631632616093,-67.07
1631632616109,-73.2
1631632616125,-78.81
1631632616140,-82.37
1631632616156,-82.53
1631632616171,-78.67
1631632616187,-71.13
1631632616203,-61.06
1631632616218,-49.94
1631632616234,-39.15
1631632616250,-29.49
1631632616265,-21.12
1631632616281,-13.58
1631632616296,-5.99
1631632616312,2.68
1631632616328,13.32
1631632616343,26.5
1631632616359,42.17
1631632616375,59.59
1631632616390,77.35
1631632616406,93.74
1631632616421,107.21
1631632616437,116.86
1631632616453,122.64
1631632616468,125.26
1631632616484,125.72
1631632616500,124.88
1631632616515,123.03
1631632616531,119.85
1631632616546,114.66
1631632616562,106.83
1631632616578,96.18
1631632616593,83.14
1631632616609,68.7
1631632616625,54.11
1631632616640,40.54
1631632616656,28.81
1631632616671,19.28
1631632616687,11.87
1631632616703,6.21
1631632616718,1.83
1631632616734,-1.71
1631632616750,-4.64
1631632616765,-7.04
1631632616781,-8.83
1631632616796,-9.95
1631632616812,-10.52
1631632616828,-10.94
1631632616843,-11.83
1631632616859,-13.84
1631632616875,-17.22
1631632616890,-21.71
1631632616906,-26.45
1631632616921,-30.31
1631632616937,-32.27
1631632616953,-31.61
1631632616968,-27.98
1631632616984,-21.28
1631632617000,-11.59
1631632617015,0.64
1631632617031,14.47
1631632617046,28.32
1631632617062,40.25
1631632617078,48.45
1631632617093,51.8
1631632617109,50.21
1631632617125,44.6
1631632617140,36.53
1631632617156,27.67
1631632617171,19.43
1631632617187,12.74
1631632617203,7.99
1631632617218,5.05
1631632617234,3.43
1631632617250,2.44
1631632617265,1.39
1631632617281,-0.14
1631632617296,-2.26
1631632617312,-4.72
1631632617328,-7.15
1631632617343,-9.21
1631632617359,-10.73
1631632617375,-11.78
1631632617390,-12.54
1631632617406,-13.23
1631632617421,-13.97
1631632617437,-14.77
1631632617453,-15.56
1631632617468,-16.3
1631632617484,-17.04
1631632617500,-18.01
1631632617515,-19.46
1631632617531,-21.62
1631632617546,-24.49
1631632617562,-27.8
1631632617578,-31.05
1631632617593,-33.61
1631632617609,-34.95
1631632617625,-34.76
1631632617640,-33.06
1631632617656,-30.13
1631632617671,-26.4
1631632617687,-22.29
1631632617703,-18.09
1631632617718,-13.94
1631632617734,-9.89
1631632617750,-6.06
1631632617765,-2.65
1631632617781,0.08
1631632617796,1.92
1631632617812,2.88
1631632617828,3.2
1631632617843,3.22
1631632617859,3.25
1631632617875,3.36
1631632617890,3.44
1631632617906,3.32
1631632617921,2.93
1631632617937,2.38
1631632617953,1.91
1631632617968,1.72
1631632617984,1.84
1631632618000,2.08
1631632618015,2.18
1631632618031,1.93
1631632618046,1.3
1631632618062,0.44
1631632618078,-0.47
1631632618093,-1.25
1631632618109,-1.83
1631632618125,-2.18
1631632618140,-2.3
1631632618156,-2.21
1631632618171,-1.94
1631632618187,-1.61
1631632618203,-1.45
1631632618218,-1.78
1631632618234,-2.85
1631632618250,-4.73
1631632618265,-7.22
1631632618281,-9.89
1631632618296,-12.24
1631632618312,-13.92
1631632618328,-14.83
1631632618343,-15.19
1631632618359,-15.36
1631632618375,-15.61
1631632618390,-16.0
1631632618406,-16.33
1631632618421,-16.26
1631632618437,-15.51
1631632618453,-14.07
1631632618468,-12.18
1631632618484,-10.31
1631632618500,-8.97
1631632618515,-8.58
1631632618531,-9.3
1631632618546,-11.06
1631632618562,-13.56
1631632618578,-16.37
1631632618593,-19.05
1631632618609,-21.23
1631632618625,-22.68
1631632618640,-23.31
1631632618656,-23.21
1631632618671,-22.57
1631632618687,-21.67
1631632618703,-20.77
1631632618718,-20.12
1631632618734,-19.84
1631632618750,-19.99
1631632618765,-20.54
1631632618781,-21.43
1631632618796,-22.62
1631632618812,-24.04
1631632618828,-25.64
1631632618843,-27.28
1631632618859,-28.84
1631632618875,-30.18
1631632618890,-31.24
1631632618906,-32.06
1631632618921,-32.62
1631632618937,-32.86
1631632618953,-32.55
1631632618968,-31.41
1631632618984,-29.22
1631632619000,-25.95
1631632619015,-21.85
1631632619031,-17.29
1631632619046,-12.68
1631632619062,-8.22
1631632619078,-3.91
1631632619093,0.39
1631632619109,4.79
1631632619125,9.3
1631632619140,13.81
1631632619156,18.21
1631632619171,22.47
1631632619187,26.64
1631632619203,30.85
1631632619218,35.05
1631632619234,38.98
1631632619250,42.16
1631632619265,44.11
1631632619281,44.58
1631632619296,43.74
1631632619312,42.1
1631632619328,40.27
1631632619343,38.71
1631632619359,37.64
1631632619375,37.17
1631632619390,37.45
1631632619406,38.65
1631632619421,40.76
1631632619437,43.29
1631632619453,45.29
1631632619468,45.67
1631632619484,43.86
1631632619500,40.24
1631632619515,36.05
1631632619531,32.7
1631632619546,30.9
1631632619562,30.2
1631632619578,29.24
1631632619593,26.6
1631632619609,21.65
1631632619625,14.95
1631632619640,7.85
1631632619656,1.81
1631632619671,-2.23
1631632619687,-3.91
1631632619703,-3.13
1631632619718,0.12
1631632619734,5.76
1631632619750,13.3
1631632619765,21.58
1631632619781,28.87
1631632619796,33.49
1631632619812,34.43
1631632619828,31.86
1631632619843,26.95
1631632619859,21.29
1631632619875,16.13
1631632619890,11.99
1631632619906,8.65
1631632619921,5.56
1631632619937,2.35
1631632619953,-1.04
1631632619968,-4.31
1631632619984,-7.17
1631632620000,-9.51
1631632620015,-11.45
1631632620031,-13.19
1631632620046,-14.89
1631632620062,-16.51
1631632620078,-17.93
1631632620093,-19.07
1631632620109,-20.01
1631632620125,-20.92
1631632620140,-22.01
1631632620156,-23.33
1631632620171,-24.79
1631632620187,-26.16
1631632620203,-27.25
1631632620218,-27.97
1631632620234,-28.35
1631632620250,-28.45
1631632620265,-28.31
1631632620281,-27.9
1631632620296,-27.2
1631632620312,-26.23
1631632620328,-25.14
1631632620343,-24.12
1631632620359,-23.32
1631632620375,-22.83
1631632620390,-22.55
1631632620406,-22.26
1631632620421,-21.67
1631632620437,-20.48
1631632620453,-18.49
1631632620468,-15.66
1631632620484,-12.12
1631632620500,-8.12
1631632620515,-4.01
1631632620531,-0.14
1631632620546,3.2
1631632620562,5.84
1631632620578,7.74
1631632620593,8.98
1631632620609,9.75
1631632620625,10.25
1631632620640,10.69
1631632620656,11.17
1631632620671,11.69
1631632620687,12.12
1631632620703,12.27
1631632620718,11.96
1631632620734,11.14
1631632620750,9.88
1631632620765,8.4
1631632620781,6.95
1631632620796,5.83
1631632620812,5.2
1631632620828,5.13
1631632620843,5.46
1631632620859,5.83
1631632620875,5.73
1631632620890,4.68
1631632620906,2.34
1631632620921,-1.25
1631632620937,-5.74
1631632620953,-10.55
1631632620968,-15.09
1631632620984,-18.97
1631632621000,-22.12
1631632621015,-24.67
1631632621031,-26.87
1631632621046,-28.87
1631632621062,-30.65
1631632621078,-32.06
1631632621093,-32.87
1631632621109,-32.93
1631632621125,-32.16
1631632621140,-30.61
1631632621156,-28.33
1631632621171,-25.42
1631632621187,-21.94
1631632621203,-18.01
1631632621218,-13.82
1631632621234,-9.62
1631632621250,-5.67
1631632621265,-2.22
1631632621281,0.63
1631632621296,2.87
1631632621312,4.57
1631632621328,5.83
1631632621343,6.72
1631632621359,7.3
1631632621375,7.66
1631632621390,7.87
1631632621406,8.0
1631632621421,8.1
1631632621437,8.16
1631632621453,8.18
1631632621468,8.17
1631632621484,8.13
1631632621500,8.07
1631632621515,7.94
1631632621531,7.64
1631632621546,7.12
1631632621562,6.36
1631632621578,5.46
1631632621593,4.53
1631632621609,3.62
1631632621625,2.72
1631632621640,1.71
1631632621656,0.5
1631632621671,-0.96
1631632621687,-2.65
1631632621703,-4.49
1631632621718,-6.5
1631632621734,-8.71
1631632621750,-11.14
1631632621765,-13.66
1631632621781,-15.96
1631632621796,-17.57
1631632621812,-18.07
1631632621828,-17.23
1631632621843,-15.11
1631632621859,-12.05
1631632621875,-8.54
1631632621890,-5.05
1631632621906,-1.91
1631632621921,0.75
1631632621937,2.94
1631632621953,4.78
1631632621968,6.38
1631632621984,7.79
1631632622000,9.0
1631632622015,9.94
1631632622031,10.6
1631632622046,10.97
1631632622062,11.13
1631632622078,11.19
1631632622093,11.23
1631632622109,11.26
1631632622125,11.22
1631632622140,11.05
1631632622156,10.68
1631632622171,10.14
1631632622187,9.47
1631632622203,8.81
1631632622218,8.2
1631632622234,7.69
1631632622250,7.21
1631632622265,6.67
1631632622281,5.92
1631632622296,4.87
1631632622312,3.5
1631632622328,1.9
1631632622343,0.28
1631632622359,-1.16
1631632622375,-2.28
1631632622390,-3.18
1631632622406,-4.09
1631632622421,-5.35
1631632622437,-7.21
1631632622453,-9.65
1631632622468,-12.34
1631632622484,-14.76
1631632622500,-16.39
1631632622515,-16.88
1631632622531,-16.18
1631632622546,-14.47
1631632622562,-12.07
1631632622578,-9.28
1631632622593,-6.27
1631632622609,-3.12
1631632622625,0.11
1631632622640,3.35
1631632622656,6.43
1631632622671,9.16
1631632622687,11.39
1631632622703,13.06
1631632622718,14.17
1631632622734,14.8
1631632622750,15.0
1631632622765,14.79
1631632622781,14.22
1631632622796,13.38
1631632622812,12.45
1631632622828,11.62
1631632622843,11.05
1631632622859,10.75
1631632622875,10.6
1631632622890,10.42
1631632622906,10.05
1631632622921,9.44
1631632622937,8.67
1631632622953,7.82
1631632622968,6.95
1631632622984,6.07
1631632623000,5.1
1631632623015,3.96
1631632623031,2.61
1631632623046,1.09
1631632623062,-0.51
1631632623078,-2.02
1631632623093,-3.33
1631632623109,-4.41
1631632623125,-5.38
1631632623140,-6.45
1631632623156,-7.83
1631632623171,-9.59
1631632623187,-11.58
1631632623203,-13.44
1631632623218,-14.74
1631632623234,-15.1
1631632623250,-14.32
1631632623265,-12.43
1631632623281,-9.69
1631632623296,-6.46
1631632623312,-3.14
1631632623328,-0.02
1631632623343,2.72
1631632623359,5.09
1631632623375,7.15
1631632623390,8.96
1631632623406,10.53
1631632623421,11.71
1631632623437,12.37
1631632623453,12.43
1631632623468,11.99
1631632623484,11.24
1631632623500,10.43
1631632623515,9.69
1631632623531,9.07
1631632623546,8.52
1631632623562,8.0
1631632623578,7.52
1631632623593,7.12
1631632623609,6.83
1631632623625,6.55
1631632623640,6.17
1631632623656,5.53
1631632623671,4.56
1631632623687,3.31
1631632623703,1.9
1631632623718,0.47
1631632623734,-0.86
1631632623750,-2.01
1631632623765,-3.01
1631632623781,-3.93
1631632623796,-4.92
1631632623812,-6.12
1631632623828,-7.64
1631632623843,-9.46
1631632623859,-11.45
1631632623875,-13.37
1631632623890,-14.9
1631632623906,-15.76
1631632623921,-15.76
1631632623937,-14.8
1631632623953,-12.9
1631632623968,-10.18
1631632623984,-6.84
1631632624000,-3.16
1631632624015,0.52
1631632624031,3.85
1631632624046,6.58
1631632624062,8.56
1631632624078,9.77
1631632624093,10.32
1631632624109,10.33
1631632624125,9.94
1631632624140,9.24
1631632624156,8.35
1631632624171,7.38
1631632624187,6.47
1631632624203,5.77
1631632624218,5.39
1631632624234,5.35
1631632624250,5.52
1631632624265,5.71
1631632624281,5.73
1631632624296,5.43
1631632624312,4.8
1631632624328,3.89
1631632624343,2.79
1631632624359,1.57
1631632624375,0.29
1631632624390,-1.03
1631632624406,-2.32
1631632624421,-3.56
1631632624437,-4.69
1631632624453,-5.73
1631632624468,-6.75
1631632624484,-7.9
1631632624500,-9.34
1631632624515,-11.15
1631632624531,-13.26
1631632624546,-15.4
1631632624562,-17.12
1631632624578,-17.93
1631632624593,-17.45
1631632624609,-15.55
1631632624625,-12.43
1631632624640,-8.53
1631632624656,-4.41
1631632624671,-0.59
1631632624687,2.64
1631632624703,5.15
1631632624718,7.03
1631632624734,8.38
1631632624750,9.3
1631632624765,9.86
1631632624781,10.11
1631632624796,10.1
1631632624812,9.91
1631632624828,9.65
1631632624843,9.43
1631632624859,9.26
1631632624875,9.14
1631632624890,9.01
1631632624906,8.83
1631632624921,8.66
1631632624937,8.61
1631632624953,8.82
1631632624968,9.4
1631632624984,10.3
1631632625000,11.26
1631632625015,11.96
1631632625031,12.04
1631632625046,11.31
1631632625062,9.8
1631632625078,7.73
1631632625093,5.42
1631632625109,3.1
1631632625125,0.81
1631632625140,-1.55
1631632625156,-4.15
1631632625171,-7.06
1631632625187,-10.09
1631632625203,-12.91
1631632625218,-15.07
1631632625234,-16.22
1631632625250,-16.25
1631632625265,-15.25
1631632625281,-13.5
1631632625296,-11.31
1631632625312,-8.92
1631632625328,-6.45
1631632625343,-3.95
1631632625359,-1.51
1631632625375,0.76
1631632625390,2.62
1631632625406,3.9
1631632625421,4.51
1631632625437,4.49
1631632625453,4.01
1631632625468,3.29
1631632625484,2.51
1631632625500,1.81
1631632625515,1.28
1631632625531,0.96
1631632625546,0.88
1631632625562,1.02
1631632625578,1.34
1631632625593,1.75
1631632625609,2.19
1631632625625,2.65
1631632625640,3.09
1631632625656,3.45
1631632625671,3.57
1631632625687,3.25
1631632625703,2.38
1631632625718,1.01
1631632625734,-0.64
1631632625750,-2.31
1631632625765,-3.82
1631632625781,-5.23
1631632625796,-6.75
1631632625812,-8.61
1631632625828,-10.92
1631632625843,-13.53
1631632625859,-16.04
1631632625875,-17.97
1631632625890,-18.86
1631632625906,-18.43
1631632625921,-16.65
1631632625937,-13.7
1631632625953,-9.93
1631632625968,-5.74
1631632625984,-1.55
1631632626000,2.33
1631632626015,5.65
1631632626031,8.29
1631632626046,10.19
1631632626062,11.38
1631632626078,11.94
1631632626093,12.0
1631632626109,11.66
1631632626125,11.02
1631632626140,10.13
1631632626156,9.08
1631632626171,7.97
1631632626187,6.99
1631632626203,6.28
1631632626218,5.96
1631632626234,5.96
1631632626250,6.08
1631632626265,6.09
1631632626281,5.75
1631632626296,5.02
1631632626312,3.96
1631632626328,2.73
1631632626343,1.51
1631632626359,0.37
1631632626375,-0.67
1631632626390,-1.68
1631632626406,-2.73
1631632626421,-3.87
1631632626437,-5.07
1631632626453,-6.33
1631632626468,-7.65
1631632626484,-9.04
1631632626500,-10.52
1631632626515,-11.98
1631632626531,-13.17
1631632626546,-13.77
1631632626562,-13.41
1631632626578,-11.92
1631632626593,-9.34
1631632626609,-6.0
1631632626625,-2.36
1631632626640,1.15
1631632626656,4.24
1631632626671,6.81
1631632626687,8.86
1631632626703,10.42
1631632626718,11.45
1631632626734,11.91
1631632626750,11.78
1631632626765,11.16
1631632626781,10.21
1631632626796,9.14
1631632626812,8.11
1631632626828,7.19
1631632626843,6.43
1631632626859,5.85
1631632626875,5.47
1631632626890,5.31
1631632626906,5.32
1631632626921,5.44
1631632626937,5.55
1631632626953,5.57
1631632626968,5.49
1631632626984,5.36
1631632627000,5.23
1631632627015,5.09
1631632627031,4.84
1631632627046,4.3
1631632627062,3.27
1631632627078,1.62
1631632627093,-0.65
1631632627109,-3.39
1631632627125,-6.34
1631632627140,-9.17
1631632627156,-11.56
1631632627171,-13.22
1631632627187,-13.94
1631632627203,-13.57
1631632627218,-12.1
1631632627234,-9.67
1631632627250,-6.61
1631632627265,-3.36
1631632627281,-0.38
1631632627296,1.99
1631632627312,3.68
1631632627328,4.82
1631632627343,5.65
1631632627359,6.4
1631632627375,7.17
1631632627390,7.87
1631632627406,8.35
1631632627421,8.45
1631632627437,8.17
1631632627453,7.61
1631632627468,6.96
1631632627484,6.36
1631632627500,5.87
1631632627515,5.47
1631632627531,5.04
1631632627546,4.5
1631632627562,3.82
1631632627578,3.05
1631632627593,2.35
1631632627609,1.82
1631632627625,1.5
1631632627640,1.28
1631632627656,0.98
1631632627671,0.45
1631632627687,-0.4
1631632627703,-1.49
1631632627718,-2.68
1631632627734,-3.85
1631632627750,-5.03
1631632627765,-6.32
1631632627781,-7.9
1631632627796,-9.78
1631632627812,-11.74
1631632627828,-13.34
1631632627843,-14.09
1631632627859,-13.62
1631632627875,-11.86
1631632627890,-9.05
1631632627906,-5.59
1631632627921,-1.94
1631632627937,1.6
1631632627953,4.86
1631632627968,7.79
1631632627984,10.34
1631632628000,12.41
1631632628015,13.91
1631632628031,14.74
1631632628046,14.96
1631632628062,14.69
1631632628078,14.13
1631632628093,13.42
1631632628109,12.66
1631632628125,11.87
1631632628140,11.05
1631632628156,10.21
1631632628171,9.42
1631632628187,8.76
1631632628203,8.28
1631632628218,7.95
1631632628234,7.72
1631632628250,7.47
1631632628265,7.1
1631632628281,6.53
1631632628296,5.74
1631632628312,4.75
1631632628328,3.63
1631632628343,2.49
1631632628359,1.42
1631632628375,0.46
1631632628390,-0.44
1631632628406,-1.39
1631632628421,-2.55
1631632628437,-4.07
1631632628453,-5.96
1631632628468,-8.15
1631632628484,-10.41
1631632628500,-12.45
1631632628515,-13.96
1631632628531,-14.69
1631632628546,-14.45
1631632628562,-13.16
1631632628578,-10.89
1631632628593,-7.84
1631632628609,-4.34
1631632628625,-0.8
1631632628640,2.42
1631632628656,5.05
1631632628671,7.02
1631632628687,8.39
1631632628703,9.32
1631632628718,9.96
1631632628734,10.36
1631632628750,10.52
1631632628765,10.38
1631632628781,9.93
1631632628796,9.18
1631632628812,8.26
1631632628828,7.32
1631632628843,6.53
1631632628859,6.03
1631632628875,5.86
1631632628890,5.98
1631632628906,6.25
1631632628921,6.47
1631632628937,6.48
1631632628953,6.17
1631632628968,5.54
1631632628984,4.63
1631632629000,3.5
1631632629015,2.22
1631632629031,0.85
1631632629046,-0.54
1631632629062,-1.86
1631632629078,-3.01
1631632629093,-3.91
1631632629109,-4.59
1631632629125,-5.19
1631632629140,-5.9
1631632629156,-6.96
1631632629171,-8.48
1631632629187,-10.43
1631632629203,-12.57
1631632629218,-14.5
1631632629234,-15.79
1631632629250,-16.13
1631632629265,-15.38
1631632629281,-13.63
1631632629296,-11.15
1631632629312,-8.25
1631632629328,-5.27
1631632629343,-2.42
1631632629359,0.16
1631632629375,2.4
1631632629390,4.28
1631632629406,5.82
1631632629421,7.05
1631632629437,7.99
1631632629453,8.67
1631632629468,9.1
1631632629484,9.28
1631632629500,9.23
1631632629515,9.03
1631632629531,8.72
1631632629546,8.37
1631632629562,7.96
1631632629578,7.45
1631632629593,6.79
1631632629609,5.98
1631632629625,5.11
1631632629640,4.31
1631632629656,3.68
1631632629671,3.2
1631632629687,2.74
1631632629703,2.07
1631632629718,1.03
1631632629734,-0.39
1631632629750,-2.06
1631632629765,-3.71
1631632629781,-5.16
1631632629796,-6.34
1631632629812,-7.36
1631632629828,-8.38
1631632629843,-9.59
1631632629859,-11.03
1631632629875,-12.64
1631632629890,-14.31
1631632629906,-15.83
1631632629921,-17.04
1631632629937,-17.76
1631632629953,-17.85
1631632629968,-17.2
1631632629984,-15.83
1631632630000,-13.8
1631632630015,-11.26
1631632630031,-8.36
1631632630046,-5.26
1631632630062,-2.14
1631632630078,0.85
1631632630093,3.55
1631632630109,5.81
1631632630125,7.53
1631632630140,8.68
1631632630156,9.31
1631632630171,9.46
1631632630187,9.26
1631632630203,8.83
1631632630218,8.39
1631632630234,8.11
1631632630250,8.11
1631632630265,8.36
1631632630281,8.65
1631632630296,8.73
1631632630312,8.41
1631632630328,7.63
1631632630343,6.55
1631632630359,5.39
1631632630375,4.39
1631632630390,3.64
1631632630406,3.1
1631632630421,2.61
1631632630437,2.04
1631632630453,1.28
1631632630468,0.31
1631632630484,-0.82
1631632630500,-2.05
1631632630515,-3.28
1631632630531,-4.51
1631632630546,-5.76
1631632630562,-7.08
1631632630578,-8.54
1631632630593,-10.14
1631632630609,-11.8
1631632630625,-13.46
1631632630640,-15.0
1631632630656,-16.35
1631632630671,-17.44
1631632630687,-18.15
1631632630703,-18.32
1631632630718,-17.77
1631632630734,-16.35
1631632630750,-14.06
1631632630765,-11.09
1631632630781,-7.77
1631632630796,-4.48
1631632630812,-1.55
1631632630828,0.88
1631632630843,2.86
1631632630859,4.53
1631632630875,6.05
1631632630890,7.5
1631632630906,8.85
1631632630921,9.94
1631632630937,10.6
1631632630953,10.73
1631632630968,10.41
1631632630984,9.85
1631632631000,9.29
1631632631015,8.96
1631632631031,8.91
1631632631046,9.1
1631632631062,9.41
1631632631078,9.71
1631632631093,9.95
1631632631109,10.09
1631632631125,10.06
1631632631140,9.75
1631632631156,9.05
1631632631171,7.94
1631632631187,6.54
1631632631203,5.06
1631632631218,3.74
1631632631234,2.73
1631632631250,2.02
1631632631265,1.47
1631632631281,0.87
1631632631296,0.04
1631632631312,-1.14
1631632631328,-2.64
1631632631343,-4.32
1631632631359,-5.97
1631632631375,-7.4
1631632631390,-8.44
1631632631406,-9.09
1631632631421,-9.5
1631632631437,-9.9
1631632631453,-10.57
1631632631468,-11.64
1631632631484,-13.02
1631632631500,-14.46
1631632631515,-15.56
1631632631531,-15.95
1631632631546,-15.36
1631632631562,-13.72
1631632631578,-11.16
1631632631593,-7.97
1631632631609,-4.49
1631632631625,-1.09
1631632631640,1.92
1631632631656,4.39
1631632631671,6.23
1631632631687,7.47
1631632631703,8.15
1631632631718,8.36
1631632631734,8.2
1631632631750,7.81
1631632631765,7.37
1631632631781,7.04
1631632631796,6.96
1631632631812,7.17
1631632631828,7.6
1631632631843,8.12
1631632631859,8.59
1631632631875,8.89
1631632631890,8.96
1631632631906,8.84
1631632631921,8.56
1631632631937,8.14
1631632631953,7.59
1631632631968,6.87
1631632631984,5.99
1631632632000,5.03
1631632632015,4.08
1631632632031,3.22
1631632632046,2.45
1631632632062,1.69
1631632632078,0.81
1631632632093,-0.24
1631632632109,-1.41
1631632632125,-2.58
1631632632140,-3.66
1631632632156,-4.62
1631632632171,-5.58
1631632632187,-6.7
1631632632203,-8.1
1631632632218,-9.83
1631632632234,-11.76
1631632632250,-13.73
1631632632265,-15.53
1631632632281,-16.96
1631632632296,-17.87
1631632632312,-18.13
1631632632328,-17.64
1631632632343,-16.35
1631632632359,-14.28
1631632632375,-11.5
1631632632390,-8.2
1631632632406,-4.62
1631632632421,-1.07
1631632632437,2.12
1631632632453,4.69
1631632632468,6.53
1631632632484,7.7
1631632632500,8.39
1631632632515,8.82
1631632632531,9.15
1631632632546,9.41
1631632632562,9.52
1631632632578,9.43
1631632632593,9.16
1631632632609,8.81
1631632632625,8.56
1631632632640,8.51
1631632632656,8.63
1631632632671,8.78
1631632632687,8.79
1631632632703,8.56
1631632632718,8.1
1631632632734,7.56
1631632632750,7.05
1631632632765,6.6
1631632632781,6.09
1631632632796,5.35
1631632632812,4.21
1631632632828,2.68
1631632632843,0.92
1631632632859,-0.77
1631632632875,-2.13
1631632632890,-3.08
1631632632906,-3.72
1631632632921,-4.33
1631632632937,-5.17
1631632632953,-6.39
1631632632968,-7.96
1631632632984,-9.78
1631632633000,-11.72
1631632633015,-13.72
1631632633031,-15.8
1631632633046,-17.9
1631632633062,-19.84
1631632633078,-21.31
1631632633093,-21.9
1631632633109,-21.35
1631632633125,-19.65
1631632633140,-17.09
1631632633156,-14.12
1631632633171,-11.23
1631632633187,-8.66
1631632633203,-6.4
1631632633218,-4.22
1631632633234,-1.88
1631632633250,0.75
1631632633265,3.53
1631632633281,6.16
1631632633296,8.33
1631632633312,9.86
1631632633328,10.78
1631632633343,11.3
1631632633359,11.61
1631632633375,11.81
1631632633390,11.89
1631632633406,11.76
1631632633421,11.41
1631632633437,10.97
1631632633453,10.65
1631632633468,10.58
1631632633484,10.77
1631632633500,10.99
1631632633515,10.98
1631632633531,10.52
1631632633546,9.56
1631632633562,8.23
1631632633578,6.77
1631632633593,5.41
1631632633609,4.26
1631632633625,3.31
1631632633640,2.46
1631632633656,1.57
1631632633671,0.52
1631632633687,-0.73
1631632633703,-2.16
1631632633718,-3.67
1631632633734,-5.15
1631632633750,-6.49
1631632633765,-7.69
1631632633781,-8.81
1631632633796,-9.98
1631632633812,-11.34
1631632633828,-12.95
1631632633843,-14.74
1631632633859,-16.48
1631632633875,-17.86
1631632633890,-18.57
1631632633906,-18.36
1631632633921,-17.17
1631632633937,-15.12
1631632633953,-12.47
1631632633968,-9.49
1631632633984,-6.41
1631632634000,-3.38
1631632634015,-0.44
1631632634031,2.32
1631632634046,4.85
1631632634062,7.0
1631632634078,8.67
1631632634093,9.81
1631632634109,10.4
1631632634125,10.53
1631632634140,10.32
1631632634156,9.87
1631632634171,9.29
1631632634187,8.67
1631632634203,8.08
1631632634218,7.58
1631632634234,7.28
1631632634250,7.18
1631632634265,7.3
1631632634281,7.54
1631632634296,7.77
1631632634312,7.8
1631632634328,7.54
1631632634343,6.93
1631632634359,6.05
1631632634375,5.04
1631632634390,4.02
1631632634406,3.09
1631632634421,2.19
1631632634437,1.25
1631632634453,0.15
1631632634468,-1.16
1631632634484,-2.67
1631632634500,-4.33
1631632634515,-6.08
1631632634531,-7.93
1631632634546,-9.89
1631632634562,-11.96
1631632634578,-14.04
1631632634593,-15.91
1631632634609,-17.25
1631632634625,-17.75
1631632634640,-17.2
1631632634656,-15.6
1631632634671,-13.13
1631632634687,-10.11
1631632634703,-6.88
1631632634718,-3.71
1631632634734,-0.71
1631632634750,2.08
1631632634765,4.68
1631632634781,7.12
1631632634796,9.31
1631632634812,11.12
1631632634828,12.41
1631632634843,13.08
1631632634859,13.14
1631632634875,12.71
1631632634890,11.95
1631632634906,11.05
1631632634921,10.15
1631632634937,9.32
1631632634953,8.6
1631632634968,8.0
1631632634984,7.5
1631632635000,7.12
1631632635015,6.85
1631632635031,6.67
1631632635046,6.54
1631632635062,6.34
1631632635078,5.94
1631632635093,5.24
1631632635109,4.18
1631632635125,2.78
1631632635140,1.14
1631632635156,-0.61
1631632635171,-2.33
1631632635187,-3.9
1631632635203,-5.26
1631632635218,-6.41
1631632635234,-7.45
1631632635250,-8.51
1631632635265,-9.78
1631632635281,-11.37
1631632635296,-13.29
1631632635312,-15.41
1631632635328,-17.48
1631632635343,-19.15
1631632635359,-20.11
1631632635375,-20.1
1631632635390,-18.97
1631632635406,-16.72
1631632635421,-13.5
1631632635437,-9.63
1631632635453,-5.5
1631632635468,-1.51
1631632635484,2.06
1631632635500,5.07
1631632635515,7.5
1631632635531,9.42
1631632635546,10.88
1631632635562,11.86
1631632635578,12.37
1631632635593,12.45
1631632635609,12.26
1631632635625,12.0
1631632635640,11.86
1631632635656,11.88
1631632635671,11.95
1631632635687,11.87
1631632635703,11.49
1631632635718,10.78
1631632635734,9.86
1631632635750,8.93
1631632635765,8.12
1631632635781,7.45
1631632635796,6.85
1631632635812,6.19
1631632635828,5.39
1631632635843,4.45
1631632635859,3.39
1631632635875,2.19
1631632635890,0.82
1631632635906,-0.76
1631632635921,-2.51
1631632635937,-4.34
1631632635953,-6.12
1631632635968,-7.78
1631632635984,-9.38
1631632636000,-11.06
1631632636015,-12.93
1631632636031,-14.99
1631632636046,-17.04
1631632636062,-18.77
1631632636078,-19.78
1631632636093,-19.78
1631632636109,-18.64
1631632636125,-16.42
1631632636140,-13.33
1631632636156,-9.67
1631632636171,-5.77
1631632636187,-1.94
1631632636203,1.57
1631632636218,4.58
1631632636234,7.02
1631632636250,8.89
1631632636265,10.3
1631632636281,11.34
1631632636296,12.07
1631632636312,12.5
1631632636328,12.6
1631632636343,12.39
1631632636359,11.94
1631632636375,11.38
1631632636390,10.85
1631632636406,10.42
1631632636421,10.07
1631632636437,9.71
1631632636453,9.31
1631632636468,8.92
1631632636484,8.63
1631632636500,8.47
1631632636515,8.38
1631632636531,8.12
1631632636546,7.48
1631632636562,6.28
1631632636578,4.56
1631632636593,2.54
1631632636609,0.5
1631632636625,-1.27
1631632636640,-2.63
1631632636656,-3.6
1631632636671,-4.33
1631632636687,-5.09
1631632636703,-6.15
1631632636718,-7.72
1631632636734,-9.83
1631632636750,-12.33
1631632636765,-14.83
1631632636781,-16.88
1631632636796,-18.04
1631632636812,-18.03
1631632636828,-16.77
1631632636843,-14.36
1631632636859,-11.05
1631632636875,-7.15
1631632636890,-3.08
1631632636906,0.79
1631632636921,4.13
1631632636937,6.72
1631632636953,8.55
1631632636968,9.75
1631632636984,10.56
1631632637000,11.17
1631632637015,11.7
1631632637031,12.14
1631632637046,12.44
1631632637062,12.51
1631632637078,12.33
1631632637093,11.94
1631632637109,11.4
1631632637125,10.83
1631632637140,10.32
1631632637156,9.93
1631632637171,9.68
1631632637187,9.55
1631632637203,9.43
1631632637218,9.21
1631632637234,8.81
1631632637250,8.21
1631632637265,7.43
1631632637281,6.48
1631632637296,5.41
1631632637312,4.19
1631632637328,2.83
1631632637343,1.36
1631632637359,-0.12
1631632637375,-1.51
1631632637390,-2.75
1631632637406,-3.89
1631632637421,-5.04
1631632637437,-6.36
1631632637453,-7.94
1631632637468,-9.79
1631632637484,-11.8
1631632637500,-13.85
1631632637515,-15.76
1631632637531,-17.4
1631632637546,-18.61
1631632637562,-19.22
1631632637578,-19.04
1631632637593,-17.93
1631632637609,-15.85
1631632637625,-12.95
1631632637640,-9.46
1631632637656,-5.72
1631632637671,-2.03
1631632637687,1.36
1631632637703,4.29
1631632637718,6.67
1631632637734,8.46
1631632637750,9.7
1631632637765,10.44
1631632637781,10.76
1631632637796,10.77
1631632637812,10.56
1631632637828,10.25
1631632637843,9.98
1631632637859,9.88
1631632637875,10.04
1631632637890,10.48
1631632637906,11.04
1631632637921,11.46
1631632637937,11.49
1631632637953,11.01
1631632637968,10.09
1631632637984,8.92
1631632638000,7.77
1631632638015,6.78
1631632638031,5.97
1631632638046,5.26
1631632638062,4.49
1631632638078,3.53
1631632638093,2.3
1631632638109,0.84
1631632638125,-0.75
1631632638140,-2.32
1631632638156,-3.76
1631632638171,-5.02
1631632638187,-6.16
1631632638203,-7.33
1631632638218,-8.72
1631632638234,-10.44
1631632638250,-12.54
1631632638265,-14.93
1631632638281,-17.45
1631632638296,-19.84
1631632638312,-21.82
1631632638328,-23.07
1631632638343,-23.34
1631632638359,-22.46
1631632638375,-20.48
1631632638390,-17.62
1631632638406,-14.21
1631632638421,-10.6
1631632638437,-7.06
1631632638453,-3.77
1631632638468,-0.81
1631632638484,1.8
1631632638500,4.04
1631632638515,5.9
1631632638531,7.37
1631632638546,8.44
1631632638562,9.09
1631632638578,9.34
1631632638593,9.26
1631632638609,8.96
1631632638625,8.61
1631632638640,8.36
1631632638656,8.25
1631632638671,8.24
1631632638687,8.24
1631632638703,8.13
1631632638718,7.89
1631632638734,7.59
1631632638750,7.29
1631632638765,7.03
1631632638781,6.78
1631632638796,6.47
1631632638812,6.02
1631632638828,5.38
1631632638843,4.58
1631632638859,3.68
1631632638875,2.74
1631632638890,1.81
1631632638906,0.92
1631632638921,0.09
1631632638937,-0.71
1631632638953,-1.49
1631632638968,-2.31
1631632638984,-3.2
1631632639000,-4.21
1631632639015,-5.32
1631632639031,-6.55
1631632639046,-7.9
1631632639062,-9.39
1631632639078,-11.03
1631632639093,-12.69
1631632639109,-14.16
1631632639125,-15.11
1631632639140,-15.24
1631632639156,-14.37
1631632639171,-12.53
1631632639187,-9.91
1631632639203,-6.82
1631632639218,-3.58
1631632639234,-0.38
1631632639250,2.67
1631632639265,5.49
1631632639281,7.96
1631632639296,9.95
1631632639312,11.29
1631632639328,11.94
1631632639343,11.96
1631632639359,11.58
1631632639375,11.03
1631632639390,10.53
1631632639406,10.16
1631632639421,9.96
1631632639437,9.91
1631632639453,10.01
1631632639468,10.25
1631632639484,10.57
1631632639500,10.84
1631632639515,10.88
1631632639531,10.53
1631632639546,9.75
1631632639562,8.6
1631632639578,7.22
1631632639593,5.81
1631632639609,4.5
1631632639625,3.39
1631632639640,2.52
1631632639656,1.86
1631632639671,1.36
1631632639687,0.91
1631632639703,0.3
1631632639718,-0.62
1631632639734,-1.92
1631632639750,-3.56
1631632639765,-5.35
1631632639781,-7.1
1631632639796,-8.73
1631632639812,-10.27
1631632639828,-11.89
1631632639843,-13.67
1631632639859,-15.55
1631632639875,-17.3
1631632639890,-18.53
1631632639906,-18.9
1631632639921,-18.23
1631632639937,-16.56
1631632639953,-14.09
1631632639968,-11.12
1631632639984,-7.89
1631632640000,-4.54
1631632640015,-1.14
1631632640031,2.18
1631632640046,5.23
1631632640062,7.73
1631632640078,9.49
1631632640093,10.48
1631632640109,10.87
1631632640125,10.92
1631632640140,10.92
1631632640156,10.98
1631632640171,11.08
1631632640187,11.09
1631632640203,10.93
1631632640218,10.6
1631632640234,10.24
1631632640250,9.94
1631632640265,9.76
1631632640281,9.61
1631632640296,9.38
1631632640312,8.95
1631632640328,8.3
1631632640343,7.45
1631632640359,6.49
1631632640375,5.54
1631632640390,4.66
1631632640406,3.9
1631632640421,3.24
1631632640437,2.61
1631632640453,1.88
1631632640468,0.98
1631632640484,-0.17
1631632640500,-1.55
1631632640515,-3.08
1631632640531,-4.71
1631632640546,-6.36
1631632640562,-8.05
1631632640578,-9.81
1631632640593,-11.63
1631632640609,-13.48
1631632640625,-15.27
1631632640640,-16.89
1631632640656,-18.24
1631632640671,-19.19
1631632640687,-19.67
1631632640703,-19.55
1631632640718,-18.71
1631632640734,-17.04
1631632640750,-14.54
1631632640765,-11.36
1631632640781,-7.73
1631632640796,-4.0
1631632640812,-0.45
1631632640828,2.7
1631632640843,5.35
1631632640859,7.45
1631632640875,8.99
1631632640890,9.93
1631632640906,10.31
1631632640921,10.22
1631632640937,9.85
1631632640953,9.41
1631632640968,9.09
1631632640984,8.96
1631632641000,8.96
1631632641015,9.0
1631632641031,9.01
1631632641046,8.97
1631632641062,8.9
1631632641078,8.78
1631632641093,8.55
1631632641109,8.12
1631632641125,7.49
1631632641140,6.73
1631632641156,6.01
1631632641171,5.46
1631632641187,5.1
1631632641203,4.8
1631632641218,4.35
1631632641234,3.6
1631632641250,2.5
1631632641265,1.17
1631632641281,-0.23
1631632641296,-1.54
1631632641312,-2.73
1631632641328,-3.84
1631632641343,-4.97
1631632641359,-6.15
1631632641375,-7.39
1631632641390,-8.69
1631632641406,-10.06
1631632641421,-11.57
1631632641437,-13.24
1631632641453,-14.99
1631632641468,-16.62
1631632641484,-17.75
1631632641500,-18.04
1631632641515,-17.23
1631632641531,-15.29
1631632641546,-12.44
1631632641562,-9.07
1631632641578,-5.64
1631632641593,-2.5
1631632641609,0.2
1631632641625,2.45
1631632641640,4.37
1631632641656,6.07
1631632641671,7.59
1631632641687,8.88
1631632641703,9.84
1631632641718,10.36
1631632641734,10.44
1631632641750,10.16
1631632641765,9.65
1631632641781,9.1
1631632641796,8.62
1631632641812,8.26
1631632641828,8.01
1631632641843,7.8
1631632641859,7.59
1631632641875,7.34
1631632641890,7.12
1631632641906,6.95
1631632641921,6.84
1631632641937,6.72
1631632641953,6.42
1631632641968,5.79
1631632641984,4.72
1631632642000,3.24
1631632642015,1.52
1631632642031,-0.19
1631632642046,-1.65
1631632642062,-2.76
1631632642078,-3.59
1631632642093,-4.33
1631632642109,-5.17
1631632642125,-6.26
1631632642140,-7.63
1631632642156,-9.2
1631632642171,-10.91
1631632642187,-12.64
1631632642203,-14.32
1631632642218,-15.8
1631632642234,-16.85
1631632642250,-17.19
1631632642265,-16.59
1631632642281,-14.95
1631632642296,-12.42
1631632642312,-9.36
1631632642328,-6.16
1631632642343,-3.18
1631632642359,-0.61
1631632642375,1.51
1631632642390,3.23
1631632642406,4.63
1631632642421,5.75
1631632642437,6.59
1631632642453,7.14
1631632642468,7.44
1631632642484,7.54
1631632642500,7.54
1631632642515,7.49
1631632642531,7.38
1631632642546,7.15
1631632642562,6.73
1631632642578,6.13
1631632642593,5.44
1631632642609,4.84
1631632642625,4.47
1631632642640,4.4
1631632642656,4.56
1631632642671,4.78
1631632642687,4.88
1631632642703,4.69
1631632642718,4.14
1631632642734,3.21
1631632642750,1.92
1631632642765,0.32
1631632642781,-1.48
1631632642796,-3.33
1631632642812,-5.04
1631632642828,-6.46
1631632642843,-7.55
1631632642859,-8.4
1631632642875,-9.24
1631632642890,-10.33
1631632642906,-11.83
1631632642921,-13.68
1631632642937,-15.61
1631632642953,-17.2
1631632642968,-17.99
1631632642984,-17.7
1631632643000,-16.23
1631632643015,-13.73
1631632643031,-10.49
1631632643046,-6.83
1631632643062,-3.13
1631632643078,0.33
1631632643093,3.28
1631632643109,5.59
1631632643125,7.21
1631632643140,8.22
1631632643156,8.78
1631632643171,9.1
1631632643187,9.3
1631632643203,9.44
1631632643218,9.49
1631632643234,9.41
1631632643250,9.19
1631632643265,8.88
1631632643281,8.53
1631632643296,8.16
1631632643312,7.71
1631632643328,7.1
1631632643343,6.27
1631632643359,5.24
1631632643375,4.14
1631632643390,3.13
1631632643406,2.32
1631632643421,1.71
1631632643437,1.15
1631632643453,0.44
1631632643468,-0.58
1631632643484,-1.91
1631632643500,-3.46
1631632643515,-5.04
1631632643531,-6.54
1631632643546,-7.95
1631632643562,-9.41
1631632643578,-11.07
1631632643593,-13.0
1631632643609,-15.11
1631632643625,-17.1
1631632643640,-18.61
1631632643656,-19.26
1631632643671,-18.84
1631632643687,-17.33
1631632643703,-14.91
1631632643718,-11.83
1631632643734,-8.37
1631632643750,-4.79
1631632643765,-1.28
1631632643781,1.97
1631632643796,4.8
1631632643812,7.1
1631632643828,8.86
1631632643843,10.17
1631632643859,11.14
1631632643875,11.8
1631632643890,12.11
1631632643906,11.94
1631632643921,11.21
1631632643937,9.97
1631632643953,8.45
1631632643968,6.96
1631632643984,5.78
1631632644000,5.06
1631632644015,4.79
1631632644031,4.85
1631632644046,5.08
1631632644062,5.3
1631632644078,5.32
1631632644093,5.01
1631632644109,4.27
1631632644125,3.09
1631632644140,1.58
1631632644156,-0.05
1631632644171,-1.57
1631632644187,-2.8
1631632644203,-3.7
1631632644218,-4.34
1631632644234,-4.93
1631632644250,-5.66
1631632644265,-6.74
1631632644281,-8.24
1631632644296,-10.12
1631632644312,-12.2
1631632644328,-14.22
1631632644343,-15.88
1631632644359,-16.91
1631632644375,-17.12
1631632644390,-16.42
1631632644406,-14.75
1631632644421,-12.17
1631632644437,-8.8
1631632644453,-4.92
1631632644468,-0.9
1631632644484,2.79
1631632644500,5.83
1631632644515,8.03
1631632644531,9.44
1631632644546,10.27
1631632644562,10.72
1631632644578,10.97
1631632644593,11.08
1631632644609,11.05
1631632644625,10.93
1631632644640,10.79
1631632644656,10.73
1631632644671,10.78
1631632644687,10.88
1631632644703,10.88
1631632644718,10.6
1631632644734,9.96
1631632644750,9.03
1631632644765,7.95
1631632644781,6.97
1631632644796,6.22
1631632644812,5.75
1631632644828,5.44
1631632644843,5.1
1631632644859,4.52
1631632644875,3.62
1631632644890,2.43
1631632644906,1.07
1631632644921,-0.28
1631632644937,-1.54
1631632644953,-2.73
1631632644968,-3.93
1631632644984,-5.27
1631632645000,-6.78
1631632645015,-8.41
1631632645031,-10.01
1631632645046,-11.35
1631632645062,-12.21
1631632645078,-12.37
1631632645093,-11.66
1631632645109,-10.02
1631632645125,-7.52
1631632645140,-4.4
1631632645156,-0.97
1631632645171,2.43
1631632645187,5.52
1631632645203,8.08
1631632645218,10.07
1631632645234,11.46
1631632645250,12.29
1631632645265,12.62
1631632645281,12.51
1631632645296,12.02
1631632645312,11.27
1631632645328,10.43
1631632645343,9.59
1631632645359,8.83
1631632645375,8.18
1631632645390,7.61
1631632645406,7.09
1631632645421,6.64
1631632645437,6.24
1631632645453,5.9
1631632645468,5.6
1631632645484,5.24
1631632645500,4.72
1631632645515,3.94
1631632645531,2.86
1631632645546,1.5
1631632645562,0.0
1631632645578,-1.52
1631632645593,-2.92
1631632645609,-4.15
1631632645625,-5.21
1631632645640,-6.14
1631632645656,-7.03
1631632645671,-7.97
1631632645687,-9.05
1631632645703,-10.33
1631632645718,-11.85
1631632645734,-13.54
1631632645750,-15.24
1631632645765,-16.65
1631632645781,-17.44
1631632645796,-17.27
1631632645812,-15.96
1631632645828,-13.52
1631632645843,-10.19
1631632645859,-6.35
1631632645875,-2.45
1631632645890,1.12
1631632645906,4.13
1631632645921,6.46
1631632645937,8.18
1631632645953,9.33
1631632645968,9.99
1631632645984,10.23
1631632646000,10.09
1631632646015,9.67
1631632646031,9.12
1631632646046,8.59
1631632646062,8.16
1631632646078,7.85
1631632646093,7.6
1631632646109,7.31
1631632646125,6.94
1631632646140,6.5
1631632646156,6.05
1631632646171,5.63
1631632646187,5.23
1631632646203,4.78
1631632646218,4.22
1631632646234,3.49
1631632646250,2.61
1631632646265,1.6
1631632646281,0.47
1631632646296,-0.74
1631632646312,-2.02
1631632646328,-3.35
1631632646343,-4.69
1631632646359,-6.06
1631632646375,-7.49
1631632646390,-9.05
1631632646406,-10.75
1631632646421,-12.53
1631632646437,-14.2
1631632646453,-15.47
1631632646468,-16.07
1631632646484,-15.82
1631632646500,-14.66
1631632646515,-12.67
1631632646531,-10.0
1631632646546,-6.86
1631632646562,-3.5
1631632646578,-0.18
1631632646593,2.88
1631632646609,5.46
1631632646625,7.45
1631632646640,8.87
1631632646656,9.8
1631632646671,10.39
1631632646687,10.72
1631632646703,10.83
1631632646718,10.68
1631632646734,10.25
1631632646750,9.57
1631632646765,8.75
1631632646781,7.95
1631632646796,7.3
1631632646812,6.82
1631632646828,6.44
1631632646843,6.07
1631632646859,5.61
1631632646875,5.06
1631632646890,4.45
1631632646906,3.81
1631632646921,3.12
1631632646937,2.35
1631632646953,1.44
1631632646968,0.39
1631632646984,-0.74
1631632647000,-1.88
1631632647015,-2.98
1631632647031,-4.06
1631632647046,-5.18
1631632647062,-6.45
1631632647078,-7.98
1631632647093,-9.87
1631632647109,-12.09
1631632647125,-14.46
1631632647140,-16.65
1631632647156,-18.2
1631632647171,-18.72
1631632647187,-17.97
1631632647203,-16.02
1631632647218,-13.18
1631632647234,-9.85
1631632647250,-6.35
1631632647265,-2.9
1631632647281,0.42
1631632647296,3.51
1631632647312,6.19
1631632647328,8.23
1631632647343,9.45
1631632647359,9.79
1631632647375,9.42
1631632647390,8.66
1631632647406,7.82
1631632647421,7.11
1631632647437,6.6
1631632647453,6.23
1631632647468,5.91
1631632647484,5.61
1631632647500,5.37
1631632647515,5.3
1631632647531,5.44
1631632647546,5.78
1631632647562,6.15
1631632647578,6.36
1631632647593,6.22
1631632647609,5.66
1631632647625,4.76
1631632647640,3.7
1631632647656,2.66
1631632647671,1.76
1631632647687,1.01
1631632647703,0.29
1631632647718,-0.57
1631632647734,-1.7
1631632647750,-3.15
1631632647765,-4.86
1631632647781,-6.68
1631632647796,-8.46
1631632647812,-10.08
1631632647828,-11.46
1631632647843,-12.58
1631632647859,-13.37
1631632647875,-13.74
1631632647890,-13.56
1631632647906,-12.67
1631632647921,-11.01
1631632647937,-8.67
1631632647953,-5.88
1631632647968,-2.91
1631632647984,-0.04
1631632648000,2.57
1631632648015,4.83
1631632648031,6.74
1631632648046,8.28
1631632648062,9.43
1631632648078,10.14
1631632648093,10.35
1631632648109,10.07
1631632648125,9.36
1631632648140,8.39
1631632648156,7.36
1631632648171,6.49
1631632648187,5.92
1631632648203,5.66
1631632648218,5.58
1631632648234,5.51
1631632648250,5.28
1631632648265,4.89
1631632648281,4.47
1631632648296,4.22
1631632648312,4.23
1631632648328,4.42
1631632648343,4.49
1631632648359,4.14
1631632648375,3.16
1631632648390,1.62
1631632648406,-0.21
1631632648421,-2.0
1631632648437,-3.5
1631632648453,-4.65
1631632648468,-5.6
1631632648484,-6.54
1631632648500,-7.65
1631632648515,-8.95
1631632648531,-10.38
1631632648546,-11.77
1631632648562,-12.93
1631632648578,-13.69
1631632648593,-13.89
1631632648609,-13.41
1631632648625,-12.21
1631632648640,-10.35
1631632648656,-7.99
1631632648671,-5.34
1631632648687,-2.64
1631632648703,-0.06
1631632648718,2.24
1631632648734,4.17
1631632648750,5.64
1631632648765,6.62
1631632648781,7.11
1631632648796,7.21
1631632648812,7.05
1631632648828,6.79
1631632648843,6.57
1631632648859,6.43
1631632648875,6.36
1631632648890,6.26
1631632648906,6.05
1631632648921,5.68
1631632648937,5.16
1631632648953,4.56
1631632648968,3.94
1631632648984,3.35
1631632649000,2.8
1631632649015,2.23
1631632649031,1.61
1631632649046,0.9
1631632649062,0.11
1631632649078,-0.71
1631632649093,-1.55
1631632649109,-2.41
1631632649125,-3.33
1631632649140,-4.33
1631632649156,-5.43
1631632649171,-6.63
1631632649187,-7.89
1631632649203,-9.24
1631632649218,-10.69
1631632649234,-12.22
1631632649250,-13.72
1631632649265,-14.99
1631632649281,-15.73
1631632649296,-15.72
1631632649312,-14.83
1631632649328,-13.09
1631632649343,-10.7
1631632649359,-7.9
1631632649375,-4.96
1631632649390,-2.07
1631632649406,0.62
1631632649421,3.05
1631632649437,5.15
1631632649453,6.88
1631632649468,8.19
1631632649484,9.07
1631632649500,9.51
1631632649515,9.56
1631632649531,9.29
1631632649546,8.81
1631632649562,8.2
1631632649578,7.51
1631632649593,6.78
1631632649609,6.05
1631632649625,5.4
1631632649640,4.89
1631632649656,4.61
1631632649671,4.56
1631632649687,4.68
1631632649703,4.83
1631632649718,4.79
1631632649734,4.42
1631632649750,3.61
1631632649765,2.42
1631632649781,0.99
1631632649796,-0.48
1631632649812,-1.81
1631632649828,-2.88
1631632649843,-3.7
1631632649859,-4.39
1631632649875,-5.14
1631632649890,-6.16
1631632649906,-7.6
1631632649921,-9.5
1631632649937,-11.76
1631632649953,-14.15
1631632649968,-16.34
1631632649984,-17.98
1631632650000,-18.76
1631632650015,-18.48
1631632650031,-17.1
1631632650046,-14.74
1631632650062,-11.6
1631632650078,-7.99
1631632650093,-4.24
1631632650109,-0.64
1631632650125,2.58
1631632650140,5.27
1631632650156,7.41
1631632650171,9.03
1631632650187,10.22
1631632650203,11.09
1631632650218,11.74
1631632650234,12.23
1631632650250,12.61
1631632650265,12.89
1631632650281,13.03
1631632650296,13.0
1631632650312,12.71
1631632650328,12.15
1631632650343,11.31
1631632650359,10.27
1631632650375,9.16
1631632650390,8.08
1631632650406,7.16
1631632650421,6.43
1631632650437,5.86
1631632650453,5.35
1631632650468,4.77
1631632650484,3.99
1631632650500,2.91
1631632650515,1.53
1631632650531,-0.07
1631632650546,-1.73
1631632650562,-3.31
1631632650578,-4.71
1631632650593,-5.91
1631632650609,-7.02
1631632650625,-8.17
1631632650640,-9.52
1631632650656,-11.16
1631632650671,-13.02
1631632650687,-14.92
1631632650703,-16.55
1631632650718,-17.59
1631632650734,-17.8
1631632650750,-17.03
1631632650765,-15.3
1631632650781,-12.75
1631632650796,-9.56
1631632650812,-6.02
1631632650828,-2.38
1631632650843,1.07
1631632650859,4.09
1631632650875,6.54
1631632650890,8.35
1631632650906,9.55
1631632650921,10.25
1631632650937,10.59
1631632650953,10.71
1631632650968,10.7
1631632650984,10.67
1631632651000,10.65
1631632651015,10.69
1631632651031,10.78
1631632651046,10.89
1631632651062,11.01
1631632651078,11.07
1631632651093,11.02
1631632651109,10.79
1631632651125,10.33
1631632651140,9.63
1631632651156,8.78
1631632651171,7.88
1631632651187,7.05
1631632651203,6.31
1631632651218,5.6
1631632651234,4.75
1631632651250,3.6
1631632651265,2.09
1631632651281,0.3
1631632651296,-1.6
1631632651312,-3.4
1631632651328,-4.91
1631632651343,-6.07
1631632651359,-6.92
1631632651375,-7.6
1631632651390,-8.31
1631632651406,-9.24
1631632651421,-10.52
1631632651437,-12.17
1631632651453,-14.03
1631632651468,-15.83
1631632651484,-17.17
1631632651500,-17.7
1631632651515,-17.18
1631632651531,-15.54
1631632651546,-12.91
1631632651562,-9.63
1631632651578,-6.06
1631632651593,-2.6
1631632651609,0.43
1631632651625,2.86
1631632651640,4.62
1631632651656,5.85
1631632651671,6.74
1631632651687,7.51
1631632651703,8.31
1631632651718,9.16
1631632651734,9.98
1631632651750,10.64
1631632651765,11.05
1631632651781,11.19
1631632651796,11.12
1631632651812,10.95
1631632651828,10.77
1631632651843,10.61
1631632651859,10.46
1631632651875,10.29
1631632651890,10.06
1631632651906,9.73
1631632651921,9.3
1631632651937,8.74
1631632651953,8.05
1631632651968,7.22
1631632651984,6.21
1631632652000,5.01
1631632652015,3.62
1631632652031,2.11
1631632652046,0.61
1631632652062,-0.76
1631632652078,-1.88
1631632652093,-2.72
1631632652109,-3.38
1631632652125,-3.98
1631632652140,-4.71
1631632652156,-5.71
1631632652171,-7.08
1631632652187,-8.83
1631632652203,-10.91
1631632652218,-13.21
1631632652234,-15.5
1631632652250,-17.49
1631632652265,-18.83
1631632652281,-19.21
1631632652296,-18.44
1631632652312,-16.53
1631632652328,-13.66
1631632652343,-10.21
1631632652359,-6.58
1631632652375,-3.11
1631632652390,-0.02
1631632652406,2.62
1631632652421,4.88
1631632652437,6.8
1631632652453,8.43
1631632652468,9.75
1631632652484,10.7
1631632652500,11.27
1631632652515,11.44
1631632652531,11.3
1631632652546,10.97
1631632652562,10.59
1631632652578,10.29
1631632652593,10.14
1631632652609,10.16
1631632652625,10.28
1631632652640,10.41
1631632652656,10.47
1631632652671,10.38
1631632652687,10.15
1631632652703,9.75
1631632652718,9.19
1631632652734,8.44
1631632652750,7.53
1631632652765,6.47
1631632652781,5.35
1631632652796,4.27
1631632652812,3.3
1631632652828,2.43
1631632652843,1.64
1631632652859,0.82
1631632652875,-0.09
1631632652890,-1.12
1631632652906,-2.27
1631632652921,-3.5
1631632652937,-4.8
1631632652953,-6.15
1631632652968,-7.57
1631632652984,-9.07
1631632653000,-10.69
1631632653015,-12.43
1631632653031,-14.2
1631632653046,-15.83
1631632653062,-17.04
1631632653078,-17.54
1631632653093,-17.1
1631632653109,-15.7
1631632653125,-13.49
1631632653140,-10.79
1631632653156,-7.89
1631632653171,-5.04
1631632653187,-2.3
1631632653203,0.34
1631632653218,2.91
1631632653234,5.32
1631632653250,7.41
1631632653265,8.94
1631632653281,9.75
1631632653296,9.83
1631632653312,9.34
1631632653328,8.58
1631632653343,7.87
1631632653359,7.42
1631632653375,7.28
1631632653390,7.34
1631632653406,7.44
1631632653421,7.48
1631632653437,7.42
1631632653453,7.3
1631632653468,7.18
1631632653484,7.09
1631632653500,6.96
1631632653515,6.75
1631632653531,6.37
1631632653546,5.77
1631632653562,4.94
1631632653578,3.88
1631632653593,2.64
1631632653609,1.3
1631632653625,-0.03
1631632653640,-1.28
1631632653656,-2.41
1631632653671,-3.45
1631632653687,-4.45
1631632653703,-5.55
1631632653718,-6.82
1631632653734,-8.33
1631632653750,-10.03
1631632653765,-11.84
1631632653781,-13.56
1631632653796,-14.95
1631632653812,-15.78
1631632653828,-15.83
1631632653843,-15.02
1631632653859,-13.35
1631632653875,-10.93
1631632653890,-7.97
1631632653906,-4.69
1631632653921,-1.37
1631632653937,1.69
1631632653953,4.2
1631632653968,5.97
1631632653984,6.98
1631632654000,7.41
1631632654015,7.54
1631632654031,7.67
1631632654046,7.94
1631632654062,8.28
1631632654078,8.49
1631632654093,8.36
1631632654109,7.8
1631632654125,6.89
1631632654140,5.82
1631632654156,4.85
1631632654171,4.15
1631632654187,3.8
1631632654203,3.75
1631632654218,3.88
1631632654234,4.01
1631632654250,3.94
1631632654265,3.48
1631632654281,2.56
1631632654296,1.24
1631632654312,-0.28
1631632654328,-1.77
1631632654343,-3.04
1631632654359,-4.03
1631632654375,-4.82
1631632654390,-5.57
1631632654406,-6.45
1631632654421,-7.55
1631632654437,-8.88
1631632654453,-10.43
1631632654468,-12.1
1631632654484,-13.83
1631632654500,-15.43
1631632654515,-16.68
1631632654531,-17.29
1631632654546,-16.99
1631632654562,-15.67
1631632654578,-13.42
1631632654593,-10.51
1631632654609,-7.3
1631632654625,-4.1
1631632654640,-1.11
1631632654656,1.56
1631632654671,3.83
1631632654687,5.64
1631632654703,6.9
1631632654718,7.59
1631632654734,7.75
1631632654750,7.52
1631632654765,7.1
1631632654781,6.72
1631632654796,6.56
1631632654812,6.71
1631632654828,7.13
1631632654843,7.72
1631632654859,8.3
1631632654875,8.69
1631632654890,8.77
1631632654906,8.5
1631632654921,7.88
1631632654937,7.01
1631632654953,5.95
1631632654968,4.79
1631632654984,3.59
1631632655000,2.39
1631632655015,1.23
1631632655031,0.13
1631632655046,-0.93
1631632655062,-2.01
1631632655078,-3.18
1631632655093,-4.54
1631632655109,-6.17
1631632655125,-8.07
1631632655140,-10.23
1631632655156,-12.53
1631632655171,-14.81
1631632655187,-16.83
1631632655203,-18.38
1631632655218,-19.24
1631632655234,-19.27
1631632655250,-18.4
1631632655265,-16.67
1631632655281,-14.23
1631632655296,-11.27
1631632655312,-8.05
1631632655328,-4.76
1631632655343,-1.6
1631632655359,1.29
1631632655375,3.82
1631632655390,5.95
1631632655406,7.68
1631632655421,9.07
1631632655437,10.17
1631632655453,11.05
1631632655468,11.71
1631632655484,12.14
1631632655500,12.31
1631632655515,12.2
1631632655531,11.84
1631632655546,11.3
1631632655562,10.69
1631632655578,10.14
1631632655593,9.73
1631632655609,9.49
1631632655625,9.39
1631632655640,9.35
1631632655656,9.22
1631632655671,8.81
1631632655687,8.0
1631632655703,6.7
1631632655718,4.96
1631632655734,2.92
1631632655750,0.83
1631632655765,-1.04
1631632655781,-2.48
1631632655796,-3.43
1631632655812,-3.98
1631632655828,-4.4
1631632655843,-5.04
1631632655859,-6.2
1631632655875,-8.01
1631632655890,-10.41
1631632655906,-13.11
1631632655921,-15.71
1631632655937,-17.79
1631632655953,-18.97
1631632655968,-19.03
1631632655984,-17.9
1631632656000,-15.68
1631632656015,-12.61
1631632656031,-9.04
1631632656046,-5.32
1631632656062,-1.77
1631632656078,1.38
1631632656093,4.0
1631632656109,6.03
1631632656125,7.5
1631632656140,8.49
1631632656156,9.11
1631632656171,9.5
1631632656187,9.77
1631632656203,10.05
1631632656218,10.43
1631632656234,10.97
1631632656250,11.64
1631632656265,12.35
1631632656281,12.91
1631632656296,13.15
1631632656312,12.99
1631632656328,12.47
1631632656343,11.75
1631632656359,11.06
1631632656375,10.53
1631632656390,10.18
1631632656406,9.88
1631632656421,9.42
1631632656437,8.64
1631632656453,7.45
1631632656468,5.89
1631632656484,4.08
1631632656500,2.18
1631632656515,0.35
1631632656531,-1.28
1631632656546,-2.61
1631632656562,-3.63
1631632656578,-4.4
1631632656593,-5.08
1631632656609,-5.83
1631632656625,-6.84
1631632656640,-8.22
1631632656656,-9.95
1631632656671,-11.89
1631632656687,-13.72
1631632656703,-15.06
1631632656718,-15.51
1631632656734,-14.81
1631632656750,-12.93
1631632656765,-10.09
1631632656781,-6.66
1631632656796,-3.08
1631632656812,0.33
1631632656828,3.36
1631632656843,5.9
1631632656859,7.87
1631632656875,9.23
1631632656890,9.96
1631632656906,10.13
1631632656921,9.96
1631632656937,9.75
1631632656953,9.71
1631632656968,9.92
1631632656984,10.24
1631632657000,10.48
1631632657015,10.51
1631632657031,10.37
1631632657046,10.2
1631632657062,10.17
1631632657078,10.3
1631632657093,10.43
1631632657109,10.36
1631632657125,9.91
1631632657140,9.04
1631632657156,7.89
1631632657171,6.61
1631632657187,5.36
1631632657203,4.19
1631632657218,3.1
1631632657234,2.04
1631632657250,0.98
1631632657265,-0.09
1631632657281,-1.17
1631632657296,-2.27
1631632657312,-3.39
1631632657328,-4.55
1631632657343,-5.8
1631632657359,-7.19
1631632657375,-8.78
1631632657390,-10.56
1631632657406,-12.49
1631632657421,-14.46
1631632657437,-16.33
1631632657453,-17.96
1631632657468,-19.17
1631632657484,-19.8
1631632657500,-19.69
1631632657515,-18.69
1631632657531,-16.76
1631632657546,-13.98
1631632657562,-10.54
1631632657578,-6.71
1631632657593,-2.81
1631632657609,0.88
1631632657625,4.14
1631632657640,6.83
1631632657656,8.91
1631632657671,10.38
1631632657687,11.33
1631632657703,11.86
1631632657718,12.06
1631632657734,12.01
1631632657750,11.77
1631632657765,11.45
1631632657781,11.15
1631632657796,10.99
1631632657812,11.01
1631632657828,11.21
1631632657843,11.47
1631632657859,11.67
1631632657875,11.7
1631632657890,11.47
1631632657906,10.97
1631632657921,10.21
1631632657937,9.21
1631632657953,8.04
1631632657968,6.79
1631632657984,5.53
1631632658000,4.3
1631632658015,3.07
1631632658031,1.81
1631632658046,0.51
1631632658062,-0.79
1631632658078,-1.96
1631632658093,-2.94
1631632658109,-3.73
1631632658125,-4.46
1631632658140,-5.32
1631632658156,-6.5
1631632658171,-8.04
1631632658187,-9.84
1631632658203,-11.76
1631632658218,-13.64
1631632658234,-15.43
1631632658250,-17.08
1631632658265,-18.56
1631632658281,-19.7
1631632658296,-20.2
1631632658312,-19.76
1631632658328,-18.15
1631632658343,-15.41
1631632658359,-11.86
1631632658375,-8.0
1631632658390,-4.33
1631632658406,-1.16
1631632658421,1.49
1631632658437,3.75
1631632658453,5.81
1631632658468,7.73
1631632658484,9.44
1631632658500,10.8
1631632658515,11.73
1631632658531,12.27
1631632658546,12.56
1631632658562,12.75
1631632658578,12.92
1631632658593,13.0
1631632658609,12.93
1631632658625,12.67
1631632658640,12.28
1631632658656,11.9
1631632658671,11.65
1631632658687,11.58
1631632658703,11.61
1631632658718,11.58
1631632658734,11.31
1631632658750,10.71
1631632658765,9.78
1631632658781,8.59
1631632658796,7.3
1631632658812,6.01
1631632658828,4.83
1631632658843,3.77
1631632658859,2.78
1631632658875,1.76
1631632658890,0.61
1631632658906,-0.77
1631632658921,-2.39
1631632658937,-4.16
1631632658953,-5.9
1631632658968,-7.47
1631632658984,-8.78
1631632659000,-9.89
1631632659015,-10.97
1631632659031,-12.26
1631632659046,-13.91
1631632659062,-15.93
1631632659078,-18.16
1631632659093,-20.27
1631632659109,-21.87
1631632659125,-22.62
1631632659140,-22.33
1631632659156,-20.93
1631632659171,-18.57
1631632659187,-15.43
1631632659203,-11.76
1631632659218,-7.82
1631632659234,-3.87
1631632659250,-0.18
1631632659265,3.03
1631632659281,5.6
1631632659296,7.52
1631632659312,8.88
1631632659328,9.84
1631632659343,10.56
1631632659359,11.13
1631632659375,11.52
1631632659390,11.69
1631632659406,11.61
1631632659421,11.34
1631632659437,11.06
1631632659453,10.9
1631632659468,10.99
1631632659484,11.26
1631632659500,11.55
1631632659515,11.66
1631632659531,11.43
1631632659546,10.84
1631632659562,10.01
1631632659578,9.13
1631632659593,8.34
1631632659609,7.69
1631632659625,7.12
1631632659640,6.52
1631632659656,5.84
1631632659671,5.07
1631632659687,4.25
1631632659703,3.39
1631632659718,2.45
1631632659734,1.32
1631632659750,-0.1
1631632659765,-1.81
1631632659781,-3.7
1631632659796,-5.51
1631632659812,-6.98
1631632659828,-7.93
1631632659843,-8.42
1631632659859,-8.73
1631632659875,-9.26
1631632659890,-10.37
1631632659906,-12.23
1631632659921,-14.74
1631632659937,-17.53
1631632659953,-20.12
1631632659968,-22.04
1631632659984,-22.93
1631632660000,-22.62
1631632660015,-21.1
1631632660031,-18.53
1631632660046,-15.15
1631632660062,-11.31
1631632660078,-7.38
1631632660093,-3.68
1631632660109,-0.47
1631632660125,2.13
1631632660140,4.11
1631632660156,5.54
1631632660171,6.51
1631632660187,7.13
1631632660203,7.53
1631632660218,7.82
1631632660234,8.09
1631632660250,8.37
1631632660265,8.65
1631632660281,8.86
1631632660296,8.93
1631632660312,8.88
1631632660328,8.77
1631632660343,8.71
1631632660359,8.79
1631632660375,9.0
1631632660390,9.22
1631632660406,9.28
1631632660421,9.05
1631632660437,8.47
1631632660453,7.62
1631632660468,6.68
1631632660484,5.81
1631632660500,5.09
1631632660515,4.48
1631632660531,3.86
1631632660546,3.1
1631632660562,2.09
1631632660578,0.87
1631632660593,-0.52
1631632660609,-1.96
1631632660625,-3.37
1631632660640,-4.7
1631632660656,-5.9
1631632660671,-6.93
1631632660687,-7.81
1631632660703,-8.63
1631632660718,-9.5
1631632660734,-10.6
1631632660750,-12.03
1631632660765,-13.79
1631632660781,-15.72
1631632660796,-17.58
1631632660812,-19.07
1631632660828,-19.96
1631632660843,-20.07
1631632660859,-19.32
1631632660875,-17.69
1631632660890,-15.28
1631632660906,-12.25
1631632660921,-8.88
1631632660937,-5.5
1631632660953,-2.37
1631632660968,0.32
1631632660984,2.54
1631632661000,4.32
1631632661015,5.76
1631632661031,6.92
1631632661046,7.85
1631632661062,8.6
1631632661078,9.25
1631632661093,9.87
1631632661109,10.5
1631632661125,11.1
1631632661140,11.61
1631632661156,11.91
1631632661171,11.95
1631632661187,11.74
1631632661203,11.38
1631632661218,10.96
1631632661234,10.56
1631632661250,10.2
1631632661265,9.84
1631632661281,9.42
1631632661296,8.91
1631632661312,8.32
1631632661328,7.68
1631632661343,7.01
1631632661359,6.28
1631632661375,5.43
1631632661390,4.41
1631632661406,3.26
1631632661421,2.08
1631632661437,0.98
1631632661453,0.05
1631632661468,-0.74
1631632661484,-1.53
1631632661500,-2.47
1631632661515,-3.66
1631632661531,-5.08
1631632661546,-6.61
1631632661562,-8.12
1631632661578,-9.52
1631632661593,-10.87
1631632661609,-12.32
1631632661625,-13.97
1631632661640,-15.9
1631632661656,-17.95
1631632661671,-19.89
1631632661687,-21.4
1631632661703,-22.21
1631632661718,-22.14
1631632661734,-21.17
1631632661750,-19.41
1631632661765,-16.99
1631632661781,-14.11
1631632661796,-10.92
1631632661812,-7.59
1631632661828,-4.26
1631632661843,-1.11
1631632661859,1.74
1631632661875,4.2
1631632661890,6.2
1631632661906,7.77
1631632661921,8.94
1631632661937,9.8
1631632661953,10.38
1631632661968,10.76
1631632661984,10.98
1631632662000,11.12
1631632662015,11.24
1631632662031,11.37
1631632662046,11.5
1631632662062,11.61
1631632662078,11.68
1631632662093,11.7
1631632662109,11.71
1631632662125,11.75
1631632662140,11.78
1631632662156,11.73
1631632662171,11.5
1631632662187,11.04
1631632662203,10.37
1631632662218,9.54
1631632662234,8.67
1631632662250,7.79
1631632662265,6.87
1631632662281,5.86
1631632662296,4.74
1631632662312,3.52
1631632662328,2.29
1631632662343,1.09
1631632662359,-0.09
1631632662375,-1.3
1631632662390,-2.58
1631632662406,-3.91
1631632662421,-5.24
1631632662437,-6.47
1631632662453,-7.61
1631632662468,-8.7
1631632662484,-9.89
1631632662500,-11.31
1631632662515,-13.06
1631632662531,-15.12
1631632662546,-17.38
1631632662562,-19.65
1631632662578,-21.69
1631632662593,-23.19
1631632662609,-23.89
1631632662625,-23.57
1631632662640,-22.15
1631632662656,-19.67
1631632662671,-16.33
1631632662687,-12.44
1631632662703,-8.37
1631632662718,-4.47
1631632662734,-1.02
1631632662750,1.82
1631632662765,4.03
1631632662781,5.73
1631632662796,7.1
1631632662812,8.3
1631632662828,9.37
1631632662843,10.27
1631632662859,10.88
1631632662875,11.13
1631632662890,11.02
1631632662906,10.71
1631632662921,10.35
1631632662937,10.08
1631632662953,9.92
1631632662968,9.82
1631632662984,9.67
1631632663000,9.41
1631632663015,9.08
1631632663031,8.77
1631632663046,8.55
1631632663062,8.44
1631632663078,8.34
1631632663093,8.09
1631632663109,7.61
1631632663125,6.88
1631632663140,6.02
1631632663156,5.18
1631632663171,4.43
1631632663187,3.78
1631632663203,3.15
1631632663218,2.48
1631632663234,1.73
1631632663250,0.95
1631632663265,0.12
1631632663281,-0.77
1631632663296,-1.79
1631632663312,-2.97
1631632663328,-4.22
1631632663343,-5.44
1631632663359,-6.51
1631632663375,-7.43
1631632663390,-8.39
1631632663406,-9.64
1631632663421,-11.39
1631632663437,-13.63
1631632663453,-16.08
1631632663468,-18.27
1631632663484,-19.7
1631632663500,-20.02
1631632663515,-19.11
1631632663531,-17.12
1631632663546,-14.33
1631632663562,-11.11
1631632663578,-7.76
1631632663593,-4.52
1631632663609,-1.51
1631632663625,1.18
1631632663640,3.48
1631632663656,5.39
1631632663671,6.88
1631632663687,8.01
1631632663703,8.83
1631632663718,9.42
1631632663734,9.85
1631632663750,10.2
1631632663765,10.5
1631632663781,10.81
1631632663796,11.11
1631632663812,11.42
1631632663828,11.72
1631632663843,11.99
1631632663859,12.22
1631632663875,12.37
1631632663890,12.38
1631632663906,12.23
1631632663921,11.91
1631632663937,11.43
1631632663953,10.83
1631632663968,10.14
1631632663984,9.36
1631632664000,8.42
1631632664015,7.25
1631632664031,5.83
1631632664046,4.21
1631632664062,2.51
1631632664078,0.84
1631632664093,-0.72
1631632664109,-2.19
1631632664125,-3.58
1631632664140,-4.91
1631632664156,-6.15
1631632664171,-7.27
1631632664187,-8.23
1631632664203,-9.1
1631632664218,-10.03
1631632664234,-11.23
1631632664250,-12.86
1631632664265,-14.94
1631632664281,-17.27
1631632664296,-19.47
1631632664312,-21.06
1631632664328,-21.64
1631632664343,-20.97
1631632664359,-19.06
1631632664375,-16.18
1631632664390,-12.7
1631632664406,-9.03
1631632664421,-5.45
1631632664437,-2.15
1631632664453,0.8
1631632664468,3.41
1631632664484,5.67
1631632664500,7.57
1631632664515,9.11
1631632664531,10.32
1631632664546,11.27
1631632664562,12.08
1631632664578,12.83
1631632664593,13.52
1631632664609,14.11
1631632664625,14.48
1631632664640,14.57
1631632664656,14.32
1631632664671,13.79
1631632664687,13.13
1631632664703,12.48
1631632664718,11.97
1631632664734,11.58
1631632664750,11.2
1631632664765,10.62
1631632664781,9.73
1631632664796,8.52
1631632664812,7.14
1631632664828,5.82
1631632664843,4.72
1631632664859,3.87
1631632664875,3.12
1631632664890,2.25
1631632664906,1.1
1631632664921,-0.35
1631632664937,-1.98
1631632664953,-3.59
1631632664968,-5.04
1631632664984,-6.32
1631632665000,-7.55
1631632665015,-8.9
1631632665031,-10.5
1631632665046,-12.39
1631632665062,-14.48
1631632665078,-16.6
1631632665093,-18.56
1631632665109,-20.14
1631632665125,-21.19
1631632665140,-21.52
1631632665156,-20.99
1631632665171,-19.51
1631632665187,-17.05
1631632665203,-13.74
1631632665218,-9.83
1631632665234,-5.74
1631632665250,-1.85
1631632665265,1.47
1631632665281,4.1
1631632665296,6.05
1631632665312,7.49
1631632665328,8.63
1631632665343,9.61
1631632665359,10.5
1631632665375,11.26
1631632665390,11.83
1631632665406,12.22
1631632665421,12.47
1631632665437,12.66
1631632665453,12.84
1631632665468,13.0
1631632665484,13.08
1631632665500,13.02
1631632665515,12.8
1631632665531,12.44
1631632665546,12.01
1631632665562,11.58
1631632665578,11.16
1631632665593,10.7
1631632665609,10.15
1631632665625,9.4
1631632665640,8.42
1631632665656,7.23
1631632665671,5.92
1631632665687,4.59
1631632665703,3.28
1631632665718,1.99
1631632665734,0.63
1631632665750,-0.88
1631632665765,-2.59
1631632665781,-4.42
1631632665796,-6.26
1631632665812,-7.94
1631632665828,-9.36
1631632665843,-10.53
1631632665859,-11.59
1631632665875,-12.77
1631632665890,-14.26
1631632665906,-16.16
1631632665921,-18.32
1631632665937,-20.43
1631632665953,-22.03
1631632665968,-22.73
1631632665984,-22.27
1631632666000,-20.63
1631632666015,-17.97
1631632666031,-14.6
1631632666046,-10.85
1631632666062,-7.03
1631632666078,-3.39
1631632666093,-0.1
1631632666109,2.7
1631632666125,4.99
1631632666140,6.79
1631632666156,8.21
1631632666171,9.32
1631632666187,10.26
1631632666203,11.07
1631632666218,11.74
1631632666234,12.23
1631632666250,12.46
1631632666265,12.34
1631632666281,11.89
1631632666296,11.23
1631632666312,10.54
1631632666328,10.06
1631632666343,9.91
1631632666359,10.13
1631632666375,10.55
1631632666390,10.95
1631632666406,11.09
1631632666421,10.81
1631632666437,10.08
1631632666453,8.97
1631632666468,7.64
1631632666484,6.25
1631632666500,4.94
1631632666515,3.76
1631632666531,2.71
1631632666546,1.7
1631632666562,0.58
1631632666578,-0.73
1631632666593,-2.26
1631632666609,-3.91
1631632666625,-5.56
1631632666640,-7.1
1631632666656,-8.53
1631632666671,-9.96
1631632666687,-11.5
1631632666703,-13.21
1631632666718,-15.0
1631632666734,-16.64
1631632666750,-17.84
1631632666765,-18.35
1631632666781,-18.04
1631632666796,-16.91
1631632666812,-15.06
1631632666828,-12.62
1631632666843,-9.79
1631632666859,-6.76
1631632666875,-3.72
1631632666890,-0.89
1631632666906,1.64
1631632666921,3.82
1631632666937,5.68
1631632666953,7.27
1631632666968,8.62
1631632666984,9.7
1631632667000,10.45
1631632667015,10.79
1631632667031,10.73
1631632667046,10.36
1631632667062,9.84
1631632667078,9.4
1631632667093,9.19
1631632667109,9.3
1631632667125,9.71
1631632667140,10.3
1631632667156,10.88
1631632667171,11.28
1631632667187,11.34
1631632667203,10.95
1631632667218,10.11
1631632667234,8.86
1631632667250,7.36
1631632667265,5.77
1631632667281,4.26
1631632667296,2.92
1631632667312,1.76
1631632667328,0.72
1631632667343,-0.29
1631632667359,-1.35
1631632667375,-2.46
1631632667390,-3.66
1631632667406,-4.92
1631632667421,-6.25
1631632667437,-7.65
1631632667453,-9.11
1631632667468,-10.63
1631632667484,-12.25
1631632667500,-13.99
1631632667515,-15.85
1631632667531,-17.75
1631632667546,-19.44
1631632667562,-20.53
1631632667578,-20.66
1631632667593,-19.61
1631632667609,-17.39
1631632667625,-14.33
1631632667640,-10.85
1631632667656,-7.35
1631632667671,-4.07
1631632667687,-1.05
1631632667703,1.74
1631632667718,4.29
1631632667734,6.5
1631632667750,8.2
1631632667765,9.31
1631632667781,9.89
1631632667796,10.19
1631632667812,10.53
1631632667828,11.1
1631632667843,11.9
1631632667859,12.7
1631632667875,13.17
1631632667890,13.1
1631632667906,12.48
1631632667921,11.56
1631632667937,10.71
1631632667953,10.25
1631632667968,10.28
1631632667984,10.62
1631632668000,10.96
1631632668015,11.01
1631632668031,10.56
1631632668046,9.64
1631632668062,8.41
1631632668078,7.07
1631632668093,5.82
1631632668109,4.75
1631632668125,3.86
1631632668140,3.06
1631632668156,2.25
1631632668171,1.36
1631632668187,0.34
1631632668203,-0.79
1631632668218,-1.98
1631632668234,-3.21
1631632668250,-4.48
1631632668265,-5.85
1631632668281,-7.39
1631632668296,-9.12
1631632668312,-11.01
1631632668328,-13.01
1631632668343,-15.06
1631632668359,-17.11
1631632668375,-19.11
1631632668390,-20.95
1631632668406,-22.39
1631632668421,-23.11
1631632668437,-22.83
1631632668453,-21.4
1631632668468,-18.88
1631632668484,-15.57
1631632668500,-11.89
1631632668515,-8.24
1631632668531,-4.86
1631632668546,-1.84
1631632668562,0.91
1631632668578,3.49
1631632668593,5.92
1631632668609,8.17
1631632668625,10.09
1631632668640,11.56
1631632668656,12.54
1631632668671,13.08
1631632668687,13.33
1631632668703,13.41
1631632668718,13.39
1631632668734,13.27
1631632668750,13.05
1631632668765,12.75
1631632668781,12.45
1631632668796,12.31
1631632668812,12.39
1631632668828,12.67
1631632668843,13.0
1631632668859,13.15
1631632668875,12.88
1631632668890,12.08
1631632668906,10.82
1631632668921,9.3
1631632668937,7.81
1631632668953,6.6
1631632668968,5.78
1631632668984,5.3
1631632669000,4.93
1631632669015,4.38
1631632669031,3.44
1631632669046,2.05
1631632669062,0.28
1631632669078,-1.66
1631632669093,-3.56
1631632669109,-5.26
1631632669125,-6.75
1631632669140,-8.08
1631632669156,-9.35
1631632669171,-10.62
1631632669187,-11.91
1631632669203,-13.26
1631632669218,-14.73
1631632669234,-16.39
1631632669250,-18.29
1631632669265,-20.35
1631632669281,-22.28
1631632669296,-23.69
1631632669312,-24.16
1631632669328,-23.45
1631632669343,-21.51
1631632669359,-18.56
1631632669375,-14.93
1631632669390,-10.99
1631632669406,-7.05
1631632669421,-3.34
1631632669437,-0.04
1631632669453,2.74
1631632669468,4.91
1631632669484,6.46
1631632669500,7.42
1631632669515,7.92
1631632669531,8.1
1631632669546,8.16
1631632669562,8.27
1631632669578,8.54
1631632669593,8.99
1631632669609,9.49
1631632669625,9.87
1631632669640,10.0
1631632669656,9.85
1631632669671,9.53
1631632669687,9.22
1631632669703,9.06
1631632669718,9.04
1631632669734,9.08
1631632669750,9.01
1631632669765,8.7
1631632669781,8.12
1631632669796,7.32
1631632669812,6.41
1631632669828,5.47
1631632669843,4.57
1631632669859,3.69
1631632669875,2.75
1631632669890,1.66
1631632669906,0.34
1631632669921,-1.23
1631632669937,-2.95
1631632669953,-4.62
1631632669968,-6.09
1631632669984,-7.28
1631632670000,-8.32
1631632670015,-9.44
1631632670031,-10.92
1631632670046,-12.9
1631632670062,-15.25
1631632670078,-17.63
1631632670093,-19.58
1631632670109,-20.7
1631632670125,-20.75
1631632670140,-19.76
1631632670156,-17.88
1631632670171,-15.32
1631632670187,-12.27
1631632670203,-8.85
1631632670218,-5.18
1631632670234,-1.46
1631632670250,2.06
1631632670265,5.08
1631632670281,7.42
1631632670296,9.04
1631632670312,10.06
1631632670328,10.7
1631632670343,11.15
1631632670359,11.48
1631632670375,11.65
1631632670390,11.58
1631632670406,11.25
1631632670421,10.78
1631632670437,10.36
1631632670453,10.17
1631632670468,10.29
1631632670484,10.61
1631632670500,10.92
1631632670515,10.98
1631632670531,10.65
1631632670546,9.91
1631632670562,8.86
1631632670578,7.67
1631632670593,6.46
1631632670609,5.33
1631632670625,4.29
1631632670640,3.34
1631632670656,2.44
1631632670671,1.57
1631632670687,0.68
1631632670703,-0.3
1631632670718,-1.4
1631632670734,-2.67
1631632670750,-4.12
1631632670765,-5.75
1631632670781,-7.5
1631632670796,-9.29
1631632670812,-11.07
1631632670828,-12.81
1631632670843,-14.56
1631632670859,-16.39
1631632670875,-18.31
1631632670890,-20.18
1631632670906,-21.73
1631632670921,-22.56
1631632670937,-22.36
1631632670953,-20.99
1631632670968,-18.52
1631632670984,-15.29
1631632671000,-11.68
1631632671015,-8.03
1631632671031,-4.55
1631632671046,-1.34
1631632671062,1.56
1631632671078,4.1
1631632671093,6.25
1631632671109,7.94
1631632671125,9.17
1631632671140,9.97
1631632671156,10.43
1631632671171,10.67
1631632671187,10.8
1631632671203,10.9
1631632671218,11.03
1631632671234,11.18
1631632671250,11.37
1631632671265,11.58
1631632671281,11.81
1631632671296,11.98
1631632671312,12.0
1631632671328,11.78
1631632671343,11.26
1631632671359,10.47
1631632671375,9.51
1631632671390,8.51
1631632671406,7.54
1631632671421,6.59
1631632671437,5.56
1631632671453,4.26
1631632671468,2.62
1631632671484,0.63
1631632671500,-1.54
1631632671515,-3.68
1631632671531,-5.62
1631632671546,-7.26
1631632671562,-8.64
1631632671578,-9.86
1631632671593,-11.09
1631632671609,-12.46
1631632671625,-14.08
1631632671640,-15.96
1631632671656,-18.04
1631632671671,-20.08
1631632671687,-21.71
1631632671703,-22.53
1631632671718,-22.21
1631632671734,-20.61
1631632671750,-17.85
1631632671765,-14.29
1631632671781,-10.34
1631632671796,-6.36
1631632671812,-2.6
1631632671828,0.85
1631632671843,3.99
1631632671859,6.79
1631632671875,9.22
1631632671890,11.21
1631632671906,12.7
1631632671921,13.63
1631632671937,14.02
1631632671953,13.94
1631632671968,13.57
1631632671984,13.12
1631632672000,12.8
1631632672015,12.7
1631632672031,12.8
1631632672046,12.93
1631632672062,12.92
1631632672078,12.69
1631632672093,12.26
1631632672109,11.76
1631632672125,11.25
1631632672140,10.76
1631632672156,10.19
1631632672171,9.42
1631632672187,8.42
1631632672203,7.26
1631632672218,6.09
1631632672234,4.99
1631632672250,3.97
1631632672265,2.88
1631632672281,1.55
1631632672296,-0.13
1631632672312,-2.12
1631632672328,-4.22
1631632672343,-6.15
1631632672359,-7.75
1631632672375,-8.98
1631632672390,-10.06
1631632672406,-11.3
1631632672421,-12.97
1631632672437,-15.14
1631632672453,-17.61
1631632672468,-19.96
1631632672484,-21.69
1631632672500,-22.35
1631632672515,-21.69
1631632672531,-19.72
1631632672546,-16.66
1631632672562,-12.87
1631632672578,-8.79
1631632672593,-4.79
1631632672609,-1.15
1631632672625,1.98
1631632672640,4.56
1631632672656,6.61
1631632672671,8.21
1631632672687,9.47
1631632672703,10.46
1631632672718,11.25
1631632672734,11.9
1631632672750,12.43
1631632672765,12.85
1631632672781,13.11
1631632672796,13.18
1631632672812,13.01
1631632672828,12.62
1631632672843,12.06
1631632672859,11.41
1631632672875,10.79
1631632672890,10.28
1631632672906,9.87
1631632672921,9.49
1631632672937,9.05
1631632672953,8.44
1631632672968,7.67
1631632672984,6.78
1631632673000,5.81
1631632673015,4.76
1631632673031,3.54
1631632673046,2.06
1631632673062,0.34
1631632673078,-1.49
1631632673093,-3.18
1631632673109,-4.48
1631632673125,-5.31
1631632673140,-5.8
1631632673156,-6.29
1631632673171,-7.14
1631632673187,-8.57
1631632673203,-10.61
1631632673218,-13.07
1631632673234,-15.61
1631632673250,-17.81
1631632673265,-19.32
1631632673281,-19.84
1631632673296,-19.21
1631632673312,-17.39
1631632673328,-14.51
1631632673343,-10.84
1631632673359,-6.72
1631632673375,-2.59
1631632673390,1.18
1631632673406,4.3
1631632673421,6.67
1631632673437,8.35
1631632673453,9.56
1631632673468,10.51
1631632673484,11.31
1631632673500,11.92
1631632673515,12.24
1631632673531,12.14
1631632673546,11.68
1631632673562,11.05
1631632673578,10.51
1631632673593,10.22
1631632673609,10.18
1631632673625,10.21
1631632673640,10.1
1631632673656,9.72
1631632673671,9.05
1631632673687,8.23
1631632673703,7.38
1631632673718,6.59
1631632673734,5.85
1631632673750,5.08
1631632673765,4.18
1631632673781,3.06
1631632673796,1.74
1631632673812,0.27
1631632673828,-1.22
1631632673843,-2.61
1631632673859,-3.83
1631632673875,-4.86
1631632673890,-5.8
1631632673906,-6.81
1631632673921,-8.08
1631632673937,-9.76
1631632673953,-11.85
1631632673968,-14.19
1631632673984,-16.48
1631632674000,-18.38
1631632674015,-19.54
1631632674031,-19.73
1631632674046,-18.83
1631632674062,-16.9
1631632674078,-14.07
1631632674093,-10.61
1631632674109,-6.77
1631632674125,-2.89
1631632674140,0.76
1631632674156,3.97
1631632674171,6.63
1631632674187,8.73
1631632674203,10.32
1631632674218,11.42
1631632674234,12.08
1631632674250,12.36
1631632674265,12.33
1631632674281,12.11
1631632674296,11.84
1631632674312,11.57
1631632674328,11.31
1631632674343,11.0
1631632674359,10.59
1631632674375,10.1
1631632674390,9.58
1631632674406,9.11
1631632674421,8.71
1631632674437,8.33
1631632674453,7.88
1631632674468,7.25
1631632674484,6.39
1631632674500,5.25
1631632674515,3.84
1631632674531,2.15
1631632674546,0.25
1631632674562,-1.75
1631632674578,-3.7
1631632674593,-5.42
1631632674609,-6.81
1631632674625,-7.9
1631632674640,-8.87
1631632674656,-10.01
1631632674671,-11.59
1631632674687,-13.7
1631632674703,-16.18
1631632674718,-18.61
1631632674734,-20.43
1631632674750,-21.14
1631632674765,-20.5
1631632674781,-18.56
1631632674796,-15.6
1631632674812,-12.05
1631632674828,-8.27
1631632674843,-4.55
1631632674859,-1.05
1631632674875,2.1
1631632674890,4.79
1631632674906,6.91
1631632674921,8.46
1631632674937,9.49
1631632674953,10.17
1631632674968,10.68
1631632674984,11.18
1631632675000,11.73
1631632675015,12.27
1631632675031,12.67
1631632675046,12.82
1631632675062,12.65
1631632675078,12.2
1631632675093,11.54
1631632675109,10.75
1631632675125,9.84
1631632675140,8.82
1631632675156,7.67
1631632675171,6.43
1631632675187,5.15
1631632675203,3.89
1631632675218,2.68
1631632675234,1.43
1631632675250,0.04
1631632675265,-1.61
1631632675281,-3.5
1631632675296,-5.52
1631632675312,-7.47
1631632675328,-9.18
1631632675343,-10.54
1631632675359,-11.54
1631632675375,-12.29
1631632675390,-12.94
1631632675406,-13.71
1631632675421,-14.77
1631632675437,-16.19
1631632675453,-17.88
1631632675468,-19.53
1631632675484,-20.7
1631632675500,-20.92
1631632675515,-19.91
1631632675531,-17.64
1631632675546,-14.36
1631632675562,-10.46
1631632675578,-6.34
1631632675593,-2.29
1631632675609,1.53
1631632675625,5.03
1631632675640,8.09
1631632675656,10.6
1631632675671,12.45
1631632675687,13.64
1631632675703,14.27
1631632675718,14.58
1631632675734,14.79
1631632675750,15.02
1631632675765,15.23
1631632675781,15.26
1631632675796,14.94
1631632675812,14.24
1631632675828,13.33
1631632675843,12.48
1631632675859,11.94
1631632675875,11.81
1631632675890,11.96
1631632675906,12.09
1631632675921,11.88
1631632675937,11.15
1631632675953,9.89
1631632675968,8.25
1631632675984,6.45
1631632676000,4.7
1631632676015,3.05
1631632676031,1.5
1631632676046,-0.01
1631632676062,-1.52
1631632676078,-3.09
1631632676093,-4.73
1631632676109,-6.47
1631632676125,-8.33
1631632676140,-10.34
1631632676156,-12.47
1631632676171,-14.61
1631632676187,-16.53
1631632676203,-17.94
1631632676218,-18.54
1631632676234,-18.13
1631632676250,-16.67
1631632676265,-14.28
1631632676281,-11.23
1631632676296,-7.81
1631632676312,-4.27
1631632676328,-0.8
1631632676343,2.43
1631632676359,5.29
1631632676375,7.65
1631632676390,9.38
1631632676406,10.46
1631632676421,10.96
1631632676437,11.02
1631632676453,10.82
1631632676468,10.55
1631632676484,10.3
1631632676500,10.09
1631632676515,9.88
1631632676531,9.63
1631632676546,9.29
1631632676562,8.81
1631632676578,8.2
1631632676593,7.5
1631632676609,6.8
1631632676625,6.18
1631632676640,5.69
1631632676656,5.29
1631632676671,4.85
1631632676687,4.18
1631632676703,3.12
1631632676718,1.66
1631632676734,-0.09
1631632676750,-1.88
1631632676765,-3.5
1631632676781,-4.87
1631632676796,-6.07
1631632676812,-7.33
1631632676828,-8.87
1631632676843,-10.81
1631632676859,-13.09
1631632676875,-15.49
1631632676890,-17.73
1631632676906,-19.56
1631632676921,-20.82
1631632676937,-21.34
1631632676953,-20.98
1631632676968,-19.59
1631632676984,-17.1
1631632677000,-13.63
1631632677015,-9.53
1631632677031,-5.27
1631632677046,-1.33
1631632677062,1.98
1631632677078,4.61
1631632677093,6.64
1631632677109,8.23
1631632677125,9.43
1631632677140,10.24
1631632677156,10.6
1631632677171,10.52
1631632677187,10.15
1631632677203,9.7
1631632677218,9.39
1631632677234,9.3
1631632677250,9.38
1631632677265,9.45
1631632677281,9.34
1631632677296,9.0
1631632677312,8.45
1631632677328,7.8
1631632677343,7.13
1631632677359,6.46
1631632677375,5.7
1631632677390,4.8
1631632677406,3.68
1631632677421,2.41
1631632677437,1.09
1631632677453,-0.18
1631632677468,-1.32
1631632677484,-2.39
1631632677500,-3.48
1631632677515,-4.76
1631632677531,-6.39
1631632677546,-8.46
1631632677562,-10.93
1631632677578,-13.62
1631632677593,-16.24
1631632677609,-18.42
1631632677625,-19.79
1631632677640,-20.07
1631632677656,-19.15
1631632677671,-17.09
1631632677687,-14.06
1631632677703,-10.38
1631632677718,-6.39
1631632677734,-2.43
1631632677750,1.24
1631632677765,4.44
1631632677781,7.09
1631632677796,9.19
1631632677812,10.76
1631632677828,11.85
1631632677843,12.51
1631632677859,12.86
1631632677875,13.01
1631632677890,13.07
1631632677906,13.03
1631632677921,12.84
1631632677937,12.42
1631632677953,11.73
1631632677968,10.9
1631632677984,10.1
1631632678000,9.54
1631632678015,9.24
1631632678031,9.09
1631632678046,8.85
1631632678062,8.3
1631632678078,7.37
1631632678093,6.11
1631632678109,4.67
1631632678125,3.17
1631632678140,1.69
1631632678156,0.19
1631632678171,-1.39
1631632678187,-3.09
1631632678203,-4.89
1631632678218,-6.75
1631632678234,-8.62
1631632678250,-10.48
1631632678265,-12.41
1631632678281,-14.45
1631632678296,-16.61
1631632678312,-18.74
1631632678328,-20.46
1631632678343,-21.29
1631632678359,-20.83
1631632678375,-18.88
1631632678390,-15.62
1631632678406,-11.53
1631632678421,-7.17
1631632678437,-3.0
1631632678453,0.75
1631632678468,4.09
1631632678484,7.09
1631632678500,9.72
1631632678515,11.87
1631632678531,13.35
1631632678546,14.11
1631632678562,14.27
1631632678578,14.08
1631632678593,13.86
1631632678609,13.79
1631632678625,13.84
1631632678640,13.84
1631632678656,13.59
1631632678671,12.99
1631632678687,12.11
1631632678703,11.12
1631632678718,10.21
1631632678734,9.46
1631632678750,8.85
1631632678765,8.24
1631632678781,7.51
1631632678796,6.62
1631632678812,5.58
1631632678828,4.44
1631632678843,3.22
1631632678859,1.89
1631632678875,0.43
1631632678890,-1.16
1631632678906,-2.8
1631632678921,-4.41
1631632678937,-5.94
1631632678953,-7.43
1631632678968,-9.03
1631632678984,-10.87
1631632679000,-13.03
1631632679015,-15.49
1631632679031,-18.1
1631632679046,-20.59
1631632679062,-22.61
1631632679078,-23.77
1631632679093,-23.69
1631632679109,-22.12
1631632679125,-19.09
1631632679140,-14.92
1631632679156,-10.14
1631632679171,-5.4
1631632679187,-1.2
1631632679203,2.17
1631632679218,4.74
1631632679234,6.65
1631632679250,8.12
1631632679265,9.28
1631632679281,10.17
1631632679296,10.8
1631632679312,11.21
1631632679328,11.49
1631632679343,11.71
1631632679359,11.88
1631632679375,11.98
1631632679390,11.92
1631632679406,11.64
1631632679421,11.16
1631632679437,10.57
1631632679453,10.02
1631632679468,9.63
1631632679484,9.44
1631632679500,9.36
1631632679515,9.23
1631632679531,8.85
1631632679546,8.09
1631632679562,6.87
1631632679578,5.25
1631632679593,3.36
1631632679609,1.38
1631632679625,-0.46
1631632679640,-2.03
1631632679656,-3.31
1631632679671,-4.42
1631632679687,-5.55
1631632679703,-6.87
1631632679718,-8.49
1631632679734,-10.44
1631632679750,-12.63
1631632679765,-14.92
1631632679781,-17.13
1631632679796,-18.95
1631632679812,-20.03
1631632679828,-19.95
1631632679843,-18.46
1631632679859,-15.51
1631632679875,-11.42
1631632679890,-6.75
1631632679906,-2.14
1631632679921,1.85
1631632679937,4.95
1631632679953,7.15
1631632679968,8.61
1631632679984,9.54
1631632680000,10.07
1631632680015,10.29
1631632680031,10.28
1631632680046,10.14
1631632680062,9.99
1631632680078,9.95
1631632680093,10.01
1631632680109,10.08
1631632680125,10.0
1631632680140,9.64
1631632680156,8.97
1631632680171,8.09
1631632680187,7.16
1631632680203,6.33
1631632680218,5.65
1631632680234,5.14
1631632680250,4.7
1631632680265,4.25
1631632680281,3.68
1631632680296,2.93
1631632680312,1.98
1631632680328,0.84
1631632680343,-0.44
1631632680359,-1.8
1631632680375,-3.18
1631632680390,-4.59
1631632680406,-6.07
1631632680421,-7.69
1631632680437,-9.51
1631632680453,-11.5
1631632680468,-13.54
1631632680484,-15.43
1631632680500,-16.91
1631632680515,-17.74
1631632680531,-17.73
1631632680546,-16.79
1631632680562,-14.93
1631632680578,-12.29
1631632680593,-9.07
1631632680609,-5.53
1631632680625,-1.95
1631632680640,1.41
1631632680656,4.35
1631632680671,6.71
1631632680687,8.44
1631632680703,9.55
1631632680718,10.11
1631632680734,10.25
1631632680750,10.11
1631632680765,9.8
1631632680781,9.39
1631632680796,8.94
1631632680812,8.46
1631632680828,7.97
1631632680843,7.49
1631632680859,7.07
1631632680875,6.72
1631632680890,6.43
1631632680906,6.11
1631632680921,5.64
1631632680937,4.95
1631632680953,4.03
1631632680968,2.98
1631632680984,1.92
1631632681000,0.92
1631632681015,-0.05
1631632681031,-1.09
1631632681046,-2.3
1631632681062,-3.76
1631632681078,-5.44
1631632681093,-7.27
1631632681109,-9.16
1631632681125,-11.06
1631632681140,-12.97
1631632681156,-14.89
1631632681171,-16.74
1631632681187,-18.33
1631632681203,-19.4
1631632681218,-19.68
1631632681234,-18.98
1631632681250,-17.27
1631632681265,-14.67
1631632681281,-11.43
1631632681296,-7.88
1631632681312,-4.31
1631632681328,-0.97
1631632681343,2.05
1631632681359,4.71
1631632681375,7.01
1631632681390,8.94
1631632681406,10.44
1631632681421,11.42
1631632681437,11.84
1631632681453,11.71
1631632681468,11.19
1631632681484,10.49
1631632681500,9.81
1631632681515,9.25
1631632681531,8.81
1631632681546,8.37
1631632681562,7.83
1631632681578,7.19
1631632681593,6.47
1631632681609,5.73
1631632681625,5.0
1631632681640,4.2
1631632681656,3.22
1631632681671,1.99
1631632681687,0.52
1631632681703,-1.09
1631632681718,-2.63
1631632681734,-3.95
1631632681750,-5.04
1631632681765,-6.04
1631632681781,-7.22
1631632681796,-8.83
1631632681812,-11.01
1631632681828,-13.63
1631632681843,-16.4
1631632681859,-18.87
1631632681875,-20.66
1631632681890,-21.44
1631632681906,-21.11
1631632681921,-19.67
1631632681937,-17.25
1631632681953,-14.04
1631632681968,-10.26
1631632681984,-6.16
1631632682000,-1.98
1631632682015,1.97
1631632682031,5.47
1631632682046,8.32
1631632682062,10.39
1631632682078,11.69
1631632682093,12.32
1631632682109,12.46
1631632682125,12.33
1631632682140,12.11
1631632682156,11.88
1631632682171,11.62
1631632682187,11.25
1631632682203,10.72
1631632682218,10.04
1631632682234,9.34
1631632682250,8.73
1631632682265,8.29
1631632682281,7.98
1631632682296,7.67
1631632682312,7.17
1631632682328,6.38
1631632682343,5.31
1631632682359,4.04
1631632682375,2.7
1631632682390,1.37
1631632682406,0.09
1631632682421,-1.24
1631632682437,-2.67
1631632682453,-4.3
1631632682468,-6.12
1631632682484,-8.11
1631632682500,-10.16
1631632682515,-12.15
1631632682531,-13.92
1631632682546,-15.27
1631632682562,-16.01
1631632682578,-15.95
1631632682593,-15.0
1631632682609,-13.14
1631632682625,-10.48
1631632682640,-7.23
1631632682656,-3.67
1631632682671,-0.07
1631632682687,3.3
1631632682703,6.26
1631632682718,8.7
1631632682734,10.57
1631632682750,11.86
1631632682765,12.59
1631632682781,12.76
1631632682796,12.41
1631632682812,11.63
1631632682828,10.57
1631632682843,9.45
1631632682859,8.5
1631632682875,7.88
1631632682890,7.6
1631632682906,7.57
1631632682921,7.59
1631632682937,7.49
1631632682953,7.17
1631632682968,6.59
1631632682984,5.8
1631632683000,4.82
1631632683015,3.7
1631632683031,2.45
1631632683046,1.14
1631632683062,-0.13
1631632683078,-1.28
1631632683093,-2.29
1631632683109,-3.28
1631632683125,-4.43
1631632683140,-5.99
1631632683156,-8.08
1631632683171,-10.68
1631632683187,-13.51
1631632683203,-16.11
1631632683218,-17.93
1631632683234,-18.51
1631632683250,-17.57
1631632683265,-15.15
1631632683281,-11.57
1631632683296,-7.34
1631632683312,-3.01
1631632683328,0.98
1631632683343,4.39
1631632683359,7.15
1631632683375,9.3
1631632683390,10.93
1631632683406,12.04
1631632683421,12.64
1631632683437,12.72
1631632683453,12.34
1631632683468,11.66
1631632683484,10.89
1631632683500,10.21
1631632683515,9.72
1631632683531,9.4
1631632683546,9.17
1631632683562,8.88
1631632683578,8.42
1631632683593,7.76
1631632683609,6.87
1631632683625,5.84
1631632683640,4.69
1631632683656,3.52
1631632683671,2.34
1631632683687,1.2
1631632683703,0.1
1631632683718,-1.01
1631632683734,-2.2
1631632683750,-3.55
1631632683765,-5.11
1631632683781,-6.92
1631632683796,-9.03
1631632683812,-11.42
1631632683828,-13.99
1631632683843,-16.51
1631632683859,-18.59
1631632683875,-19.8
1631632683890,-19.77
1631632683906,-18.34
1631632683921,-15.67
1631632683937,-12.16
1631632683953,-8.29
1631632683968,-4.49
1631632683984,-0.96
1631632684000,2.24
1631632684015,5.14
1631632684031,7.73
1631632684046,9.94
1631632684062,11.68
1631632684078,12.84
1631632684093,13.47
1631632684109,13.64
1631632684125,13.5
1631632684140,13.14
1631632684156,12.64
1631632684171,12.01
1631632684187,11.28
1631632684203,10.49
1631632684218,9.71
1631632684234,8.99
1631632684250,8.34
1631632684265,7.69
1631632684281,6.97
1631632684296,6.07
1631632684312,4.92
1631632684328,3.55
1631632684343,2.08
1631632684359,0.66
1631632684375,-0.59
1631632684390,-1.65
1631632684406,-2.6
1631632684421,-3.64
1631632684437,-4.93
1631632684453,-6.61
1631632684468,-8.65
1631632684484,-10.92
1631632684500,-13.23
1631632684515,-15.35
1631632684531,-17.02
1631632684546,-18.01
1631632684562,-18.08
1631632684578,-17.05
1631632684593,-14.87
1631632684609,-11.64
1631632684625,-7.63
1631632684640,-3.25
1631632684656,1.03
1631632684671,4.83
1631632684687,7.86
1631632684703,10.07
1631632684718,11.54
1631632684734,12.5
1631632684750,13.18
1631632684765,13.72
1631632684781,14.14
1631632684796,14.36
1631632684812,14.26
1631632684828,13.79
1631632684843,13.0
1631632684859,12.05
1631632684875,11.13
1631632684890,10.38
1631632684906,9.83
1631632684921,9.39
1631632684937,8.95
1631632684953,8.41
1631632684968,7.74
1631632684984,6.97
1631632685000,6.13
1631632685015,5.2
1631632685031,4.11
1631632685046,2.81
1631632685062,1.26
1631632685078,-0.45
1631632685093,-2.2
1631632685109,-3.81
1631632685125,-5.19
1631632685140,-6.35
1631632685156,-7.44
1631632685171,-8.66
1631632685187,-10.17
1631632685203,-11.99
1631632685218,-13.92
1631632685234,-15.54
1631632685250,-16.39
1631632685265,-16.09
1631632685281,-14.43
1631632685296,-11.53
1631632685312,-7.76
1631632685328,-3.56
1631632685343,0.57
1631632685359,4.27
1631632685375,7.3
1631632685390,9.56
1631632685406,11.05
1631632685421,11.85
1631632685437,12.07
1631632685453,11.86
1631632685468,11.4
1631632685484,10.84
1631632685500,10.31
1631632685515,9.87
1631632685531,9.57
1631632685546,9.35
1631632685562,9.17
1631632685578,8.96
1631632685593,8.65
1631632685609,8.25
1631632685625,7.76
1631632685640,7.19
1631632685656,6.52
1631632685671,5.68
1631632685687,4.64
1631632685703,3.34
1631632685718,1.85
1631632685734,0.26
1631632685750,-1.28
1631632685765,-2.64
1631632685781,-3.74
1631632685796,-4.62
1631632685812,-5.41
1631632685828,-6.29
1631632685843,-7.43
1631632685859,-8.92
1631632685875,-10.7
1631632685890,-12.6
1631632685906,-14.34
1631632685921,-15.62
1631632685937,-16.18
1631632685953,-15.86
1631632685968,-14.6
1631632685984,-12.49
1631632686000,-9.7
1631632686015,-6.52
1631632686031,-3.21
1631632686046,-0.08
1631632686062,2.63
1631632686078,4.78
1631632686093,6.3
1631632686109,7.24
1631632686125,7.77
1631632686140,8.07
1631632686156,8.27
1631632686171,8.47
1631632686187,8.59
1631632686203,8.57
1631632686218,8.37
1631632686234,7.99
1631632686250,7.54
1631632686265,7.1
1631632686281,6.68
1631632686296,6.28
1631632686312,5.85
1631632686328,5.41
1631632686343,4.97
1631632686359,4.52
1631632686375,4.0
1631632686390,3.28
1631632686406,2.22
1631632686421,0.84
1631632686437,-0.77
1631632686453,-2.42
1631632686468,-3.92
1631632686484,-5.22
1631632686500,-6.32
1631632686515,-7.32
1631632686531,-8.32
1631632686546,-9.45
1631632686562,-10.86
1631632686578,-12.68
1631632686593,-14.87
1631632686609,-17.18
1631632686625,-19.14
1631632686640,-20.17
1631632686656,-19.85
1631632686671,-18.02
1631632686687,-14.91
1631632686703,-10.94
1631632686718,-6.58
1631632686734,-2.23
1631632686750,1.85
1631632686765,5.5
1631632686781,8.58
1631632686796,11.02
1631632686812,12.78
1631632686828,13.94
1631632686843,14.59
1631632686859,14.83
1631632686875,14.68
1631632686890,14.09
1631632686906,12.99
1631632686921,11.38
1631632686937,9.41
1631632686953,7.28
1631632686968,5.3
1631632686984,3.72
1631632687000,2.7
1631632687015,2.27
1631632687031,2.33
1631632687046,2.67
1631632687062,3.01
1631632687078,3.05
1631632687093,2.61
1631632687109,1.58
1631632687125,0.06
1631632687140,-1.77
1631632687156,-3.67
1631632687171,-5.4
1631632687187,-6.83
1631632687203,-7.97
1631632687218,-8.92
1631632687234,-9.86
1631632687250,-11.01
1631632687265,-12.5
1631632687281,-14.38
1631632687296,-16.54
1631632687312,-18.75
1631632687328,-20.62
1631632687343,-21.71
1631632687359,-21.65
1631632687375,-20.21
1631632687390,-17.44
1631632687406,-13.64
1631632687421,-9.32
1631632687437,-5.02
1631632687453,-1.18
1631632687468,1.99
1631632687484,4.46
1631632687500,6.31
1631632687515,7.68
1631632687531,8.6
1631632687546,9.12
1631632687562,9.24
1631632687578,9.05
1631632687593,8.71
1631632687609,8.37
1631632687625,8.11
1631632687640,7.93
1631632687656,7.73
1631632687671,7.41
1631632687687,6.92
1631632687703,6.25
1631632687718,5.53
1631632687734,4.86
1631632687750,4.38
1631632687765,4.08
1631632687781,3.92
1631632687796,3.79
1631632687812,3.53
1631632687828,3.02
1631632687843,2.2
1631632687859,1.09
1631632687875,-0.22
1631632687890,-1.57
1631632687906,-2.8
1631632687921,-3.82
1631632687937,-4.65
1631632687953,-5.42
1631632687968,-6.34
1631632687984,-7.59
1631632688000,-9.22
1631632688015,-11.13
1631632688031,-13.06
1631632688046,-14.66
1631632688062,-15.64
1631632688078,-15.8
1631632688093,-15.06
1631632688109,-13.39
1631632688125,-10.86
1631632688140,-7.62
1631632688156,-3.92
1631632688171,-0.19
1631632688187,3.14
1631632688203,5.69
1631632688218,7.33
1631632688234,8.16
1631632688250,8.47
1631632688265,8.55
1631632688281,8.56
1631632688296,8.51
1631632688312,8.31
1631632688328,7.9
1631632688343,7.34
1631632688359,6.79
1631632688375,6.37
1631632688390,6.13
1631632688406,6.0
1631632688421,5.84
1631632688437,5.53
1631632688453,5.0
1631632688468,4.3
1631632688484,3.52
1631632688500,2.74
1631632688515,1.98
1631632688531,1.2
1631632688546,0.31
1631632688562,-0.74
1631632688578,-1.94
1631632688593,-3.18
1631632688609,-4.36
1631632688625,-5.42
1631632688640,-6.42
1631632688656,-7.5
1631632688671,-8.84
1631632688687,-10.57
1631632688703,-12.66
1631632688718,-14.94
1631632688734,-17.1
1631632688750,-18.76
1631632688765,-19.59
1631632688781,-19.33
1631632688796,-17.94
1631632688812,-15.53
1631632688828,-12.39
1631632688843,-8.83
1631632688859,-5.16
1631632688875,-1.63
1631632688890,1.59
1631632688906,4.35
1631632688921,6.52
1631632688937,8.02
1631632688953,8.84
1631632688968,9.08
1631632688984,8.88
1631632689000,8.41
1631632689015,7.85
1631632689031,7.29
1631632689046,6.77
1631632689062,6.31
1631632689078,5.88
1631632689093,5.46
1631632689109,5.04
1631632689125,4.61
1631632689140,4.22
1631632689156,3.86
1631632689171,3.55
1631632689187,3.22
1631632689203,2.76
1631632689218,2.09
1631632689234,1.16
1631632689250,-0.01
1631632689265,-1.33
1631632689281,-2.69
1631632689296,-4.02
1631632689312,-5.28
1631632689328,-6.52
1631632689343,-7.81
1631632689359,-9.27
1631632689375,-11.0
1631632689390,-13.02
1631632689406,-15.19
1631632689421,-17.24
1631632689437,-18.83
1631632689453,-19.57
1631632689468,-19.24
1631632689484,-17.81
1631632689500,-15.45
1631632689515,-12.45
1631632689531,-9.1
1631632689546,-5.64
1631632689562,-2.25
1631632689578,0.95
1631632689593,3.85
1631632689609,6.36
1631632689625,8.39
1631632689640,9.91
1631632689656,10.94
1631632689671,11.52
1631632689687,11.72
1631632689703,11.59
1631632689718,11.21
1631632689734,10.65
1631632689750,9.97
1631632689765,9.24
1631632689781,8.51
1631632689796,7.8
1631632689812,7.16
1631632689828,6.59
1631632689843,6.09
1631632689859,5.61
1631632689875,5.03
1631632689890,4.27
1631632689906,3.25
1631632689921,2.02
1631632689937,0.65
1631632689953,-0.7
1631632689968,-1.97
1631632689984,-3.13
1631632690000,-4.26
1631632690015,-5.47
1631632690031,-6.87
1631632690046,-8.56
1631632690062,-10.59
1631632690078,-12.95
1631632690093,-15.49
1631632690109,-17.89
1631632690125,-19.71
1631632690140,-20.48
1631632690156,-19.92
1631632690171,-17.97
1631632690187,-14.87
1631632690203,-11.04
1631632690218,-6.92
1631632690234,-2.87
1631632690250,0.9
1631632690265,4.27
1631632690281,7.15
1631632690296,9.45
1631632690312,11.08
1631632690328,12.01
1631632690343,12.35
1631632690359,12.27
1631632690375,11.97
1631632690390,11.63
1631632690406,11.3
1631632690421,10.96
1631632690437,10.52
1631632690453,9.94
1631632690468,9.24
1631632690484,8.51
1631632690500,7.88
1631632690515,7.44
1631632690531,7.18
1631632690546,6.98
1631632690562,6.7
1631632690578,6.17
1631632690593,5.31
1631632690609,4.14
1631632690625,2.73
1631632690640,1.19
1631632690656,-0.35
1631632690671,-1.81
1631632690687,-3.15
1631632690703,-4.39
1631632690718,-5.58
1631632690734,-6.82
1631632690750,-8.17
1631632690765,-9.68
1631632690781,-11.38
1631632690796,-13.21
1631632690812,-14.99
1631632690828,-16.43
1631632690843,-17.11
1631632690859,-16.65
1631632690875,-14.87
1631632690890,-11.85
1631632690906,-7.98
1631632690921,-3.81
1631632690937,0.16
1631632690953,3.62
1631632690968,6.5
1631632690984,8.88
1631632691000,10.86
1631632691015,12.44
1631632691031,13.5
1631632691046,13.88
1631632691062,13.52
1631632691078,12.52
1631632691093,11.13
1631632691109,9.7
1631632691125,8.54
1631632691140,7.83
1631632691156,7.57
1631632691171,7.63
1631632691187,7.78
1631632691203,7.87
1631632691218,7.77
1631632691234,7.42
1631632691250,6.81
1631632691265,5.94
1631632691281,4.84
1631632691296,3.57
1631632691312,2.24
1631632691328,0.97
1631632691343,-0.18
1631632691359,-1.19
1631632691375,-2.19
1631632691390,-3.37
1631632691406,-4.91
1631632691421,-6.94
1631632691437,-9.43
1631632691453,-12.16
1631632691468,-14.78
1631632691484,-16.82
1631632691500,-17.89
1631632691515,-17.71
1631632691531,-16.2
1631632691546,-13.52
1631632691562,-9.99
1631632691578,-6.03
1631632691593,-2.07
1631632691609,1.58
1631632691625,4.66
1631632691640,7.08
1631632691656,8.87
1631632691671,10.08
1631632691687,10.82
1631632691703,11.14
1631632691718,11.13
1631632691734,10.85
1631632691750,10.4
1631632691765,9.89
1631632691781,9.39
1631632691796,8.92
1631632691812,8.39
1631632691828,7.71
1631632691843,6.84
1631632691859,5.89
1631632691875,5.05
1631632691890,4.48
1631632691906,4.22
1631632691921,4.09
1631632691937,3.85
1631632691953,3.24
1631632691968,2.16
1631632691984,0.7
1631632692000,-0.91
1631632692015,-2.47
1631632692031,-3.84
1631632692046,-5.1
1631632692062,-6.43
1631632692078,-8.01
1631632692093,-9.98
1631632692109,-12.28
1631632692125,-14.72
1631632692140,-16.94
1631632692156,-18.51
1631632692171,-19.05
1631632692187,-18.32
1631632692203,-16.3
1631632692218,-13.16
1631632692234,-9.24
1631632692250,-4.93
1631632692265,-0.61
1631632692281,3.41
1631632692296,6.87
1631632692312,9.64
1631632692328,11.64
1631632692343,12.89
1631632692359,13.47
1631632692375,13.52
1631632692390,13.19
1631632692406,12.62
1631632692421,11.94
1631632692437,11.23
1631632692453,10.54
1631632692468,9.86
1631632692484,9.16
1631632692500,8.41
1631632692515,7.62
1631632692531,6.84
1631632692546,6.12
1631632692562,5.48
1631632692578,4.85
1631632692593,4.12
1631632692609,3.19
1631632692625,2.04
1631632692640,0.77
1631632692656,-0.53
1631632692671,-1.79
1631632692687,-3.08
1631632692703,-4.48
1631632692718,-6.12
1631632692734,-8.0
1631632692750,-10.08
1631632692765,-12.26
1631632692781,-14.4
1631632692796,-16.36
1631632692812,-17.94
1631632692828,-18.86
1631632692843,-18.8
1631632692859,-17.49
1631632692875,-14.86
1631632692890,-11.11
1631632692906,-6.74
1631632692921,-2.29
1631632692937,1.7
1631632692953,4.88
1631632692968,7.13
1631632692984,8.52
1631632693000,9.26
1631632693015,9.6
1631632693031,9.78
1631632693046,9.95
1631632693062,10.14
1631632693078,10.26
1631632693093,10.17
1631632693109,9.79
1631632693125,9.15
1631632693140,8.45
1631632693156,7.9
1631632693171,7.66
1631632693187,7.73
1631632693203,7.93
1631632693218,8.0
1631632693234,7.71
1631632693250,6.99
1631632693265,5.88
1631632693281,4.55
1631632693296,3.15
1631632693312,1.8
1631632693328,0.5
1631632693343,-0.78
1631632693359,-2.1
1631632693375,-3.54
1631632693390,-5.13
1631632693406,-6.91
1631632693421,-8.86
1631632693437,-10.96
1631632693453,-13.07
1631632693468,-14.99
1631632693484,-16.4
1631632693500,-16.94
1631632693515,-16.33
1631632693531,-14.43
1631632693546,-11.36
1631632693562,-7.52
1631632693578,-3.43
1631632693593,0.36
1631632693609,3.45
1631632693625,5.72
1631632693640,7.27
1631632693656,8.33
1631632693671,9.11
1631632693687,9.7
1631632693703,10.04
1631632693718,10.05
1631632693734,9.7
1631632693750,9.1
1631632693765,8.41
1631632693781,7.79
1631632693796,7.33
1631632693812,6.98
1631632693828,6.6
1631632693843,6.12
1631632693859,5.54
1631632693875,4.93
1631632693890,4.37
1631632693906,3.88
1631632693921,3.4
1631632693937,2.81
1631632693953,2.02
1631632693968,0.99
1631632693984,-0.2
1631632694000,-1.47
1631632694015,-2.78
1631632694031,-4.16
1631632694046,-5.72
1631632694062,-7.61
1631632694078,-9.89
1631632694093,-12.44
1631632694109,-14.96
1631632694125,-16.97
1631632694140,-17.98
1631632694156,-17.66
1631632694171,-15.91
1631632694187,-12.94
1631632694203,-9.15
1631632694218,-5.02
1631632694234,-0.97
1631632694250,2.69
1631632694265,5.72
1631632694281,7.91
1631632694296,9.19
1631632694312,9.59
1631632694328,9.33
1631632694343,8.74
1631632694359,8.16
1631632694375,7.81
1631632694390,7.71
1631632694406,7.77
1631632694421,7.84
1631632694437,7.82
1631632694453,7.66
1631632694468,7.33
1631632694484,6.83
1631632694500,6.16
1631632694515,5.4
1631632694531,4.67
1631632694546,4.04
1631632694562,3.51
1631632694578,2.9
1631632694593,1.99
1631632694609,0.63
1631632694625,-1.14
1631632694640,-3.07
1631632694656,-4.89
1631632694671,-6.45
1631632694687,-7.85
1631632694703,-9.3
1631632694718,-10.97
1631632694734,-12.88
1631632694750,-14.77
1631632694765,-16.26
1631632694781,-17.01
1631632694796,-16.83
1631632694812,-15.68
1631632694828,-13.71
1631632694843,-11.08
1631632694859,-7.98
1631632694875,-4.59
1631632694890,-1.12
1631632694906,2.22
1631632694921,5.24
1631632694937,7.78
1631632694953,9.75
1631632694968,11.14
1631632694984,11.96
1631632695000,12.24
1631632695015,12.03
1631632695031,11.44
1631632695046,10.65
1631632695062,9.83
1631632695078,9.13
1631632695093,8.61
1631632695109,8.26
1631632695125,8.02
1631632695140,7.85
1631632695156,7.73
1631632695171,7.62
1631632695187,7.44
1631632695203,6.99
1631632695218,6.1
1631632695234,4.7
1631632695250,2.92
1631632695265,1.03
1631632695281,-0.67
1631632695296,-2.04
1631632695312,-3.18
1631632695328,-4.38
1631632695343,-5.91
1631632695359,-7.94
1631632695375,-10.38
1631632695390,-13.02
1631632695406,-15.58
1631632695421,-17.83
1631632695437,-19.58
1631632695453,-20.67
1631632695468,-20.85
1631632695484,-19.88
1631632695500,-17.6
1631632695515,-14.06
1631632695531,-9.55
1631632695546,-4.59
1631632695562,0.24
1631632695578,4.47
1631632695593,7.8
1631632695609,10.17
1631632695625,11.69
1631632695640,12.55
1631632695656,12.95
1631632695671,13.03
1631632695687,12.9
1631632695703,12.65
1631632695718,12.38
1631632695734,12.19
1631632695750,12.11
1631632695765,12.09
1631632695781,11.98
1631632695796,11.65
1631632695812,11.01
1631632695828,10.1
1631632695843,9.09
1631632695859,8.17
1631632695875,7.4
1631632695890,6.67
1631632695906,5.73
1631632695921,4.37
1631632695937,2.51
1631632695953,0.33
1631632695968,-1.8
1631632695984,-3.52
1631632696000,-4.64
1631632696015,-5.24
1631632696031,-5.65
1631632696046,-6.29
1631632696062,-7.47
1631632696078,-9.35
1631632696093,-11.83
1631632696109,-14.68
1631632696125,-17.52
1631632696140,-19.93
1631632696156,-21.48
1631632696171,-21.77
1631632696187,-20.57
1631632696203,-17.9
1631632696218,-14.03
1631632696234,-9.52
1631632696250,-4.95
1631632696265,-0.84
1631632696281,2.55
1631632696296,5.2
1631632696312,7.23
1631632696328,8.81
1631632696343,10.06
1631632696359,11.08
1631632696375,11.92
1631632696390,12.63
1631632696406,13.19
1631632696421,13.53
1631632696437,13.57
1631632696453,13.27
1631632696468,12.72
1631632696484,12.08
1631632696500,11.55
1631632696515,11.23
1631632696531,11.12
1631632696546,11.09
1631632696562,10.99
1631632696578,10.69
1631632696593,10.17
1631632696609,9.47
1631632696625,8.64
1631632696640,7.76
1631632696656,6.82
1631632696671,5.84
1631632696687,4.79
1631632696703,3.59
1631632696718,2.21
1631632696734,0.64
1631632696750,-1.05
1631632696765,-2.68
1631632696781,-4.08
1631632696796,-5.18
1631632696812,-6.05
1631632696828,-6.88
1631632696843,-7.92
1631632696859,-9.36
1631632696875,-11.21
1631632696890,-13.35
1631632696906,-15.53
1631632696921,-17.42
1631632696937,-18.72
1631632696953,-19.13
1631632696968,-18.44
1631632696984,-16.56
1631632697000,-13.59
1631632697015,-9.87
1631632697031,-5.86
1631632697046,-2.09
1631632697062,1.03
1631632697078,3.3
1631632697093,4.75
1631632697109,5.62
1631632697125,6.17
1631632697140,6.63
1631632697156,7.09
1631632697171,7.52
1631632697187,7.86
1631632697203,8.06
1631632697218,8.13
1631632697234,8.12
1631632697250,8.14
1631632697265,8.25
1631632697281,8.47
1631632697296,8.76
1631632697312,9.04
1631632697328,9.2
1631632697343,9.17
1631632697359,8.91
1631632697375,8.48
1631632697390,7.9
1631632697406,7.19
1631632697421,6.3
1631632697437,5.17
1631632697453,3.79
1631632697468,2.25
1631632697484,0.76
1631632697500,-0.46
1631632697515,-1.25
1631632697531,-1.65
1631632697546,-1.85
1631632697562,-2.15
1631632697578,-2.78
1631632697593,-3.88
1631632697609,-5.44
1631632697625,-7.37
1631632697640,-9.54
1631632697656,-11.82
1631632697671,-13.99
1631632697687,-15.75
1631632697703,-16.73
1631632697718,-16.58
1631632697734,-15.14
1631632697750,-12.5
1631632697765,-9.02
1631632697781,-5.21
1631632697796,-1.54
1631632697812,1.64
1631632697828,4.15
1631632697843,6.02
1631632697859,7.37
1631632697875,8.34
1631632697890,9.04
1631632697906,9.52
1631632697921,9.78
1631632697937,9.82
1631632697953,9.65
1631632697968,9.38
1631632697984,9.12
1631632698000,8.97
1631632698015,8.96
1631632698031,8.99
1631632698046,8.91
1631632698062,8.57
1631632698078,7.95
1631632698093,7.17
1631632698109,6.4
1631632698125,5.78
1631632698140,5.32
1631632698156,4.86
1631632698171,4.2
1631632698187,3.17
1631632698203,1.76
1631632698218,0.05
1631632698234,-1.79
1631632698250,-3.64
1631632698265,-5.41
1631632698281,-7.12
1631632698296,-8.76
1631632698312,-10.38
1631632698328,-12.03
1631632698343,-13.72
1631632698359,-15.46
1631632698375,-17.2
1631632698390,-18.73
1631632698406,-19.76
1631632698421,-19.93
1631632698437,-19.04
1631632698453,-17.04
1631632698468,-14.11
1631632698484,-10.59
1631632698500,-6.81
1631632698515,-3.03
1631632698531,0.62
1631632698546,3.98
1631632698562,6.9
1631632698578,9.15
1631632698593,10.55
1631632698609,11.06
1631632698625,10.83
1631632698640,10.21
1631632698656,9.58
1631632698671,9.23
1631632698687,9.26
1631632698703,9.58
1631632698718,9.99
1631632698734,10.32
1631632698750,10.45
1631632698765,10.38
1631632698781,10.14
1631632698796,9.84
1631632698812,9.51
1631632698828,9.17
1631632698843,8.72
1631632698859,8.04
1631632698875,6.96
1631632698890,5.41
1631632698906,3.43
1631632698921,1.18
1631632698937,-1.09
1631632698953,-3.19
1631632698968,-5.0
1631632698984,-6.48
1631632699000,-7.69
1631632699015,-8.74
1631632699031,-9.8
1631632699046,-11.12
1631632699062,-12.88
1631632699078,-15.15
1631632699093,-17.71
1631632699109,-20.06
1631632699125,-21.55
1631632699140,-21.59
1631632699156,-19.92
1631632699171,-16.69
1631632699187,-12.38
1631632699203,-7.63
1631632699218,-2.99
1631632699234,1.17
1631632699250,4.69
1631632699265,7.52
1631632699281,9.67
1631632699296,11.15
1631632699312,12.04
1631632699328,12.46
1631632699343,12.59
1631632699359,12.59
1631632699375,12.58
1631632699390,12.62
1631632699406,12.67
1631632699421,12.7
1631632699437,12.62
1631632699453,12.32
1631632699468,11.75
1631632699484,10.86
1631632699500,9.72
1631632699515,8.48
1631632699531,7.35
1631632699546,6.48
1631632699562,5.88
1631632699578,5.38
1631632699593,4.74
1631632699609,3.73
1631632699625,2.27
1631632699640,0.46
1631632699656,-1.46
1631632699671,-3.31
1631632699687,-5.0
1631632699703,-6.6
1631632699718,-8.29
1631632699734,-10.22
1631632699750,-12.44
1631632699765,-14.85
1631632699781,-17.2
1631632699796,-19.23
1631632699812,-20.67
1631632699828,-21.31
1631632699843,-21.03
1631632699859,-19.77
1631632699875,-17.56
1631632699890,-14.53
1631632699906,-10.92
1631632699921,-6.99
1631632699937,-3.02
1631632699953,0.74
1631632699968,4.11
1631632699984,6.94
1631632700000,9.16
1631632700015,10.74
1631632700031,11.71
1631632700046,12.18
1631632700062,12.29
1631632700078,12.19
1631632700093,11.97
1631632700109,11.68
1631632700125,11.32
1631632700140,10.89
1631632700156,10.43
1631632700171,9.97
1631632700187,9.57
1631632700203,9.23
1631632700218,8.95
1631632700234,8.66
1631632700250,8.32
1631632700265,7.84
1631632700281,7.14
1631632700296,6.18
1631632700312,4.95
1631632700328,3.48
1631632700343,1.87
1631632700359,0.21
1631632700375,-1.42
1631632700390,-2.95
1631632700406,-4.35
1631632700421,-5.65
1631632700437,-6.91
1631632700453,-8.2
1631632700468,-9.7
1631632700484,-11.57
1631632700500,-13.92
1631632700515,-16.73
1631632700531,-19.71
1631632700546,-22.41
1631632700562,-24.29
1631632700578,-24.88
1631632700593,-23.98
1631632700609,-21.66
1631632700625,-18.26
1631632700640,-14.22
1631632700656,-9.97
1631632700671,-5.87
1631632700687,-2.12
1631632700703,1.21
1631632700718,4.09
1631632700734,6.53
1631632700750,8.51
1631632700765,10.0
1631632700781,10.98
1631632700796,11.49
1631632700812,11.6
1631632700828,11.4
1631632700843,11.0
1631632700859,10.46
1631632700875,9.85
1631632700890,9.24
1631632700906,8.73
1631632700921,8.42
1631632700937,8.37
1631632700953,8.53
1631632700968,8.76
1631632700984,8.85
1631632701000,8.59
1631632701015,7.87
1631632701031,6.72
1631632701046,5.26
1631632701062,3.63
1631632701078,1.95
1631632701093,0.31
1631632701109,-1.22
1631632701125,-2.59
1631632701140,-3.75
1631632701156,-4.75
1631632701171,-5.69
1631632701187,-6.78
1631632701203,-8.18
1631632701218,-9.99
1631632701234,-12.1
1631632701250,-14.23
1631632701265,-15.96
1631632701281,-16.91
1631632701296,-16.79
1631632701312,-15.52
1631632701328,-13.21
1631632701343,-10.09
1631632701359,-6.5
1631632701375,-2.77
1631632701390,0.8
1631632701406,3.96
1631632701421,6.57
1631632701437,8.55
1631632701453,9.92
1631632701468,10.75
1631632701484,11.08
1631632701500,11.0
1631632701515,10.56
1631632701531,9.87
1631632701546,9.09
1631632701562,8.38
1631632701578,7.86
1631632701593,7.55
1631632701609,7.41
1631632701625,7.38
1631632701640,7.41
1631632701656,7.49
1631632701671,7.63
1631632701687,7.79
1631632701703,7.79
1631632701718,7.43
1631632701734,6.49
1631632701750,4.92
1631632701765,2.84
1631632701781,0.57
1631632701796,-1.56
1631632701812,-3.31
1631632701828,-4.6
1631632701843,-5.52
1631632701859,-6.29
1631632701875,-7.17
1631632701890,-8.4
1631632701906,-10.14
1631632701921,-12.4
1631632701937,-15.0
1631632701953,-17.6
1631632701968,-19.7
1631632701984,-20.78
1631632702000,-20.43
1631632702015,-18.53
1631632702031,-15.23
1631632702046,-10.97
1631632702062,-6.33
1631632702078,-1.86
1631632702093,2.0
1631632702109,5.06
1631632702125,7.33
1631632702140,8.92
1631632702156,9.99
1631632702171,10.66
1631632702187,10.97
1631632702203,10.96
1631632702218,10.68
1631632702234,10.23
1631632702250,9.77
1631632702265,9.41
1631632702281,9.2
1631632702296,9.08
1631632702312,8.92
1631632702328,8.58
1631632702343,8.02
1631632702359,7.29
1631632702375,6.5
1631632702390,5.77
1631632702406,5.1
1631632702421,4.42
1631632702437,3.62
1631632702453,2.59
1631632702468,1.35
1631632702484,-0.09
1631632702500,-1.65
1631632702515,-3.29
1631632702531,-4.97
1631632702546,-6.68
1631632702562,-8.43
1631632702578,-10.2
1631632702593,-12.05
1631632702609,-14.02
1631632702625,-16.1
1631632702640,-18.18
1631632702656,-19.95
1631632702671,-20.99
1631632702687,-20.87
1631632702703,-19.36
1631632702718,-16.54
1631632702734,-12.78
1631632702750,-8.61
1631632702765,-4.52
1631632702781,-0.81
1631632702796,2.44
1631632702812,5.25
1631632702828,7.68
1631632702843,9.73
1631632702859,11.32
1631632702875,12.37
1631632702890,12.87
1631632702906,12.89
1631632702921,12.58
1631632702937,12.07
1631632702953,11.5
1631632702968,10.92
1631632702984,10.31
1631632703000,9.64
1631632703015,8.91
1631632703031,8.17
1631632703046,7.51
1631632703062,7.02
1631632703078,6.7
1631632703093,6.4
1631632703109,5.87
1631632703125,4.9
1631632703140,3.41
1631632703156,1.56
1631632703171,-0.35
1631632703187,-2.02
1631632703203,-3.3
1631632703218,-4.25
1631632703234,-5.11
1631632703250,-6.18
1631632703265,-7.69
1631632703281,-9.72
1631632703296,-12.19
1631632703312,-14.87
1631632703328,-17.44
1631632703343,-19.5
1631632703359,-20.71
1631632703375,-20.82
1631632703390,-19.73
1631632703406,-17.56
1631632703421,-14.52
1631632703437,-10.9
1631632703453,-6.99
1631632703468,-3.08
1631632703484,0.6
1631632703500,3.89
1631632703515,6.68
1631632703531,8.97
1631632703546,10.78
1631632703562,12.1
1631632703578,12.9
1631632703593,13.16
1631632703609,12.9
1631632703625,12.29
1631632703640,11.53
1631632703656,10.87
1631632703671,10.45
1631632703687,10.23
1631632703703,10.09
1631632703718,9.83
1631632703734,9.36
1631632703750,8.71
1631632703765,7.99
1631632703781,7.32
1631632703796,6.76
1631632703812,6.28
1631632703828,5.75
1631632703843,5.0
1631632703859,3.93
1631632703875,2.52
1631632703890,0.9
1631632703906,-0.77
1631632703921,-2.31
1631632703937,-3.63
1631632703953,-4.81
1631632703968,-6.01
1631632703984,-7.46
1631632704000,-9.3
1631632704015,-11.5
1631632704031,-13.82
1631632704046,-15.89
1631632704062,-17.24
1631632704078,-17.51
1631632704093,-16.5
1631632704109,-14.25
1631632704125,-11.0
1631632704140,-7.14
1631632704156,-3.09
1631632704171,0.79
1631632704187,4.21
1631632704203,7.01
1631632704218,9.09
1631632704234,10.43
1631632704250,11.09
1631632704265,11.19
1631632704281,10.92
1631632704296,10.51
1631632704312,10.12
1631632704328,9.86
1631632704343,9.68
1631632704359,9.49
1631632704375,9.17
1631632704390,8.67
1631632704406,8.04
1631632704421,7.39
1631632704437,6.83
1631632704453,6.42
1631632704468,6.08
1631632704484,5.69
1631632704500,5.09
1631632704515,4.18
1631632704531,3.0
1631632704546,1.67
1631632704562,0.39
1631632704578,-0.75
1631632704593,-1.76
1631632704609,-2.78
1631632704625,-3.97
1631632704640,-5.42
1631632704656,-7.12
1631632704671,-8.95
1631632704687,-10.78
1631632704703,-12.47
1631632704718,-13.91
1631632704734,-14.95
1631632704750,-15.44
1631632704765,-15.22
1631632704781,-14.17
1631632704796,-12.29
1631632704812,-9.68
1631632704828,-6.47
1631632704843,-2.86
1631632704859,1.0
1631632704875,4.92
1631632704890,8.64
1631632704906,11.81
1631632704921,14.03
1631632704937,15.0
1631632704953,14.58
1631632704968,12.94
1631632704984,10.52
1631632705000,7.87
1631632705015,5.57
1631632705031,3.99
1631632705046,3.3
1631632705062,3.45
1631632705078,4.27
1631632705093,5.5
1631632705109,6.88
1631632705125,8.14
1631632705140,9.05
1631632705156,9.39
1631632705171,9.06
1631632705187,8.09
1631632705203,6.68
1631632705218,5.07
1631632705234,3.52
1631632705250,2.22
1631632705265,1.18
1631632705281,0.25
1631632705296,-0.79
1631632705312,-2.25
1631632705328,-4.33
1631632705343,-7.11
1631632705359,-10.47
1631632705375,-14.07
1631632705390,-17.45
1631632705406,-20.12
1631632705421,-21.62
1631632705437,-21.71
1631632705453,-20.35
1631632705468,-17.71
1631632705484,-14.16
1631632705500,-10.09
1631632705515,-5.92
1631632705531,-1.94
1631632705546,1.6
1631632705562,4.59
1631632705578,6.96
1631632705593,8.73
1631632705609,9.93
1631632705625,10.64
1631632705640,10.97
1631632705656,10.97
1631632705671,10.74
1631632705687,10.38
1631632705703,10.02
1631632705718,9.79
1631632705734,9.71
1631632705750,9.7
1631632705765,9.6
1631632705781,9.25
1631632705796,8.57
1631632705812,7.61
1631632705828,6.54
1631632705843,5.5
1631632705859,4.54
1631632705875,3.59
1631632705890,2.5
1631632705906,1.16
1631632705921,-0.41
1631632705937,-2.09
1631632705953,-3.7
1631632705968,-5.12
1631632705984,-6.4
1631632706000,-7.69
1631632706015,-9.26
1631632706031,-11.25
1631632706046,-13.64
1631632706062,-16.21
1631632706078,-18.55
1631632706093,-20.23
1631632706109,-20.91
1631632706125,-20.43
1631632706140,-18.78
1631632706156,-16.12
1631632706171,-12.68
1631632706187,-8.74
1631632706203,-4.59
1631632706218,-0.54
1631632706234,3.18
1631632706250,6.39
1631632706265,9.02
1631632706281,11.07
1631632706296,12.53
1631632706312,13.43
1631632706328,13.77
1631632706343,13.58
1631632706359,12.95
1631632706375,12.05
1631632706390,11.08
1631632706406,10.2
1631632706421,9.53
1631632706437,9.07
1631632706453,8.75
1631632706468,8.49
1631632706484,8.2
1631632706500,7.84
1631632706515,7.38
1631632706531,6.82
1631632706546,6.11
1631632706562,5.25
1631632706578,4.25
1631632706593,3.13
1631632706609,1.96
1631632706625,0.8
1631632706640,-0.31
1631632706656,-1.37
1631632706671,-2.44
1631632706687,-3.6
1631632706703,-4.95
1631632706718,-6.54
1631632706734,-8.39
1631632706750,-10.46
1631632706765,-12.65
1631632706781,-14.76
1631632706796,-16.5
1631632706812,-17.58
1631632706828,-17.74
1631632706843,-16.85
1631632706859,-14.96
1631632706875,-12.3
1631632706890,-9.14
1631632706906,-5.74
1631632706921,-2.33
1631632706937,0.96
1631632706953,4.02
1631632706968,6.73
1631632706984,8.94
1631632707000,10.51
1631632707015,11.34
1631632707031,11.47
1631632707046,11.08
1631632707062,10.4
1631632707078,9.72
1631632707093,9.23
1631632707109,8.98
1631632707125,8.9
1631632707140,8.85
1631632707156,8.64
1631632707171,8.19
1631632707187,7.52
1631632707203,6.76
1631632707218,6.04
1631632707234,5.44
1631632707250,4.98
1631632707265,4.55
1631632707281,4.06
1631632707296,3.44
1631632707312,2.67
1631632707328,1.8
1631632707343,0.86
1631632707359,-0.11
1631632707375,-1.1
1631632707390,-2.17
1631632707406,-3.37
1631632707421,-4.79
1631632707437,-6.49
1631632707453,-8.5
1631632707468,-10.76
1631632707484,-13.13
1631632707500,-15.31
1631632707515,-16.92
1631632707531,-17.58
1631632707546,-17.02
1631632707562,-15.19
1631632707578,-12.31
1631632707593,-8.78
1631632707609,-5.07
1631632707625,-1.6
1631632707640,1.42
1631632707656,3.93
1631632707671,6.0
1631632707687,7.7
1631632707703,9.01
1631632707718,9.85
1631632707734,10.17
1631632707750,10.02
1631632707765,9.53
1631632707781,8.94
1631632707796,8.45
1631632707812,8.12
1631632707828,7.94
1631632707843,7.77
1631632707859,7.51
1631632707875,7.08
1631632707890,6.48
1631632707906,5.76
1631632707921,4.94
1631632707937,4.08
1631632707953,3.19
1631632707968,2.31
1631632707984,1.42
1631632708000,0.52
1631632708015,-0.43
