timestamp,bvp
1629370423000,-13.45
1629370423015,-12.61
1629370423031,-11.37
1629370423046,-9.94
1629370423062,-8.57
1629370423078,-7.47
1629370423093,-6.65
1629370423109,-6.0
1629370423125,-5.32
1629370423140,-4.44
1629370423156,-3.32
1629370423171,-2.06
1629370423187,-0.87
1629370423203,0.04
1629370423218,0.57
1629370423234,0.78
1629370423250,0.86
1629370423265,1.09
1629370423281,1.67
1629370423296,2.77
1629370423312,4.37
1629370423328,6.37
1629370423343,8.61
1629370423359,10.91
1629370423375,13.17
1629370423390,15.35
1629370423406,17.53
1629370423421,19.79
1629370423437,22.18
1629370423453,24.7
1629370423468,27.28
1629370423484,29.84
1629370423500,32.39
1629370423515,35.0
1629370423531,37.76
1629370423546,40.73
1629370423562,43.84
1629370423578,46.91
1629370423593,49.76
1629370423609,52.29
1629370423625,54.5
1629370423640,56.43
1629370423656,58.06
1629370423671,59.24
1629370423687,59.78
1629370423703,59.64
1629370423718,59.05
1629370423734,58.54
1629370423750,58.55
1629370423765,59.11
1629370423781,59.54
1629370423796,58.51
1629370423812,54.54
1629370423828,46.56
1629370423843,34.3
1629370423859,18.35
1629370423875,-0.09
1629370423890,-19.59
1629370423906,-38.69
1629370423921,-56.02
1629370423937,-70.4
1629370423953,-81.04
1629370423968,-87.73
1629370423984,-91.05
1629370424000,-92.14
1629370424015,-92.35
1629370424031,-92.62
1629370424046,-93.23
1629370424062,-93.78
1629370424078,-93.58
1629370424093,-92.03
1629370424109,-88.93
1629370424125,-84.39
1629370424140,-78.72
1629370424156,-72.16
1629370424171,-64.91
1629370424187,-57.16
1629370424203,-49.2
1629370424218,-41.43
1629370424234,-34.24
1629370424250,-27.83
1629370424265,-22.14
1629370424281,-16.82
1629370424296,-11.43
1629370424312,-5.71
1629370424328,0.35
1629370424343,6.47
1629370424359,12.25
1629370424375,17.39
1629370424390,21.81
1629370424406,25.66
1629370424421,29.18
1629370424437,32.55
1629370424453,35.74
1629370424468,38.48
1629370424484,40.37
1629370424500,40.99
1629370424515,40.0
1629370424531,37.29
1629370424546,33.01
1629370424562,27.58
1629370424578,21.63
1629370424593,15.81
1629370424609,10.69
1629370424625,6.56
1629370424640,3.45
1629370424656,1.1
1629370424671,-0.8
1629370424687,-2.53
1629370424703,-4.2
1629370424718,-5.7
1629370424734,-6.86
1629370424750,-7.55
1629370424765,-7.79
1629370424781,-7.79
1629370424796,-7.81
1629370424812,-8.05
1629370424828,-8.54
1629370424843,-9.07
1629370424859,-9.34
1629370424875,-9.02
1629370424890,-7.89
1629370424906,-5.89
1629370424921,-3.09
1629370424937,0.34
1629370424953,4.22
1629370424968,8.35
1629370424984,12.57
1629370425000,16.77
1629370425015,20.79
1629370425031,24.53
1629370425046,27.86
1629370425062,30.7
1629370425078,33.03
1629370425093,34.95
1629370425109,36.52
1629370425125,37.6
1629370425140,37.72
1629370425156,36.03
1629370425171,31.63
1629370425187,23.94
1629370425203,13.17
1629370425218,0.39
1629370425234,-12.69
1629370425250,-24.33
1629370425265,-33.32
1629370425281,-39.28
1629370425296,-42.64
1629370425312,-44.24
1629370425328,-44.85
1629370425343,-45.02
1629370425359,-44.95
1629370425375,-44.71
1629370425390,-44.35
1629370425406,-43.93
1629370425421,-43.47
1629370425437,-42.86
1629370425453,-41.96
1629370425468,-40.61
1629370425484,-38.83
1629370425500,-36.85
1629370425515,-35.02
1629370425531,-33.66
1629370425546,-32.95
1629370425562,-32.79
1629370425578,-32.88
1629370425593,-32.83
1629370425609,-32.35
1629370425625,-31.28
1629370425640,-29.63
1629370425656,-27.58
1629370425671,-25.32
1629370425687,-23.05
1629370425703,-20.87
1629370425718,-18.85
1629370425734,-16.94
1629370425750,-15.07
1629370425765,-13.13
1629370425781,-11.04
1629370425796,-8.8
1629370425812,-6.53
1629370425828,-4.41
1629370425843,-2.68
1629370425859,-1.51
1629370425875,-0.89
1629370425890,-0.69
1629370425906,-0.69
1629370425921,-0.66
1629370425937,-0.43
1629370425953,0.12
1629370425968,0.99
1629370425984,2.14
1629370426000,3.44
1629370426015,4.74
1629370426031,5.88
1629370426046,6.75
1629370426062,7.31
1629370426078,7.58
1629370426093,7.59
1629370426109,7.39
1629370426125,7.02
1629370426140,6.51
1629370426156,5.92
1629370426171,5.31
1629370426187,4.68
1629370426203,4.02
1629370426218,3.26
1629370426234,2.32
1629370426250,1.21
1629370426265,0.04
1629370426281,-1.06
1629370426296,-1.99
1629370426312,-2.73
1629370426328,-3.32
1629370426343,-3.86
1629370426359,-4.45
1629370426375,-5.11
1629370426390,-5.89
1629370426406,-6.79
1629370426421,-7.81
1629370426437,-8.87
1629370426453,-9.9
1629370426468,-10.8
1629370426484,-11.5
1629370426500,-12.0
1629370426515,-12.3
1629370426531,-12.4
1629370426546,-12.26
1629370426562,-11.79
1629370426578,-10.91
1629370426593,-9.59
1629370426609,-7.92
1629370426625,-6.07
1629370426640,-4.21
1629370426656,-2.46
1629370426671,-0.86
1629370426687,0.63
1629370426703,2.05
1629370426718,3.41
1629370426734,4.72
1629370426750,5.96
1629370426765,7.1
1629370426781,8.07
1629370426796,8.79
1629370426812,9.13
1629370426828,9.06
1629370426843,8.63
1629370426859,8.01
1629370426875,7.49
1629370426890,7.29
1629370426906,7.55
1629370426921,8.19
1629370426937,8.99
1629370426953,9.69
1629370426968,10.06
1629370426984,10.04
1629370427000,9.71
1629370427015,9.23
1629370427031,8.75
1629370427046,8.4
1629370427062,8.2
1629370427078,8.15
1629370427093,8.17
1629370427109,8.23
1629370427125,8.27
1629370427140,8.24
1629370427156,8.1
1629370427171,7.79
1629370427187,7.26
1629370427203,6.53
1629370427218,5.67
1629370427234,4.85
1629370427250,4.24
1629370427265,3.94
1629370427281,3.93
1629370427296,4.02
1629370427312,3.93
1629370427328,3.4
1629370427343,2.31
1629370427359,0.74
1629370427375,-1.02
1629370427390,-2.62
1629370427406,-3.77
1629370427421,-4.4
1629370427437,-4.59
1629370427453,-4.59
1629370427468,-4.63
1629370427484,-4.83
1629370427500,-5.23
1629370427515,-5.74
1629370427531,-6.24
1629370427546,-6.64
1629370427562,-6.87
1629370427578,-6.88
1629370427593,-6.65
1629370427609,-6.15
1629370427625,-5.39
1629370427640,-4.35
1629370427656,-3.07
1629370427671,-1.68
1629370427687,-0.3
1629370427703,0.9
1629370427718,1.84
1629370427734,2.52
1629370427750,3.02
1629370427765,3.48
1629370427781,4.0
1629370427796,4.59
1629370427812,5.13
1629370427828,5.47
1629370427843,5.51
1629370427859,5.32
1629370427875,5.05
1629370427890,4.89
1629370427906,4.92
1629370427921,5.08
1629370427937,5.21
1629370427953,5.16
1629370427968,4.84
1629370427984,4.34
1629370428000,3.84
1629370428015,3.52
1629370428031,3.47
1629370428046,3.64
1629370428062,3.87
1629370428078,3.97
1629370428093,3.83
1629370428109,3.47
1629370428125,2.99
1629370428140,2.54
1629370428156,2.16
1629370428171,1.83
1629370428187,1.44
1629370428203,0.93
1629370428218,0.32
1629370428234,-0.24
1629370428250,-0.61
1629370428265,-0.74
1629370428281,-0.73
1629370428296,-0.81
1629370428312,-1.23
1629370428328,-2.05
1629370428343,-3.16
1629370428359,-4.29
1629370428375,-5.14
1629370428390,-5.58
1629370428406,-5.66
1629370428421,-5.56
1629370428437,-5.47
1629370428453,-5.52
1629370428468,-5.73
1629370428484,-6.05
1629370428500,-6.48
1629370428515,-7.01
1629370428531,-7.64
1629370428546,-8.3
1629370428562,-8.82
1629370428578,-9.01
1629370428593,-8.7
1629370428609,-7.86
1629370428625,-6.62
1629370428640,-5.18
1629370428656,-3.75
1629370428671,-2.43
1629370428687,-1.25
1629370428703,-0.15
1629370428718,0.89
1629370428734,1.85
1629370428750,2.65
1629370428765,3.26
1629370428781,3.67
1629370428796,3.99
1629370428812,4.36
1629370428828,4.87
1629370428843,5.52
1629370428859,6.2
1629370428875,6.73
1629370428890,7.0
1629370428906,7.0
1629370428921,6.88
1629370428937,6.82
1629370428953,6.97
1629370428968,7.32
1629370428984,7.74
1629370429000,7.99
1629370429015,7.9
1629370429031,7.42
1629370429046,6.7
1629370429062,5.95
1629370429078,5.32
1629370429093,4.88
1629370429109,4.56
1629370429125,4.26
1629370429140,3.92
1629370429156,3.56
1629370429171,3.29
1629370429187,3.16
1629370429203,3.14
1629370429218,3.09
1629370429234,2.87
1629370429250,2.38
1629370429265,1.66
1629370429281,0.84
1629370429296,0.06
1629370429312,-0.56
1629370429328,-0.99
1629370429343,-1.28
1629370429359,-1.51
1629370429375,-1.8
1629370429390,-2.24
1629370429406,-2.89
1629370429421,-3.75
1629370429437,-4.72
1629370429453,-5.62
1629370429468,-6.3
1629370429484,-6.69
1629370429500,-6.81
1629370429515,-6.85
1629370429531,-6.98
1629370429546,-7.33
1629370429562,-7.87
1629370429578,-8.47
1629370429593,-8.92
1629370429609,-9.06
1629370429625,-8.79
1629370429640,-8.17
1629370429656,-7.31
1629370429671,-6.36
1629370429687,-5.45
1629370429703,-4.67
1629370429718,-4.0
1629370429734,-3.42
1629370429750,-2.88
1629370429765,-2.36
1629370429781,-1.85
1629370429796,-1.4
1629370429812,-1.02
1629370429828,-0.72
1629370429843,-0.52
1629370429859,-0.44
1629370429875,-0.53
1629370429890,-0.85
1629370429906,-1.39
1629370429921,-2.1
1629370429937,-2.89
1629370429953,-3.66
1629370429968,-4.44
1629370429984,-5.3
1629370430000,-6.38
1629370430015,-7.78
1629370430031,-9.48
1629370430046,-11.34
1629370430062,-13.18
1629370430078,-14.81
1629370430093,-16.18
1629370430109,-17.36
1629370430125,-18.5
1629370430140,-19.79
1629370430156,-21.4
1629370430171,-23.41
1629370430187,-25.86
1629370430203,-28.67
1629370430218,-31.74
1629370430234,-34.86
1629370430250,-37.8
1629370430265,-40.32
1629370430281,-42.3
1629370430296,-43.71
1629370430312,-44.65
1629370430328,-45.11
1629370430343,-44.86
1629370430359,-43.38
1629370430375,-39.94
1629370430390,-33.95
1629370430406,-25.24
1629370430421,-14.34
1629370430437,-2.43
1629370430453,8.93
1629370430468,18.32
1629370430484,24.8
1629370430500,28.05
1629370430515,28.33
1629370430531,26.26
1629370430546,22.79
1629370430562,19.01
1629370430578,16.04
1629370430593,14.73
1629370430609,15.37
1629370430625,17.54
1629370430640,20.35
1629370430656,22.84
1629370430671,24.49
1629370430687,25.44
1629370430703,26.31
1629370430718,27.76
1629370430734,29.98
1629370430750,32.63
1629370430765,34.99
1629370430781,36.49
1629370430796,36.95
1629370430812,36.67
1629370430828,36.18
1629370430843,35.89
1629370430859,35.93
1629370430875,36.09
1629370430890,36.03
1629370430906,35.44
1629370430921,34.2
1629370430937,32.39
1629370430953,30.2
1629370430968,27.87
1629370430984,25.53
1629370431000,23.3
1629370431015,21.23
1629370431031,19.4
1629370431046,17.94
1629370431062,17.0
1629370431078,16.67
1629370431093,16.89
1629370431109,17.48
1629370431125,18.18
1629370431140,18.81
1629370431156,19.29
1629370431171,19.71
1629370431187,20.16
1629370431203,20.72
1629370431218,21.33
1629370431234,21.84
1629370431250,22.02
1629370431265,21.68
1629370431281,20.71
1629370431296,19.1
1629370431312,16.94
1629370431328,14.42
1629370431343,11.75
1629370431359,9.1
1629370431375,6.59
1629370431390,4.2
1629370431406,1.85
1629370431421,-0.56
1629370431437,-3.09
1629370431453,-5.69
1629370431468,-8.26
1629370431484,-10.66
1629370431500,-12.79
1629370431515,-14.63
1629370431531,-16.2
1629370431546,-17.57
1629370431562,-18.84
1629370431578,-20.08
1629370431593,-21.38
1629370431609,-22.74
1629370431625,-24.09
1629370431640,-25.26
1629370431656,-26.06
1629370431671,-26.29
1629370431687,-25.87
1629370431703,-24.82
1629370431718,-23.3
1629370431734,-21.52
1629370431750,-19.68
1629370431765,-17.88
1629370431781,-16.13
1629370431796,-14.39
1629370431812,-12.61
1629370431828,-10.83
1629370431843,-9.14
1629370431859,-7.66
1629370431875,-6.42
1629370431890,-5.37
1629370431906,-4.43
1629370431921,-3.48
1629370431937,-2.5
1629370431953,-1.51
1629370431968,-0.63
1629370431984,0.12
1629370432000,0.7
1629370432015,1.14
1629370432031,1.48
1629370432046,1.72
1629370432062,1.86
1629370432078,1.92
1629370432093,1.93
1629370432109,1.93
1629370432125,1.98
1629370432140,2.12
1629370432156,2.37
1629370432171,2.79
1629370432187,3.43
1629370432203,4.31
1629370432218,5.39
1629370432234,6.51
1629370432250,7.46
1629370432265,8.04
1629370432281,8.09
1629370432296,7.57
1629370432312,6.55
1629370432328,5.22
1629370432343,3.82
1629370432359,2.56
1629370432375,1.55
1629370432390,0.79
1629370432406,0.17
1629370432421,-0.48
1629370432437,-1.35
1629370432453,-2.52
1629370432468,-4.0
1629370432484,-5.71
1629370432500,-7.52
1629370432515,-9.3
1629370432531,-10.92
1629370432546,-12.27
1629370432562,-13.3
1629370432578,-13.99
1629370432593,-14.37
1629370432609,-14.52
1629370432625,-14.52
1629370432640,-14.44
1629370432656,-14.3
1629370432671,-14.12
1629370432687,-13.87
1629370432703,-13.48
1629370432718,-12.89
1629370432734,-12.06
1629370432750,-11.03
1629370432765,-9.92
1629370432781,-8.92
1629370432796,-8.24
1629370432812,-7.99
1629370432828,-8.11
1629370432843,-8.36
1629370432859,-8.44
1629370432875,-8.09
1629370432890,-7.19
1629370432906,-5.8
1629370432921,-4.12
1629370432937,-2.36
1629370432953,-0.71
1629370432968,0.68
1629370432984,1.71
1629370433000,2.33
1629370433015,2.56
1629370433031,2.54
1629370433046,2.49
1629370433062,2.66
1629370433078,3.17
1629370433093,3.98
1629370433109,4.89
1629370433125,5.68
1629370433140,6.19
1629370433156,6.48
1629370433171,6.73
1629370433187,7.15
1629370433203,7.85
1629370433218,8.77
1629370433234,9.72
1629370433250,10.48
1629370433265,10.87
1629370433281,10.86
1629370433296,10.52
1629370433312,9.98
1629370433328,9.31
1629370433343,8.54
1629370433359,7.65
1629370433375,6.59
1629370433390,5.39
1629370433406,4.13
1629370433421,2.91
1629370433437,1.81
1629370433453,0.86
1629370433468,0.05
1629370433484,-0.66
1629370433500,-1.3
1629370433515,-1.88
1629370433531,-2.4
1629370433546,-2.86
1629370433562,-3.27
1629370433578,-3.6
1629370433593,-3.82
1629370433609,-3.88
1629370433625,-3.75
1629370433640,-3.47
1629370433656,-3.11
1629370433671,-2.77
1629370433687,-2.55
1629370433703,-2.47
1629370433718,-2.49
1629370433734,-2.56
1629370433750,-2.6
1629370433765,-2.54
1629370433781,-2.33
1629370433796,-1.92
1629370433812,-1.3
1629370433828,-0.47
1629370433843,0.52
1629370433859,1.63
1629370433875,2.8
1629370433890,3.98
1629370433906,5.16
1629370433921,6.29
1629370433937,7.31
1629370433953,8.15
1629370433968,8.78
1629370433984,9.19
1629370434000,9.4
1629370434015,9.48
1629370434031,9.49
1629370434046,9.47
1629370434062,9.46
1629370434078,9.45
1629370434093,9.41
1629370434109,9.29
1629370434125,8.99
1629370434140,8.45
1629370434156,7.68
1629370434171,6.79
1629370434187,5.97
1629370434203,5.38
1629370434218,5.12
1629370434234,5.12
1629370434250,5.21
1629370434265,5.24
1629370434281,5.16
1629370434296,5.03
1629370434312,4.98
1629370434328,5.1
1629370434343,5.41
1629370434359,5.82
1629370434375,6.22
1629370434390,6.48
1629370434406,6.57
1629370434421,6.51
1629370434437,6.35
1629370434453,6.09
1629370434468,5.7
1629370434484,5.07
1629370434500,4.13
1629370434515,2.86
1629370434531,1.32
1629370434546,-0.34
1629370434562,-1.98
1629370434578,-3.5
1629370434593,-4.86
1629370434609,-6.06
1629370434625,-7.08
1629370434640,-7.87
1629370434656,-8.34
1629370434671,-8.47
1629370434687,-8.3
1629370434703,-8.02
1629370434718,-7.8
1629370434734,-7.78
1629370434750,-7.95
1629370434765,-8.22
1629370434781,-8.46
1629370434796,-8.61
1629370434812,-8.74
1629370434828,-8.93
1629370434843,-9.31
1629370434859,-9.91
1629370434875,-10.63
1629370434890,-11.28
1629370434906,-11.64
1629370434921,-11.57
1629370434937,-11.04
1629370434953,-10.13
1629370434968,-8.95
1629370434984,-7.61
1629370435000,-6.17
1629370435015,-4.65
1629370435031,-3.05
1629370435046,-1.43
1629370435062,0.15
1629370435078,1.63
1629370435093,2.99
1629370435109,4.25
1629370435125,5.43
1629370435140,6.56
1629370435156,7.59
1629370435171,8.48
1629370435187,9.24
1629370435203,9.89
1629370435218,10.48
1629370435234,11.04
1629370435250,11.5
1629370435265,11.76
1629370435281,11.66
1629370435296,11.17
1629370435312,10.39
1629370435328,9.53
1629370435343,8.86
1629370435359,8.52
1629370435375,8.51
1629370435390,8.61
1629370435406,8.52
1629370435421,8.01
1629370435437,7.0
1629370435453,5.59
1629370435468,4.0
1629370435484,2.47
1629370435500,1.15
1629370435515,0.1
1629370435531,-0.73
1629370435546,-1.44
1629370435562,-2.15
1629370435578,-2.97
1629370435593,-3.96
1629370435609,-5.09
1629370435625,-6.29
1629370435640,-7.44
1629370435656,-8.43
1629370435671,-9.23
1629370435687,-9.84
1629370435703,-10.26
1629370435718,-10.46
1629370435734,-10.35
1629370435750,-9.9
1629370435765,-9.12
1629370435781,-8.17
1629370435796,-7.19
1629370435812,-6.25
1629370435828,-5.31
1629370435843,-4.2
1629370435859,-2.82
1629370435875,-1.15
1629370435890,0.71
1629370435906,2.69
1629370435921,4.85
1629370435937,7.39
1629370435953,10.51
1629370435968,14.23
1629370435984,18.27
1629370436000,22.15
1629370436015,25.38
1629370436031,27.65
1629370436046,28.97
1629370436062,29.5
1629370436078,29.37
1629370436093,28.5
1629370436109,26.6
1629370436125,23.32
1629370436140,18.54
1629370436156,12.55
1629370436171,6.05
1629370436187,-0.1
1629370436203,-5.24
1629370436218,-9.1
1629370436234,-11.97
1629370436250,-14.46
1629370436265,-17.19
1629370436281,-20.55
1629370436296,-24.6
1629370436312,-29.15
1629370436328,-33.89
1629370436343,-38.55
1629370436359,-42.81
1629370436375,-46.32
1629370436390,-48.68
1629370436406,-49.57
1629370436421,-48.95
1629370436437,-47.15
1629370436453,-44.8
1629370436468,-42.64
1629370436484,-41.29
1629370436500,-40.98
1629370436515,-41.64
1629370436531,-42.98
1629370436546,-44.67
1629370436562,-46.43
1629370436578,-48.06
1629370436593,-49.38
1629370436609,-50.21
1629370436625,-50.41
1629370436640,-49.95
1629370436656,-48.89
1629370436671,-47.39
1629370436687,-45.53
1629370436703,-43.27
1629370436718,-40.44
1629370436734,-36.78
1629370436750,-32.03
1629370436765,-26.02
1629370436781,-18.71
1629370436796,-10.35
1629370436812,-1.44
1629370436828,7.32
1629370436843,15.15
1629370436859,21.41
1629370436875,25.87
1629370436890,28.85
1629370436906,31.2
1629370436921,33.92
1629370436937,37.66
1629370436953,42.47
1629370436968,47.89
1629370436984,53.25
1629370437000,58.07
1629370437015,62.24
1629370437031,65.97
1629370437046,69.6
1629370437062,73.21
1629370437078,76.43
1629370437093,78.74
1629370437109,79.83
1629370437125,79.88
1629370437140,79.41
1629370437156,79.14
1629370437171,79.51
1629370437187,80.95
1629370437203,83.21
1629370437218,85.54
1629370437234,87.05
1629370437250,87.28
1629370437265,86.4
1629370437281,84.94
1629370437296,83.55
1629370437312,82.63
1629370437328,83.01
1629370437343,84.77
1629370437359,87.19
1629370437375,89.16
1629370437390,90.0
1629370437406,89.69
1629370437421,88.61
1629370437437,87.32
1629370437453,86.17
1629370437468,86.44
1629370437484,88.43
1629370437500,91.15
1629370437515,92.84
1629370437531,92.11
1629370437546,88.52
1629370437562,82.34
1629370437578,74.65
1629370437593,66.65
1629370437609,61.14
1629370437625,59.55
1629370437640,61.18
1629370437656,63.68
1629370437671,64.68
1629370437687,62.68
1629370437703,57.21
1629370437718,48.88
1629370437734,28.36
1629370437750,-5.79
1629370437765,-46.85
1629370437781,-84.67
1629370437796,-112.98
1629370437812,-130.99
1629370437828,-140.26
1629370437843,-144.6
1629370437859,-146.05
1629370437875,-145.75
1629370437890,-142.85
1629370437906,-137.43
1629370437921,-130.21
1629370437937,-122.97
1629370437953,-117.04
1629370437968,-112.74
1629370437984,-109.84
1629370438000,-107.62
1629370438015,-105.53
1629370438031,-102.0
1629370438046,-96.3
1629370438062,-88.96
1629370438078,-81.33
1629370438093,-74.44
1629370438109,-68.62
1629370438125,-63.71
1629370438140,-59.2
1629370438156,-54.68
1629370438171,-49.14
1629370438187,-42.13
1629370438203,-34.05
1629370438218,-25.9
1629370438234,-18.57
1629370438250,-12.49
1629370438265,-7.74
1629370438281,-4.03
1629370438296,-1.01
1629370438312,2.03
1629370438328,5.46
1629370438343,9.18
1629370438359,12.69
1629370438375,15.53
1629370438390,17.52
1629370438406,18.71
1629370438421,19.31
1629370438437,19.59
1629370438453,19.86
1629370438468,20.29
1629370438484,20.82
1629370438500,21.24
1629370438515,21.35
1629370438531,21.01
1629370438546,20.18
1629370438562,18.87
1629370438578,17.19
1629370438593,15.17
1629370438609,12.92
1629370438625,10.51
1629370438640,8.04
1629370438656,5.68
1629370438671,3.59
1629370438687,1.89
1629370438703,0.6
1629370438718,-0.37
1629370438734,-1.25
1629370438750,-2.22
1629370438765,-3.37
1629370438781,-4.69
1629370438796,-6.08
1629370438812,-7.46
1629370438828,-8.77
1629370438843,-10.02
1629370438859,-11.21
1629370438875,-12.34
1629370438890,-13.36
1629370438906,-14.25
1629370438921,-15.02
1629370438937,-15.72
1629370438953,-16.44
1629370438968,-17.27
1629370438984,-18.26
1629370439000,-19.42
1629370439015,-20.68
1629370439031,-21.92
1629370439046,-22.94
1629370439062,-23.51
1629370439078,-23.42
1629370439093,-22.58
1629370439109,-21.05
1629370439125,-19.03
1629370439140,-16.84
1629370439156,-14.75
1629370439171,-12.91
1629370439187,-11.31
1629370439203,-9.85
1629370439218,-8.39
1629370439234,-6.88
1629370439250,-5.36
1629370439265,-3.94
1629370439281,-2.71
1629370439296,-1.67
1629370439312,-0.71
1629370439328,0.28
1629370439343,1.41
1629370439359,2.64
1629370439375,3.82
1629370439390,4.77
1629370439406,5.36
1629370439421,5.62
1629370439437,5.7
1629370439453,5.79
1629370439468,6.07
1629370439484,6.57
1629370439500,7.22
1629370439515,7.91
1629370439531,8.55
1629370439546,9.1
1629370439562,9.56
1629370439578,9.96
1629370439593,10.28
1629370439609,10.47
1629370439625,10.48
1629370439640,10.31
1629370439656,9.97
1629370439671,9.56
1629370439687,9.11
1629370439703,8.59
1629370439718,7.87
1629370439734,6.73
1629370439750,4.97
1629370439765,2.48
1629370439781,-0.65
1629370439796,-4.07
1629370439812,-7.29
1629370439828,-9.82
1629370439843,-11.32
1629370439859,-11.74
1629370439875,-11.36
1629370439890,-10.58
1629370439906,-9.78
1629370439921,-9.21
1629370439937,-8.87
1629370439953,-8.65
1629370439968,-8.41
1629370439984,-8.11
1629370440000,-7.83
1629370440015,-7.73
1629370440031,-7.9
1629370440046,-8.36
1629370440062,-8.99
1629370440078,-9.63
1629370440093,-10.08
1629370440109,-10.22
1629370440125,-9.96
1629370440140,-9.31
1629370440156,-8.3
1629370440171,-6.99
1629370440187,-5.46
1629370440203,-3.78
1629370440218,-2.0
1629370440234,-0.17
1629370440250,1.61
1629370440265,3.19
1629370440281,4.44
1629370440296,5.28
1629370440312,5.74
1629370440328,6.0
1629370440343,6.29
1629370440359,6.79
1629370440375,7.5
1629370440390,8.27
1629370440406,8.86
1629370440421,9.11
1629370440437,9.02
1629370440453,8.74
1629370440468,8.52
1629370440484,8.5
1629370440500,8.66
1629370440515,8.87
1629370440531,8.95
1629370440546,8.8
1629370440562,8.47
1629370440578,8.07
1629370440593,7.73
1629370440609,7.54
1629370440625,7.5
1629370440640,7.56
1629370440656,7.62
1629370440671,7.62
1629370440687,7.52
1629370440703,7.35
1629370440718,7.15
1629370440734,6.98
1629370440750,6.87
1629370440765,6.8
1629370440781,6.72
1629370440796,6.55
1629370440812,6.25
1629370440828,5.79
1629370440843,5.22
1629370440859,4.55
1629370440875,3.81
1629370440890,3.0
1629370440906,2.12
1629370440921,1.24
1629370440937,0.43
1629370440953,-0.19
1629370440968,-0.59
1629370440984,-0.83
1629370441000,-1.04
1629370441015,-1.38
1629370441031,-1.96
1629370441046,-2.77
1629370441062,-3.69
1629370441078,-4.54
1629370441093,-5.23
1629370441109,-5.77
1629370441125,-6.3
1629370441140,-6.95
1629370441156,-7.79
1629370441171,-8.72
1629370441187,-9.57
1629370441203,-10.14
1629370441218,-10.27
1629370441234,-9.96
1629370441250,-9.28
1629370441265,-8.32
1629370441281,-7.22
1629370441296,-6.04
1629370441312,-4.82
1629370441328,-3.55
1629370441343,-2.21
1629370441359,-0.78
1629370441375,0.74
1629370441390,2.29
1629370441406,3.75
1629370441421,4.99
1629370441437,5.91
1629370441453,6.49
1629370441468,6.81
1629370441484,6.98
1629370441500,7.11
1629370441515,7.26
1629370441531,7.45
1629370441546,7.66
1629370441562,7.87
1629370441578,8.08
1629370441593,8.26
1629370441609,8.39
1629370441625,8.38
1629370441640,8.19
1629370441656,7.84
1629370441671,7.38
1629370441687,6.94
1629370441703,6.59
1629370441718,6.39
1629370441734,6.31
1629370441750,6.29
1629370441765,6.27
1629370441781,6.25
1629370441796,6.22
1629370441812,6.19
1629370441828,6.08
1629370441843,5.84
1629370441859,5.39
1629370441875,4.77
1629370441890,4.07
1629370441906,3.39
1629370441921,2.83
1629370441937,2.38
1629370441953,2.0
1629370441968,1.62
1629370441984,1.2
1629370442000,0.78
1629370442015,0.4
1629370442031,0.1
1629370442046,-0.16
1629370442062,-0.46
1629370442078,-0.88
1629370442093,-1.47
1629370442109,-2.19
1629370442125,-2.98
1629370442140,-3.74
1629370442156,-4.47
1629370442171,-5.18
1629370442187,-5.91
1629370442203,-6.66
1629370442218,-7.36
1629370442234,-7.92
1629370442250,-8.33
1629370442265,-8.61
1629370442281,-8.89
1629370442296,-9.25
1629370442312,-9.69
1629370442328,-10.06
1629370442343,-10.18
1629370442359,-9.84
1629370442375,-8.99
1629370442390,-7.69
1629370442406,-6.14
1629370442421,-4.52
1629370442437,-3.01
1629370442453,-1.69
1629370442468,-0.56
1629370442484,0.44
1629370442500,1.38
1629370442515,2.28
1629370442531,3.14
1629370442546,3.89
1629370442562,4.51
1629370442578,5.01
1629370442593,5.46
1629370442609,5.91
1629370442625,6.4
1629370442640,6.89
1629370442656,7.3
1629370442671,7.58
1629370442687,7.71
1629370442703,7.71
1629370442718,7.64
1629370442734,7.49
1629370442750,7.24
1629370442765,6.88
1629370442781,6.41
1629370442796,5.92
1629370442812,5.49
1629370442828,5.23
1629370442843,5.15
1629370442859,5.21
1629370442875,5.32
1629370442890,5.37
1629370442906,5.24
1629370442921,4.86
1629370442937,4.26
1629370442953,3.52
1629370442968,2.78
1629370442984,2.14
1629370443000,1.66
1629370443015,1.29
1629370443031,0.97
1629370443046,0.68
1629370443062,0.42
1629370443078,0.24
1629370443093,0.16
1629370443109,0.13
1629370443125,0.04
1629370443140,-0.22
1629370443156,-0.69
1629370443171,-1.31
1629370443187,-1.94
1629370443203,-2.44
1629370443218,-2.77
1629370443234,-3.0
1629370443250,-3.27
1629370443265,-3.72
1629370443281,-4.4
1629370443296,-5.21
1629370443312,-6.02
1629370443328,-6.67
1629370443343,-7.15
1629370443359,-7.5
1629370443375,-7.88
1629370443390,-8.4
1629370443406,-9.11
1629370443421,-9.89
1629370443437,-10.59
1629370443453,-11.01
1629370443468,-11.01
1629370443484,-10.55
1629370443500,-9.72
1629370443515,-8.66
1629370443531,-7.51
1629370443546,-6.37
1629370443562,-5.28
1629370443578,-4.21
1629370443593,-3.13
1629370443609,-2.0
1629370443625,-0.86
1629370443640,0.27
1629370443656,1.32
1629370443671,2.25
1629370443687,3.06
1629370443703,3.75
1629370443718,4.36
1629370443734,4.89
1629370443750,5.34
1629370443765,5.68
1629370443781,5.9
1629370443796,5.99
1629370443812,5.99
1629370443828,5.93
1629370443843,5.86
1629370443859,5.8
1629370443875,5.77
1629370443890,5.76
1629370443906,5.72
1629370443921,5.62
1629370443937,5.39
1629370443953,4.98
1629370443968,4.44
1629370443984,3.84
1629370444000,3.31
1629370444015,2.97
1629370444031,2.86
1629370444046,2.96
1629370444062,3.18
1629370444078,3.4
1629370444093,3.55
1629370444109,3.55
1629370444125,3.38
1629370444140,3.01
1629370444156,2.48
1629370444171,1.85
1629370444187,1.24
1629370444203,0.76
1629370444218,0.47
1629370444234,0.33
1629370444250,0.23
1629370444265,0.08
1629370444281,-0.18
1629370444296,-0.53
1629370444312,-0.93
1629370444328,-1.33
1629370444343,-1.71
1629370444359,-2.1
1629370444375,-2.53
1629370444390,-3.02
1629370444406,-3.58
1629370444421,-4.18
1629370444437,-4.79
1629370444453,-5.36
1629370444468,-5.83
1629370444484,-6.15
1629370444500,-6.34
1629370444515,-6.49
1629370444531,-6.69
1629370444546,-7.06
1629370444562,-7.63
1629370444578,-8.31
1629370444593,-8.96
1629370444609,-9.4
1629370444625,-9.54
1629370444640,-9.36
1629370444656,-8.92
1629370444671,-8.28
1629370444687,-7.52
1629370444703,-6.63
1629370444718,-5.62
1629370444734,-4.5
1629370444750,-3.32
1629370444765,-2.15
1629370444781,-1.06
1629370444796,-0.09
1629370444812,0.77
1629370444828,1.58
1629370444843,2.38
1629370444859,3.22
1629370444875,4.08
1629370444890,4.89
1629370444906,5.51
1629370444921,5.85
1629370444937,5.89
1629370444953,5.75
1629370444968,5.59
1629370444984,5.61
1629370445000,5.86
1629370445015,6.24
1629370445031,6.57
1629370445046,6.67
1629370445062,6.47
1629370445078,6.05
1629370445093,5.55
1629370445109,5.15
1629370445125,4.91
1629370445140,4.87
1629370445156,4.98
1629370445171,5.19
1629370445187,5.45
1629370445203,5.7
1629370445218,5.81
1629370445234,5.69
1629370445250,5.24
1629370445265,4.43
1629370445281,3.39
1629370445296,2.31
1629370445312,1.43
1629370445328,0.91
1629370445343,0.78
1629370445359,0.92
1629370445375,1.11
1629370445390,1.17
1629370445406,0.98
1629370445421,0.56
1629370445437,0.03
1629370445453,-0.51
1629370445468,-0.99
1629370445484,-1.43
1629370445500,-1.89
1629370445515,-2.4
1629370445531,-2.95
1629370445546,-3.5
1629370445562,-3.98
1629370445578,-4.34
1629370445593,-4.61
1629370445609,-4.83
1629370445625,-5.11
1629370445640,-5.53
1629370445656,-6.12
1629370445671,-6.87
1629370445687,-7.71
1629370445703,-8.51
1629370445718,-9.16
1629370445734,-9.58
1629370445750,-9.77
1629370445765,-9.76
1629370445781,-9.59
1629370445796,-9.23
1629370445812,-8.64
1629370445828,-7.79
1629370445843,-6.72
1629370445859,-5.53
1629370445875,-4.37
1629370445890,-3.37
1629370445906,-2.59
1629370445921,-1.99
1629370445937,-1.45
1629370445953,-0.83
1629370445968,-0.03
1629370445984,0.96
1629370446000,2.04
1629370446015,3.05
1629370446031,3.8
1629370446046,4.17
1629370446062,4.14
1629370446078,3.84
1629370446093,3.45
1629370446109,3.17
1629370446125,3.14
1629370446140,3.4
1629370446156,3.91
1629370446171,4.58
1629370446187,5.3
1629370446203,5.94
1629370446218,6.37
1629370446234,6.5
1629370446250,6.3
1629370446265,5.82
1629370446281,5.2
1629370446296,4.59
1629370446312,4.09
1629370446328,3.76
1629370446343,3.59
1629370446359,3.53
1629370446375,3.51
1629370446390,3.49
1629370446406,3.4
1629370446421,3.21
1629370446437,2.9
1629370446453,2.49
1629370446468,2.03
1629370446484,1.56
1629370446500,1.12
1629370446515,0.67
1629370446531,0.19
1629370446546,-0.34
1629370446562,-0.89
1629370446578,-1.39
1629370446593,-1.8
1629370446609,-2.09
1629370446625,-2.32
1629370446640,-2.55
1629370446656,-2.84
1629370446671,-3.21
1629370446687,-3.64
1629370446703,-4.09
1629370446718,-4.54
1629370446734,-5.01
1629370446750,-5.51
1629370446765,-6.09
1629370446781,-6.74
1629370446796,-7.42
1629370446812,-8.06
1629370446828,-8.6
1629370446843,-8.97
1629370446859,-9.18
1629370446875,-9.23
1629370446890,-9.17
1629370446906,-9.02
1629370446921,-8.79
1629370446937,-8.42
1629370446953,-7.86
1629370446968,-7.08
1629370446984,-6.08
1629370447000,-4.89
1629370447015,-3.57
1629370447031,-2.18
1629370447046,-0.83
1629370447062,0.39
1629370447078,1.39
1629370447093,2.15
1629370447109,2.69
1629370447125,3.11
1629370447140,3.48
1629370447156,3.9
1629370447171,4.36
1629370447187,4.82
1629370447203,5.22
1629370447218,5.5
1629370447234,5.62
1629370447250,5.61
1629370447265,5.56
1629370447281,5.54
1629370447296,5.61
1629370447312,5.78
1629370447328,6.0
1629370447343,6.19
1629370447359,6.29
1629370447375,6.25
1629370447390,6.09
1629370447406,5.87
1629370447421,5.63
1629370447437,5.39
1629370447453,5.15
1629370447468,4.88
1629370447484,4.57
1629370447500,4.18
1629370447515,3.74
1629370447531,3.27
1629370447546,2.81
1629370447562,2.4
1629370447578,2.07
1629370447593,1.8
1629370447609,1.56
1629370447625,1.32
1629370447640,1.06
1629370447656,0.78
1629370447671,0.49
1629370447687,0.18
1629370447703,-0.15
1629370447718,-0.56
1629370447734,-1.07
1629370447750,-1.68
1629370447765,-2.37
1629370447781,-3.1
1629370447796,-3.83
1629370447812,-4.53
1629370447828,-5.17
1629370447843,-5.71
1629370447859,-6.15
1629370447875,-6.52
1629370447890,-6.94
1629370447906,-7.5
1629370447921,-8.26
1629370447937,-9.18
1629370447953,-10.2
1629370447968,-11.22
1629370447984,-12.17
1629370448000,-13.02
1629370448015,-13.73
1629370448031,-14.25
1629370448046,-14.47
1629370448062,-14.31
1629370448078,-13.74
1629370448093,-12.84
1629370448109,-11.72
1629370448125,-10.5
1629370448140,-9.18
1629370448156,-7.71
1629370448171,-5.94
1629370448187,-3.82
1629370448203,-1.4
1629370448218,1.17
1629370448234,3.66
1629370448250,5.87
1629370448265,7.66
1629370448281,8.95
1629370448296,9.79
1629370448312,10.26
1629370448328,10.47
1629370448343,10.54
1629370448359,10.57
1629370448375,10.61
1629370448390,10.73
1629370448406,10.96
1629370448421,11.34
1629370448437,11.91
1629370448453,12.67
1629370448468,13.6
1629370448484,14.6
1629370448500,15.56
1629370448515,16.36
1629370448531,16.93
1629370448546,17.27
1629370448562,17.4
1629370448578,17.36
1629370448593,17.17
1629370448609,16.83
1629370448625,16.3
1629370448640,15.62
1629370448656,14.79
1629370448671,13.88
1629370448687,12.91
1629370448703,11.88
1629370448718,10.67
1629370448734,9.13
1629370448750,7.01
1629370448765,4.12
1629370448781,0.43
1629370448796,-3.89
1629370448812,-8.44
1629370448828,-12.69
1629370448843,-16.11
1629370448859,-18.37
1629370448875,-19.43
1629370448890,-19.53
1629370448906,-19.06
1629370448921,-18.36
1629370448937,-17.66
1629370448953,-16.99
1629370448968,-16.29
1629370448984,-15.51
1629370449000,-14.71
1629370449015,-13.95
1629370449031,-13.33
1629370449046,-12.9
1629370449062,-12.62
1629370449078,-12.43
1629370449093,-12.29
1629370449109,-12.24
1629370449125,-12.32
1629370449140,-12.56
1629370449156,-12.93
1629370449171,-13.3
1629370449187,-13.45
1629370449203,-13.19
1629370449218,-12.38
1629370449234,-10.98
1629370449250,-9.02
1629370449265,-6.63
1629370449281,-3.93
1629370449296,-1.1
1629370449312,1.71
1629370449328,4.34
1629370449343,6.63
1629370449359,8.51
1629370449375,9.91
1629370449390,10.84
1629370449406,11.35
1629370449421,11.51
1629370449437,11.43
1629370449453,11.23
1629370449468,11.05
1629370449484,10.95
1629370449500,10.96
1629370449515,11.04
1629370449531,11.07
1629370449546,10.97
1629370449562,10.72
1629370449578,10.37
1629370449593,9.99
1629370449609,9.67
1629370449625,9.4
1629370449640,9.13
1629370449656,8.79
1629370449671,8.32
1629370449687,7.75
1629370449703,7.12
1629370449718,6.52
1629370449734,6.02
1629370449750,5.63
1629370449765,5.33
1629370449781,5.04
1629370449796,4.73
1629370449812,4.37
1629370449828,3.93
1629370449843,3.44
1629370449859,2.92
1629370449875,2.39
1629370449890,1.89
1629370449906,1.43
1629370449921,1.01
1629370449937,0.62
1629370449953,0.19
1629370449968,-0.31
1629370449984,-0.92
1629370450000,-1.62
1629370450015,-2.4
1629370450031,-3.22
1629370450046,-4.05
1629370450062,-4.85
1629370450078,-5.58
1629370450093,-6.21
1629370450109,-6.71
1629370450125,-7.1
1629370450140,-7.46
1629370450156,-7.89
1629370450171,-8.52
1629370450187,-9.39
1629370450203,-10.43
1629370450218,-11.46
1629370450234,-12.24
1629370450250,-12.52
1629370450265,-12.18
1629370450281,-11.27
1629370450296,-9.97
1629370450312,-8.54
1629370450328,-7.2
1629370450343,-6.05
1629370450359,-5.04
1629370450375,-4.04
1629370450390,-2.96
1629370450406,-1.78
1629370450421,-0.59
1629370450437,0.52
1629370450453,1.47
1629370450468,2.27
1629370450484,2.95
1629370450500,3.58
1629370450515,4.15
1629370450531,4.67
1629370450546,5.11
1629370450562,5.48
1629370450578,5.8
1629370450593,6.13
1629370450609,6.46
1629370450625,6.81
1629370450640,7.15
1629370450656,7.45
1629370450671,7.71
1629370450687,7.9
1629370450703,8.0
1629370450718,7.98
1629370450734,7.82
1629370450750,7.51
1629370450765,7.08
1629370450781,6.56
1629370450796,6.01
1629370450812,5.46
1629370450828,4.92
1629370450843,4.42
1629370450859,3.98
1629370450875,3.59
1629370450890,3.21
1629370450906,2.76
1629370450921,2.18
1629370450937,1.49
1629370450953,0.79
1629370450968,0.23
1629370450984,-0.05
1629370451000,-0.03
1629370451015,0.19
1629370451031,0.42
1629370451046,0.46
1629370451062,0.2
1629370451078,-0.33
1629370451093,-1.02
1629370451109,-1.72
1629370451125,-2.31
1629370451140,-2.77
1629370451156,-3.17
1629370451171,-3.61
1629370451187,-4.17
1629370451203,-4.87
1629370451218,-5.66
1629370451234,-6.44
1629370451250,-7.16
1629370451265,-7.83
1629370451281,-8.56
1629370451296,-9.46
1629370451312,-10.52
1629370451328,-11.55
1629370451343,-12.24
1629370451359,-12.31
1629370451375,-11.6
1629370451390,-10.24
1629370451406,-8.5
1629370451421,-6.74
1629370451437,-5.23
1629370451453,-4.03
1629370451468,-3.1
1629370451484,-2.29
1629370451500,-1.49
1629370451515,-0.66
1629370451531,0.23
1629370451546,1.14
1629370451562,2.05
1629370451578,2.92
1629370451593,3.74
1629370451609,4.43
1629370451625,4.98
1629370451640,5.37
1629370451656,5.63
1629370451671,5.8
1629370451687,5.94
1629370451703,6.08
1629370451718,6.22
1629370451734,6.37
1629370451750,6.5
1629370451765,6.6
1629370451781,6.65
1629370451796,6.67
1629370451812,6.65
1629370451828,6.63
1629370451843,6.63
1629370451859,6.65
1629370451875,6.64
1629370451890,6.54
1629370451906,6.31
1629370451921,5.9
1629370451937,5.32
1629370451953,4.61
1629370451968,3.86
1629370451984,3.17
1629370452000,2.68
1629370452015,2.44
1629370452031,2.45
1629370452046,2.63
1629370452062,2.82
1629370452078,2.84
1629370452093,2.58
1629370452109,2.04
1629370452125,1.3
1629370452140,0.53
1629370452156,-0.13
1629370452171,-0.61
1629370452187,-0.92
1629370452203,-1.2
1629370452218,-1.56
1629370452234,-2.08
1629370452250,-2.76
1629370452265,-3.5
1629370452281,-4.21
1629370452296,-4.83
1629370452312,-5.38
1629370452328,-5.95
1629370452343,-6.6
1629370452359,-7.34
1629370452375,-8.13
1629370452390,-8.9
1629370452406,-9.58
1629370452421,-10.12
1629370452437,-10.5
1629370452453,-10.7
1629370452468,-10.72
1629370452484,-10.54
1629370452500,-10.15
1629370452515,-9.55
1629370452531,-8.72
1629370452546,-7.67
1629370452562,-6.45
1629370452578,-5.11
1629370452593,-3.75
1629370452609,-2.44
1629370452625,-1.18
1629370452640,0.02
1629370452656,1.23
1629370452671,2.46
1629370452687,3.68
1629370452703,4.81
1629370452718,5.75
1629370452734,6.41
1629370452750,6.78
1629370452765,6.91
1629370452781,6.88
1629370452796,6.81
1629370452812,6.82
1629370452828,6.97
1629370452843,7.27
1629370452859,7.66
1629370452875,8.04
1629370452890,8.36
1629370452906,8.61
1629370452921,8.8
1629370452937,8.95
1629370452953,9.02
1629370452968,8.93
1629370452984,8.6
1629370453000,8.05
1629370453015,7.34
1629370453031,6.62
1629370453046,5.98
1629370453062,5.43
1629370453078,4.92
1629370453093,4.42
1629370453109,3.93
1629370453125,3.53
1629370453140,3.29
1629370453156,3.2
1629370453171,3.14
1629370453187,3.0
1629370453203,2.68
1629370453218,2.19
1629370453234,1.63
1629370453250,1.09
1629370453265,0.59
1629370453281,0.08
1629370453296,-0.51
1629370453312,-1.19
1629370453328,-1.9
1629370453343,-2.55
1629370453359,-3.07
1629370453375,-3.5
1629370453390,-3.92
1629370453406,-4.42
1629370453421,-5.06
1629370453437,-5.83
1629370453453,-6.68
1629370453468,-7.58
1629370453484,-8.52
1629370453500,-9.47
1629370453515,-10.4
1629370453531,-11.21
1629370453546,-11.78
1629370453562,-11.96
1629370453578,-11.69
1629370453593,-10.98
1629370453609,-9.96
1629370453625,-8.79
1629370453640,-7.65
1629370453656,-6.59
1629370453671,-5.59
1629370453687,-4.55
1629370453703,-3.35
1629370453718,-2.0
1629370453734,-0.57
1629370453750,0.77
1629370453765,1.87
1629370453781,2.67
1629370453796,3.25
1629370453812,3.73
1629370453828,4.27
1629370453843,4.91
1629370453859,5.65
1629370453875,6.37
1629370453890,6.98
1629370453906,7.41
1629370453921,7.62
1629370453937,7.65
1629370453953,7.55
1629370453968,7.41
1629370453984,7.28
1629370454000,7.24
1629370454015,7.3
1629370454031,7.45
1629370454046,7.66
1629370454062,7.85
1629370454078,7.94
1629370454093,7.85
1629370454109,7.54
1629370454125,6.97
1629370454140,6.2
1629370454156,5.33
1629370454171,4.46
1629370454187,3.69
1629370454203,3.06
1629370454218,2.56
1629370454234,2.16
1629370454250,1.78
1629370454265,1.35
1629370454281,0.82
1629370454296,0.19
1629370454312,-0.5
1629370454328,-1.17
1629370454343,-1.73
1629370454359,-2.11
1629370454375,-2.35
1629370454390,-2.53
1629370454406,-2.76
1629370454421,-3.1
1629370454437,-3.57
1629370454453,-4.08
1629370454468,-4.55
1629370454484,-4.94
1629370454500,-5.27
1629370454515,-5.64
1629370454531,-6.13
1629370454546,-6.78
1629370454562,-7.52
1629370454578,-8.21
1629370454593,-8.74
1629370454609,-9.07
1629370454625,-9.25
1629370454640,-9.38
1629370454656,-9.54
1629370454671,-9.71
1629370454687,-9.79
1629370454703,-9.69
1629370454718,-9.33
1629370454734,-8.77
1629370454750,-8.06
1629370454765,-7.29
1629370454781,-6.41
1629370454796,-5.33
1629370454812,-3.92
1629370454828,-2.16
1629370454843,-0.17
1629370454859,1.81
1629370454875,3.53
1629370454890,4.84
1629370454906,5.69
1629370454921,6.19
1629370454937,6.51
1629370454953,6.77
1629370454968,7.0
1629370454984,7.15
1629370455000,7.15
1629370455015,7.0
1629370455031,6.78
1629370455046,6.62
1629370455062,6.66
1629370455078,6.93
1629370455093,7.38
1629370455109,7.82
1629370455125,8.09
1629370455140,8.06
1629370455156,7.73
1629370455171,7.17
1629370455187,6.53
1629370455203,5.92
1629370455218,5.39
1629370455234,4.96
1629370455250,4.6
1629370455265,4.28
1629370455281,4.0
1629370455296,3.77
1629370455312,3.6
1629370455328,3.48
1629370455343,3.38
1629370455359,3.25
1629370455375,3.04
1629370455390,2.73
1629370455406,2.35
1629370455421,1.92
1629370455437,1.44
1629370455453,0.92
1629370455468,0.34
1629370455484,-0.26
1629370455500,-0.84
1629370455515,-1.32
1629370455531,-1.7
1629370455546,-2.02
1629370455562,-2.4
1629370455578,-2.93
1629370455593,-3.66
1629370455609,-4.53
1629370455625,-5.41
1629370455640,-6.14
1629370455656,-6.66
1629370455671,-6.98
1629370455687,-7.17
1629370455703,-7.36
1629370455718,-7.63
1629370455734,-8.04
1629370455750,-8.64
1629370455765,-9.43
1629370455781,-10.35
1629370455796,-11.28
1629370455812,-12.04
1629370455828,-12.44
1629370455843,-12.32
1629370455859,-11.69
1629370455875,-10.66
1629370455890,-9.42
1629370455906,-8.14
1629370455921,-6.91
1629370455937,-5.71
1629370455953,-4.46
1629370455968,-3.06
1629370455984,-1.47
1629370456000,0.23
1629370456015,1.92
1629370456031,3.45
1629370456046,4.68
1629370456062,5.57
1629370456078,6.12
1629370456093,6.42
1629370456109,6.57
1629370456125,6.69
1629370456140,6.84
1629370456156,7.05
1629370456171,7.33
1629370456187,7.66
1629370456203,8.01
1629370456218,8.35
1629370456234,8.62
1629370456250,8.77
1629370456265,8.78
1629370456281,8.67
1629370456296,8.46
1629370456312,8.22
1629370456328,7.97
1629370456343,7.75
1629370456359,7.51
1629370456375,7.21
1629370456390,6.79
1629370456406,6.24
1629370456421,5.58
1629370456437,4.85
1629370456453,4.12
1629370456468,3.48
1629370456484,2.98
1629370456500,2.67
1629370456515,2.58
1629370456531,2.66
1629370456546,2.81
1629370456562,2.86
1629370456578,2.67
1629370456593,2.14
1629370456609,1.31
1629370456625,0.3
1629370456640,-0.71
1629370456656,-1.56
1629370456671,-2.18
1629370456687,-2.58
1629370456703,-2.83
1629370456718,-3.0
1629370456734,-3.16
1629370456750,-3.35
1629370456765,-3.62
1629370456781,-4.06
1629370456796,-4.7
1629370456812,-5.56
1629370456828,-6.57
1629370456843,-7.62
1629370456859,-8.58
1629370456875,-9.35
1629370456890,-9.92
1629370456906,-10.31
1629370456921,-10.59
1629370456937,-10.8
1629370456953,-10.88
1629370456968,-10.77
1629370456984,-10.39
1629370457000,-9.68
1629370457015,-8.69
1629370457031,-7.46
1629370457046,-6.08
1629370457062,-4.6
1629370457078,-3.08
1629370457093,-1.64
1629370457109,-0.38
1629370457125,0.59
1629370457140,1.2
1629370457156,1.53
1629370457171,1.77
1629370457187,2.11
1629370457203,2.72
1629370457218,3.6
1629370457234,4.63
1629370457250,5.6
1629370457265,6.32
1629370457281,6.68
1629370457296,6.66
1629370457312,6.36
1629370457328,5.96
1629370457343,5.64
1629370457359,5.53
1629370457375,5.64
1629370457390,5.88
1629370457406,6.13
1629370457421,6.24
1629370457437,6.17
1629370457453,5.97
1629370457468,5.76
1629370457484,5.63
1629370457500,5.6
1629370457515,5.57
1629370457531,5.4
1629370457546,5.0
1629370457562,4.36
1629370457578,3.61
1629370457593,2.89
1629370457609,2.32
1629370457625,1.93
1629370457640,1.65
1629370457656,1.34
1629370457671,0.88
1629370457687,0.17
1629370457703,-0.77
1629370457718,-1.84
1629370457734,-2.91
1629370457750,-3.87
1629370457765,-4.68
1629370457781,-5.41
1629370457796,-6.14
1629370457812,-6.9
1629370457828,-7.69
1629370457843,-8.48
1629370457859,-9.25
1629370457875,-10.07
1629370457890,-11.04
1629370457906,-12.27
1629370457921,-13.76
1629370457937,-15.38
1629370457953,-16.95
1629370457968,-18.34
1629370457984,-19.48
1629370458000,-20.43
1629370458015,-21.31
1629370458031,-22.23
1629370458046,-23.27
1629370458062,-24.47
1629370458078,-25.79
1629370458093,-27.11
1629370458109,-28.27
1629370458125,-29.09
1629370458140,-29.46
1629370458156,-29.42
1629370458171,-29.16
1629370458187,-28.9
1629370458203,-28.85
1629370458218,-29.08
1629370458234,-29.57
1629370458250,-30.28
1629370458265,-31.21
1629370458281,-32.36
1629370458296,-33.69
1629370458312,-35.06
1629370458328,-36.25
1629370458343,-37.0
1629370458359,-37.11
1629370458375,-36.47
1629370458390,-34.96
1629370458406,-32.41
1629370458421,-28.61
1629370458437,-23.3
1629370458453,-16.45
1629370458468,-8.27
1629370458484,0.72
1629370458500,9.9
1629370458515,18.71
1629370458531,26.79
1629370458546,34.0
1629370458562,40.37
1629370458578,45.92
1629370458593,50.63
1629370458609,54.43
1629370458625,57.26
1629370458640,59.18
1629370458656,60.36
1629370458671,60.99
1629370458687,61.22
1629370458703,61.08
1629370458718,60.5
1629370458734,59.36
1629370458750,57.54
1629370458765,55.1
1629370458781,52.25
1629370458796,49.39
1629370458812,46.95
1629370458828,45.19
1629370458843,44.16
1629370458859,43.65
1629370458875,43.22
1629370458890,42.47
1629370458906,41.26
1629370458921,39.75
1629370458937,38.42
1629370458953,37.83
1629370458968,38.35
1629370458984,40.09
1629370459000,42.92
1629370459015,46.34
1629370459031,49.7
1629370459046,52.45
1629370459062,54.26
1629370459078,55.11
1629370459093,55.25
1629370459109,54.97
1629370459125,54.65
1629370459140,54.64
1629370459156,54.88
1629370459171,54.89
1629370459187,53.84
1629370459203,50.68
1629370459218,44.64
1629370459234,35.54
1629370459250,23.92
1629370459265,11.26
1629370459281,-0.58
1629370459296,-10.39
1629370459312,-18.01
1629370459328,-24.35
1629370459343,-30.73
1629370459359,-37.94
1629370459375,-44.83
1629370459390,-50.62
1629370459406,-55.28
1629370459421,-58.32
1629370459437,-60.03
1629370459453,-61.19
1629370459468,-62.36
1629370459484,-63.51
1629370459500,-64.04
1629370459515,-63.27
1629370459531,-61.11
1629370459546,-57.97
1629370459562,-54.52
1629370459578,-51.54
1629370459593,-49.34
1629370459609,-47.67
1629370459625,-45.96
1629370459640,-43.66
1629370459656,-40.61
1629370459671,-37.13
1629370459687,-33.64
1629370459703,-30.44
1629370459718,-27.73
1629370459734,-25.53
1629370459750,-23.71
1629370459765,-22.11
1629370459781,-20.56
1629370459796,-18.93
1629370459812,-17.17
1629370459828,-15.23
1629370459843,-13.03
1629370459859,-10.74
1629370459875,-8.61
1629370459890,-6.95
1629370459906,-5.97
1629370459921,-5.73
1629370459937,-6.1
1629370459953,-6.85
1629370459968,-7.64
1629370459984,-8.16
1629370460000,-8.27
1629370460015,-8.02
1629370460031,-7.55
1629370460046,-7.1
1629370460062,-6.89
1629370460078,-7.1
1629370460093,-7.82
1629370460109,-9.01
1629370460125,-10.51
1629370460140,-12.12
1629370460156,-13.65
1629370460171,-14.98
1629370460187,-16.02
1629370460203,-16.72
1629370460218,-16.95
1629370460234,-16.6
1629370460250,-15.61
1629370460265,-14.08
1629370460281,-12.28
1629370460296,-10.59
1629370460312,-9.31
1629370460328,-8.47
1629370460343,-7.87
1629370460359,-7.13
1629370460375,-5.96
1629370460390,-4.29
1629370460406,-2.33
1629370460421,-0.39
1629370460437,1.21
1629370460453,2.33
1629370460468,2.94
1629370460484,3.1
1629370460500,2.86
1629370460515,2.26
1629370460531,1.35
1629370460546,0.28
1629370460562,-0.79
1629370460578,-1.62
1629370460593,-2.03
1629370460609,-1.92
1629370460625,-1.28
1629370460640,-0.18
1629370460656,1.29
1629370460671,3.03
1629370460687,4.93
1629370460703,6.9
1629370460718,8.81
1629370460734,10.54
1629370460750,11.96
1629370460765,12.96
1629370460781,13.45
1629370460796,13.42
1629370460812,12.96
1629370460828,12.23
1629370460843,11.38
1629370460859,10.57
1629370460875,9.87
1629370460890,9.26
1629370460906,8.75
1629370460921,8.34
1629370460937,8.1
1629370460953,8.12
1629370460968,8.47
1629370460984,9.08
1629370461000,9.83
1629370461015,10.47
1629370461031,10.78
1629370461046,10.66
1629370461062,10.13
1629370461078,9.33
1629370461093,8.45
1629370461109,7.63
1629370461125,6.92
1629370461140,6.25
1629370461156,5.53
1629370461171,4.62
1629370461187,3.48
1629370461203,2.14
1629370461218,0.69
1629370461234,-0.71
1629370461250,-1.91
1629370461265,-2.74
1629370461281,-3.16
1629370461296,-3.16
1629370461312,-2.83
1629370461328,-2.28
1629370461343,-1.6
1629370461359,-0.8
1629370461375,0.15
1629370461390,1.26
1629370461406,2.46
1629370461421,3.64
1629370461437,4.65
1629370461453,5.42
1629370461468,6.0
1629370461484,6.49
1629370461500,6.98
1629370461515,7.45
1629370461531,7.78
1629370461546,7.82
1629370461562,7.51
1629370461578,6.92
1629370461593,6.24
1629370461609,5.69
1629370461625,5.42
1629370461640,5.47
1629370461656,5.77
1629370461671,6.16
1629370461687,6.5
1629370461703,6.66
1629370461718,6.61
1629370461734,6.39
1629370461750,6.08
1629370461765,5.79
1629370461781,5.61
1629370461796,5.6
1629370461812,5.81
1629370461828,6.26
1629370461843,6.91
1629370461859,7.61
1629370461875,8.16
1629370461890,8.29
1629370461906,7.78
1629370461921,6.57
1629370461937,4.81
1629370461953,2.84
1629370461968,1.06
1629370461984,-0.22
1629370462000,-0.91
1629370462015,-1.13
1629370462031,-1.14
1629370462046,-1.21
1629370462062,-1.48
1629370462078,-1.97
1629370462093,-2.6
1629370462109,-3.25
1629370462125,-3.89
1629370462140,-4.53
1629370462156,-5.24
1629370462171,-6.04
1629370462187,-6.9
1629370462203,-7.72
1629370462218,-8.39
1629370462234,-8.88
1629370462250,-9.24
1629370462265,-9.54
1629370462281,-9.89
1629370462296,-10.29
1629370462312,-10.67
1629370462328,-10.89
1629370462343,-10.85
1629370462359,-10.49
1629370462375,-9.85
1629370462390,-8.99
1629370462406,-7.98
1629370462421,-6.87
1629370462437,-5.69
1629370462453,-4.44
1629370462468,-3.15
1629370462484,-1.81
1629370462500,-0.48
1629370462515,0.8
1629370462531,1.99
1629370462546,3.05
1629370462562,3.96
1629370462578,4.7
1629370462593,5.29
1629370462609,5.72
1629370462625,5.99
1629370462640,6.09
1629370462656,6.05
1629370462671,5.95
1629370462687,5.93
1629370462703,6.09
1629370462718,6.46
1629370462734,6.92
1629370462750,7.24
1629370462765,7.23
1629370462781,6.84
1629370462796,6.19
1629370462812,5.56
1629370462828,5.17
1629370462843,5.14
1629370462859,5.39
1629370462875,5.74
1629370462890,5.92
1629370462906,5.83
1629370462921,5.42
1629370462937,4.79
1629370462953,4.03
1629370462968,3.25
1629370462984,2.56
1629370463000,2.06
1629370463015,1.82
1629370463031,1.84
1629370463046,2.0
1629370463062,2.1
1629370463078,1.93
1629370463093,1.41
1629370463109,0.59
1629370463125,-0.37
1629370463140,-1.29
1629370463156,-2.05
1629370463171,-2.66
1629370463187,-3.13
1629370463203,-3.5
1629370463218,-3.78
1629370463234,-3.91
1629370463250,-3.91
1629370463265,-3.85
1629370463281,-3.88
1629370463296,-4.1
1629370463312,-4.57
1629370463328,-5.2
1629370463343,-5.9
1629370463359,-6.56
1629370463375,-7.15
1629370463390,-7.73
1629370463406,-8.33
1629370463421,-8.93
1629370463437,-9.39
1629370463453,-9.51
1629370463468,-9.15
1629370463484,-8.3
1629370463500,-7.1
1629370463515,-5.77
1629370463531,-4.49
1629370463546,-3.35
1629370463562,-2.33
1629370463578,-1.34
1629370463593,-0.3
1629370463609,0.81
1629370463625,1.94
1629370463640,3.03
1629370463656,4.02
1629370463671,4.82
1629370463687,5.45
1629370463703,5.89
1629370463718,6.24
1629370463734,6.59
1629370463750,7.02
1629370463765,7.56
1629370463781,8.11
1629370463796,8.53
1629370463812,8.7
1629370463828,8.62
1629370463843,8.39
1629370463859,8.18
1629370463875,8.11
1629370463890,8.16
1629370463906,8.25
1629370463921,8.24
1629370463937,8.08
1629370463953,7.82
1629370463968,7.56
1629370463984,7.36
1629370464000,7.19
1629370464015,6.93
1629370464031,6.45
1629370464046,5.68
1629370464062,4.66
1629370464078,3.55
1629370464093,2.52
1629370464109,1.68
1629370464125,1.05
1629370464140,0.56
1629370464156,0.08
1629370464171,-0.48
1629370464187,-1.17
1629370464203,-1.92
1629370464218,-2.63
1629370464234,-3.2
1629370464250,-3.58
1629370464265,-3.79
1629370464281,-3.93
1629370464296,-4.13
1629370464312,-4.5
1629370464328,-5.07
1629370464343,-5.77
1629370464359,-6.5
1629370464375,-7.17
1629370464390,-7.75
1629370464406,-8.31
1629370464421,-8.94
1629370464437,-9.73
1629370464453,-10.66
1629370464468,-11.59
1629370464484,-12.33
1629370464500,-12.74
1629370464515,-12.78
1629370464531,-12.54
1629370464546,-12.14
1629370464562,-11.67
1629370464578,-11.14
1629370464593,-10.45
1629370464609,-9.49
1629370464625,-8.2
1629370464640,-6.63
1629370464656,-4.93
1629370464671,-3.24
1629370464687,-1.68
1629370464703,-0.26
1629370464718,1.08
1629370464734,2.39
1629370464750,3.66
1629370464765,4.78
1629370464781,5.64
1629370464796,6.1
1629370464812,6.17
1629370464828,5.94
1629370464843,5.6
1629370464859,5.37
1629370464875,5.38
1629370464890,5.66
1629370464906,6.13
1629370464921,6.65
1629370464937,7.12
1629370464953,7.45
1629370464968,7.65
1629370464984,7.75
1629370465000,7.78
1629370465015,7.75
1629370465031,7.63
1629370465046,7.35
1629370465062,6.88
1629370465078,6.26
1629370465093,5.53
1629370465109,4.83
1629370465125,4.24
1629370465140,3.81
1629370465156,3.46
1629370465171,3.09
1629370465187,2.61
1629370465203,2.04
1629370465218,1.52
1629370465234,1.22
1629370465250,1.22
1629370465265,1.41
1629370465281,1.52
1629370465296,1.27
1629370465312,0.5
1629370465328,-0.72
1629370465343,-2.13
1629370465359,-3.42
1629370465375,-4.42
1629370465390,-5.09
1629370465406,-5.54
1629370465421,-5.87
1629370465437,-6.13
1629370465453,-6.34
1629370465468,-6.55
1629370465484,-6.83
1629370465500,-7.28
1629370465515,-7.94
1629370465531,-8.69
1629370465546,-9.34
1629370465562,-9.67
1629370465578,-9.55
1629370465593,-8.96
1629370465609,-7.94
1629370465625,-6.62
1629370465640,-5.11
1629370465656,-3.62
1629370465671,-2.33
1629370465687,-1.37
1629370465703,-0.74
1629370465718,-0.26
1629370465734,0.3
1629370465750,1.15
1629370465765,2.33
1629370465781,3.72
1629370465796,5.09
1629370465812,6.26
1629370465828,7.16
1629370465843,7.85
1629370465859,8.4
1629370465875,8.85
1629370465890,9.12
1629370465906,9.13
1629370465921,8.84
1629370465937,8.32
1629370465953,7.76
1629370465968,7.37
1629370465984,7.27
1629370466000,7.47
1629370466015,7.83
1629370466031,8.14
1629370466046,8.23
1629370466062,8.03
1629370466078,7.59
1629370466093,7.0
1629370466109,6.35
1629370466125,5.68
1629370466140,4.98
1629370466156,4.28
1629370466171,3.65
1629370466187,3.17
1629370466203,2.93
1629370466218,2.92
1629370466234,3.0
1629370466250,2.96
1629370466265,2.64
1629370466281,2.0
1629370466296,1.09
1629370466312,0.1
1629370466328,-0.81
1629370466343,-1.58
1629370466359,-2.2
1629370466375,-2.75
1629370466390,-3.3
1629370466406,-3.86
1629370466421,-4.42
1629370466437,-4.94
1629370466453,-5.38
1629370466468,-5.73
1629370466484,-6.0
1629370466500,-6.25
1629370466515,-6.53
1629370466531,-6.95
1629370466546,-7.61
1629370466562,-8.55
1629370466578,-9.74
1629370466593,-11.0
1629370466609,-12.11
1629370466625,-12.87
1629370466640,-13.2
1629370466656,-13.14
1629370466671,-12.81
1629370466687,-12.31
1629370466703,-11.65
1629370466718,-10.8
1629370466734,-9.71
1629370466750,-8.42
1629370466765,-7.01
1629370466781,-5.64
1629370466796,-4.38
1629370466812,-3.21
1629370466828,-2.02
1629370466843,-0.67
1629370466859,0.85
1629370466875,2.47
1629370466890,3.99
1629370466906,5.22
1629370466921,6.06
1629370466937,6.54
1629370466953,6.76
1629370466968,6.88
1629370466984,6.98
1629370467000,7.07
1629370467015,7.08
1629370467031,6.97
1629370467046,6.75
1629370467062,6.5
1629370467078,6.35
1629370467093,6.42
1629370467109,6.72
1629370467125,7.15
1629370467140,7.55
1629370467156,7.73
1629370467171,7.61
1629370467187,7.24
1629370467203,6.75
1629370467218,6.32
1629370467234,6.07
1629370467250,6.02
1629370467265,6.08
1629370467281,6.14
1629370467296,6.07
1629370467312,5.8
1629370467328,5.34
1629370467343,4.77
1629370467359,4.17
1629370467375,3.63
1629370467390,3.22
1629370467406,2.9
1629370467421,2.61
1629370467437,2.28
1629370467453,1.83
1629370467468,1.26
1629370467484,0.62
1629370467500,-0.03
1629370467515,-0.65
1629370467531,-1.23
1629370467546,-1.8
1629370467562,-2.4
1629370467578,-3.02
1629370467593,-3.65
1629370467609,-4.24
1629370467625,-4.75
1629370467640,-5.16
1629370467656,-5.49
1629370467671,-5.78
1629370467687,-6.09
1629370467703,-6.49
1629370467718,-7.0
1629370467734,-7.62
1629370467750,-8.31
1629370467765,-8.98
1629370467781,-9.52
1629370467796,-9.84
1629370467812,-9.88
1629370467828,-9.63
1629370467843,-9.1
1629370467859,-8.28
1629370467875,-7.15
1629370467890,-5.68
1629370467906,-3.94
1629370467921,-2.09
1629370467937,-0.36
1629370467953,1.01
1629370467968,1.86
1629370467984,2.25
1629370468000,2.35
1629370468015,2.38
1629370468031,2.5
1629370468046,2.75
1629370468062,3.05
1629370468078,3.31
1629370468093,3.49
1629370468109,3.61
1629370468125,3.72
1629370468140,3.82
1629370468156,3.87
1629370468171,3.82
1629370468187,3.63
1629370468203,3.32
1629370468218,2.99
1629370468234,2.76
1629370468250,2.71
1629370468265,2.84
1629370468281,3.05
1629370468296,3.21
1629370468312,3.17
1629370468328,2.91
1629370468343,2.47
1629370468359,2.01
1629370468375,1.67
1629370468390,1.52
1629370468406,1.54
1629370468421,1.59
1629370468437,1.55
1629370468453,1.34
1629370468468,0.97
1629370468484,0.52
1629370468500,0.07
1629370468515,-0.32
1629370468531,-0.64
1629370468546,-0.92
1629370468562,-1.22
1629370468578,-1.55
1629370468593,-1.89
1629370468609,-2.25
1629370468625,-2.63
1629370468640,-3.07
1629370468656,-3.61
1629370468671,-4.3
1629370468687,-5.1
1629370468703,-5.95
1629370468718,-6.74
1629370468734,-7.39
1629370468750,-7.86
1629370468765,-8.21
1629370468781,-8.51
1629370468796,-8.84
1629370468812,-9.22
1629370468828,-9.58
1629370468843,-9.8
1629370468859,-9.72
1629370468875,-9.25
1629370468890,-8.39
1629370468906,-7.24
1629370468921,-5.96
1629370468937,-4.69
1629370468953,-3.5
1629370468968,-2.35
1629370468984,-1.16
1629370469000,0.12
1629370469015,1.47
1629370469031,2.75
1629370469046,3.81
1629370469062,4.56
1629370469078,5.02
1629370469093,5.28
1629370469109,5.48
1629370469125,5.68
1629370469140,5.87
1629370469156,5.99
1629370469171,6.03
1629370469187,6.04
1629370469203,6.13
1629370469218,6.32
1629370469234,6.57
1629370469250,6.74
1629370469265,6.69
1629370469281,6.37
1629370469296,5.85
1629370469312,5.32
1629370469328,4.96
1629370469343,4.86
1629370469359,5.0
1629370469375,5.24
1629370469390,5.46
1629370469406,5.52
1629370469421,5.4
1629370469437,5.09
1629370469453,4.6
1629370469468,3.94
1629370469484,3.13
1629370469500,2.23
1629370469515,1.33
1629370469531,0.57
1629370469546,0.05
1629370469562,-0.21
1629370469578,-0.28
1629370469593,-0.3
1629370469609,-0.4
1629370469625,-0.68
1629370469640,-1.09
1629370469656,-1.59
1629370469671,-2.11
1629370469687,-2.67
1629370469703,-3.31
1629370469718,-4.07
1629370469734,-4.94
1629370469750,-5.84
1629370469765,-6.7
1629370469781,-7.49
1629370469796,-8.23
1629370469812,-8.93
1629370469828,-9.56
1629370469843,-10.05
1629370469859,-10.34
1629370469875,-10.43
1629370469890,-10.4
1629370469906,-10.35
1629370469921,-10.33
1629370469937,-10.25
1629370469953,-9.92
1629370469968,-9.13
1629370469984,-7.81
1629370470000,-6.09
1629370470015,-4.2
1629370470031,-2.39
1629370470046,-0.82
1629370470062,0.49
1629370470078,1.59
1629370470093,2.56
1629370470109,3.4
1629370470125,4.09
1629370470140,4.57
1629370470156,4.88
1629370470171,5.11
1629370470187,5.39
1629370470203,5.84
1629370470218,6.44
1629370470234,7.07
1629370470250,7.56
1629370470265,7.77
1629370470281,7.69
1629370470296,7.41
1629370470312,7.1
1629370470328,6.85
1629370470343,6.67
1629370470359,6.49
1629370470375,6.22
1629370470390,5.83
1629370470406,5.4
1629370470421,5.06
1629370470437,4.91
1629370470453,4.96
1629370470468,5.12
1629370470484,5.24
1629370470500,5.18
1629370470515,4.89
1629370470531,4.41
1629370470546,3.83
1629370470562,3.22
1629370470578,2.65
1629370470593,2.15
1629370470609,1.73
1629370470625,1.4
1629370470640,1.13
1629370470656,0.91
1629370470671,0.66
1629370470687,0.31
1629370470703,-0.25
1629370470718,-1.02
1629370470734,-1.98
1629370470750,-3.01
1629370470765,-3.93
1629370470781,-4.62
1629370470796,-5.03
1629370470812,-5.24
1629370470828,-5.38
1629370470843,-5.61
1629370470859,-6.01
1629370470875,-6.6
1629370470890,-7.32
1629370470906,-8.08
1629370470921,-8.83
1629370470937,-9.53
1629370470953,-10.14
1629370470968,-10.59
1629370470984,-10.81
1629370471000,-10.73
1629370471015,-10.36
1629370471031,-9.74
1629370471046,-8.93
1629370471062,-7.95
1629370471078,-6.81
1629370471093,-5.53
1629370471109,-4.16
1629370471125,-2.78
1629370471140,-1.49
1629370471156,-0.35
1629370471171,0.66
1629370471187,1.62
1629370471203,2.59
1629370471218,3.58
1629370471234,4.55
1629370471250,5.43
1629370471265,6.17
1629370471281,6.73
1629370471296,7.09
1629370471312,7.26
1629370471328,7.28
1629370471343,7.2
1629370471359,7.11
1629370471375,7.05
1629370471390,7.04
1629370471406,7.04
1629370471421,7.0
1629370471437,6.88
1629370471453,6.69
1629370471468,6.48
1629370471484,6.29
1629370471500,6.14
1629370471515,5.99
1629370471531,5.76
1629370471546,5.37
1629370471562,4.76
1629370471578,3.95
1629370471593,3.02
1629370471609,2.14
1629370471625,1.48
1629370471640,1.19
1629370471656,1.29
1629370471671,1.7
1629370471687,2.22
1629370471703,2.58
1629370471718,2.58
1629370471734,2.14
1629370471750,1.3
1629370471765,0.25
1629370471781,-0.81
1629370471796,-1.73
1629370471812,-2.42
1629370471828,-2.96
1629370471843,-3.46
1629370471859,-4.03
1629370471875,-4.73
1629370471890,-5.51
1629370471906,-6.29
1629370471921,-6.98
1629370471937,-7.58
1629370471953,-8.15
1629370471968,-8.77
1629370471984,-9.46
1629370472000,-10.14
1629370472015,-10.65
1629370472031,-10.86
1629370472046,-10.68
1629370472062,-10.17
1629370472078,-9.45
1629370472093,-8.63
1629370472109,-7.75
1629370472125,-6.8
1629370472140,-5.73
1629370472156,-4.54
1629370472171,-3.26
1629370472187,-1.95
1629370472203,-0.65
1629370472218,0.66
1629370472234,1.99
1629370472250,3.35
1629370472265,4.65
1629370472281,5.78
1629370472296,6.59
1629370472312,7.01
1629370472328,7.07
1629370472343,6.87
1629370472359,6.55
1629370472375,6.25
1629370472390,6.05
1629370472406,5.96
1629370472421,5.93
1629370472437,5.93
1629370472453,5.93
1629370472468,5.96
1629370472484,6.06
1629370472500,6.23
1629370472515,6.44
1629370472531,6.6
1629370472546,6.57
1629370472562,6.25
1629370472578,5.59
1629370472593,4.7
1629370472609,3.74
1629370472625,2.95
1629370472640,2.45
1629370472656,2.24
1629370472671,2.2
1629370472687,2.13
1629370472703,1.91
1629370472718,1.51
1629370472734,1.0
1629370472750,0.47
1629370472765,-0.04
1629370472781,-0.55
1629370472796,-1.08
1629370472812,-1.65
1629370472828,-2.2
1629370472843,-2.66
1629370472859,-2.98
1629370472875,-3.2
1629370472890,-3.44
1629370472906,-3.79
1629370472921,-4.33
1629370472937,-5.05
1629370472953,-5.9
1629370472968,-6.82
1629370472984,-7.78
1629370473000,-8.73
1629370473015,-9.63
1629370473031,-10.35
1629370473046,-10.77
1629370473062,-10.77
1629370473078,-10.39
1629370473093,-9.71
1629370473109,-8.93
1629370473125,-8.18
1629370473140,-7.46
1629370473156,-6.68
1629370473171,-5.66
1629370473187,-4.28
1629370473203,-2.58
1629370473218,-0.71
1629370473234,1.08
1629370473250,2.57
1629370473265,3.65
1629370473281,4.35
1629370473296,4.79
1629370473312,5.15
1629370473328,5.53
1629370473343,5.99
1629370473359,6.46
1629370473375,6.86
1629370473390,7.11
1629370473406,7.2
1629370473421,7.14
1629370473437,6.94
1629370473453,6.62
1629370473468,6.14
1629370473484,5.52
1629370473500,4.85
1629370473515,4.29
1629370473531,4.05
1629370473546,4.23
1629370473562,4.76
1629370473578,5.44
1629370473593,5.99
1629370473609,6.2
1629370473625,6.01
1629370473640,5.49
1629370473656,4.8
1629370473671,4.04
1629370473687,3.31
1629370473703,2.67
1629370473718,2.17
1629370473734,1.85
1629370473750,1.68
1629370473765,1.54
1629370473781,1.25
1629370473796,0.68
1629370473812,-0.18
1629370473828,-1.22
1629370473843,-2.2
1629370473859,-2.93
1629370473875,-3.33
1629370473890,-3.46
1629370473906,-3.45
1629370473921,-3.45
1629370473937,-3.58
1629370473953,-3.9
1629370473968,-4.41
1629370473984,-5.1
1629370474000,-5.94
1629370474015,-6.85
1629370474031,-7.74
1629370474046,-8.51
1629370474062,-9.11
1629370474078,-9.52
1629370474093,-9.8
1629370474109,-10.02
1629370474125,-10.22
1629370474140,-10.36
1629370474156,-10.36
1629370474171,-10.06
1629370474187,-9.35
1629370474203,-8.22
1629370474218,-6.74
1629370474234,-5.08
1629370474250,-3.42
1629370474265,-1.89
1629370474281,-0.54
1629370474296,0.68
1629370474312,1.83
1629370474328,2.99
1629370474343,4.18
1629370474359,5.39
1629370474375,6.55
1629370474390,7.58
1629370474406,8.35
1629370474421,8.79
1629370474437,8.91
1629370474453,8.77
1629370474468,8.53
1629370474484,8.31
1629370474500,8.25
1629370474515,8.35
1629370474531,8.58
1629370474546,8.85
1629370474562,9.08
1629370474578,9.23
1629370474593,9.28
1629370474609,9.21
1629370474625,8.98
1629370474640,8.57
1629370474656,7.93
1629370474671,7.05
1629370474687,5.98
1629370474703,4.81
1629370474718,3.66
1629370474734,2.61
1629370474750,1.67
1629370474765,0.79
1629370474781,-0.14
1629370474796,-1.17
1629370474812,-2.29
1629370474828,-3.36
1629370474843,-4.23
1629370474859,-4.8
1629370474875,-5.05
1629370474890,-5.06
1629370474906,-4.96
1629370474921,-4.81
1629370474937,-4.68
1629370474953,-4.53
1629370474968,-4.36
1629370474984,-4.2
1629370475000,-4.09
1629370475015,-4.07
1629370475031,-4.17
1629370475046,-4.35
1629370475062,-4.58
1629370475078,-4.83
1629370475093,-5.09
1629370475109,-5.36
1629370475125,-5.67
1629370475140,-6.03
1629370475156,-6.43
1629370475171,-6.85
1629370475187,-7.25
1629370475203,-7.56
1629370475218,-7.71
1629370475234,-7.6
1629370475250,-7.2
1629370475265,-6.5
1629370475281,-5.54
1629370475296,-4.4
1629370475312,-3.16
1629370475328,-1.89
1629370475343,-0.63
1629370475359,0.56
1629370475375,1.63
1629370475390,2.57
1629370475406,3.39
1629370475421,4.1
1629370475437,4.77
1629370475453,5.44
1629370475468,6.1
1629370475484,6.68
1629370475500,7.1
1629370475515,7.28
1629370475531,7.19
1629370475546,6.86
1629370475562,6.39
1629370475578,5.91
1629370475593,5.52
1629370475609,5.27
1629370475625,5.18
1629370475640,5.2
1629370475656,5.24
1629370475671,5.22
1629370475687,5.13
1629370475703,4.94
1629370475718,4.72
1629370475734,4.52
1629370475750,4.39
1629370475765,4.36
1629370475781,4.37
1629370475796,4.38
1629370475812,4.34
1629370475828,4.23
1629370475843,4.07
1629370475859,3.83
1629370475875,3.5
1629370475890,3.03
1629370475906,2.43
1629370475921,1.72
1629370475937,0.98
1629370475953,0.31
1629370475968,-0.25
1629370475984,-0.72
1629370476000,-1.18
1629370476015,-1.72
1629370476031,-2.39
1629370476046,-3.2
1629370476062,-4.11
1629370476078,-5.09
1629370476093,-6.1
1629370476109,-7.15
1629370476125,-8.22
1629370476140,-9.27
1629370476156,-10.27
1629370476171,-11.13
1629370476187,-11.77
1629370476203,-12.06
1629370476218,-11.92
1629370476234,-11.32
1629370476250,-10.29
1629370476265,-9.01
1629370476281,-7.67
1629370476296,-6.51
1629370476312,-5.61
1629370476328,-4.91
1629370476343,-4.23
1629370476359,-3.34
1629370476375,-2.09
1629370476390,-0.52
1629370476406,1.21
1629370476421,2.85
1629370476437,4.2
1629370476453,5.18
1629370476468,5.84
1629370476484,6.26
1629370476500,6.54
1629370476515,6.69
1629370476531,6.71
1629370476546,6.59
1629370476562,6.4
1629370476578,6.23
1629370476593,6.19
1629370476609,6.33
1629370476625,6.57
1629370476640,6.84
1629370476656,7.0
1629370476671,7.04
1629370476687,6.94
1629370476703,6.76
1629370476718,6.51
1629370476734,6.17
1629370476750,5.73
1629370476765,5.24
1629370476781,4.8
1629370476796,4.51
1629370476812,4.42
1629370476828,4.44
1629370476843,4.39
1629370476859,4.11
1629370476875,3.47
1629370476890,2.52
1629370476906,1.44
1629370476921,0.42
1629370476937,-0.42
1629370476953,-1.06
1629370476968,-1.55
1629370476984,-1.99
1629370477000,-2.42
1629370477015,-2.87
1629370477031,-3.32
1629370477046,-3.78
1629370477062,-4.23
1629370477078,-4.68
1629370477093,-5.08
1629370477109,-5.41
1629370477125,-5.66
1629370477140,-5.84
1629370477156,-6.01
1629370477171,-6.27
1629370477187,-6.76
1629370477203,-7.53
1629370477218,-8.56
1629370477234,-9.65
1629370477250,-10.58
1629370477265,-11.09
1629370477281,-11.02
1629370477296,-10.38
1629370477312,-9.28
1629370477328,-7.95
1629370477343,-6.55
1629370477359,-5.21
1629370477375,-3.94
1629370477390,-2.74
1629370477406,-1.59
1629370477421,-0.46
1629370477437,0.64
1629370477453,1.73
1629370477468,2.8
1629370477484,3.85
1629370477500,4.86
1629370477515,5.76
1629370477531,6.5
1629370477546,7.01
1629370477562,7.26
1629370477578,7.27
1629370477593,7.13
1629370477609,6.9
1629370477625,6.67
1629370477640,6.51
1629370477656,6.44
1629370477671,6.42
1629370477687,6.4
1629370477703,6.28
1629370477718,6.0
1629370477734,5.56
1629370477750,4.98
1629370477765,4.4
1629370477781,3.92
1629370477796,3.64
1629370477812,3.57
1629370477828,3.62
1629370477843,3.67
1629370477859,3.6
1629370477875,3.39
1629370477890,3.07
1629370477906,2.73
1629370477921,2.44
1629370477937,2.2
1629370477953,1.97
1629370477968,1.67
1629370477984,1.25
1629370478000,0.76
1629370478015,0.27
1629370478031,-0.09
1629370478046,-0.27
1629370478062,-0.3
1629370478078,-0.32
1629370478093,-0.52
1629370478109,-1.01
1629370478125,-1.8
1629370478140,-2.81
1629370478156,-3.88
1629370478171,-4.94
1629370478187,-5.96
1629370478203,-6.93
1629370478218,-7.88
1629370478234,-8.73
1629370478250,-9.41
1629370478265,-9.88
1629370478281,-10.15
1629370478296,-10.33
1629370478312,-10.52
1629370478328,-10.77
1629370478343,-11.0
1629370478359,-11.1
1629370478375,-10.91
1629370478390,-10.34
1629370478406,-9.37
1629370478421,-8.05
1629370478437,-6.45
1629370478453,-4.65
1629370478468,-2.77
1629370478484,-0.93
1629370478500,0.74
1629370478515,2.17
1629370478531,3.36
1629370478546,4.38
1629370478562,5.32
1629370478578,6.21
1629370478593,6.99
1629370478609,7.52
1629370478625,7.72
1629370478640,7.58
1629370478656,7.25
1629370478671,6.91
1629370478687,6.76
1629370478703,6.85
1629370478718,7.15
1629370478734,7.52
1629370478750,7.81
1629370478765,7.93
1629370478781,7.87
1629370478796,7.69
1629370478812,7.49
1629370478828,7.33
1629370478843,7.21
1629370478859,7.1
1629370478875,6.89
1629370478890,6.52
1629370478906,5.98
1629370478921,5.29
1629370478937,4.56
1629370478953,3.86
1629370478968,3.27
1629370478984,2.83
1629370479000,2.54
1629370479015,2.35
1629370479031,2.2
1629370479046,1.98
1629370479062,1.59
1629370479078,1.01
1629370479093,0.25
1629370479109,-0.6
1629370479125,-1.41
1629370479140,-2.08
1629370479156,-2.54
1629370479171,-2.83
1629370479187,-3.0
1629370479203,-3.18
1629370479218,-3.45
1629370479234,-3.88
1629370479250,-4.53
1629370479265,-5.38
1629370479281,-6.43
1629370479296,-7.64
1629370479312,-8.92
1629370479328,-10.18
1629370479343,-11.27
1629370479359,-12.09
1629370479375,-12.55
1629370479390,-12.61
1629370479406,-12.28
1629370479421,-11.63
1629370479437,-10.74
1629370479453,-9.69
1629370479468,-8.55
1629370479484,-7.36
1629370479500,-6.12
1629370479515,-4.8
1629370479531,-3.36
1629370479546,-1.79
1629370479562,-0.1
1629370479578,1.56
1629370479593,3.05
1629370479609,4.19
1629370479625,4.94
1629370479640,5.39
1629370479656,5.74
1629370479671,6.16
1629370479687,6.72
1629370479703,7.37
1629370479718,7.91
1629370479734,8.2
1629370479750,8.17
1629370479765,7.87
1629370479781,7.43
1629370479796,6.96
1629370479812,6.53
1629370479828,6.17
1629370479843,5.87
1629370479859,5.66
1629370479875,5.53
1629370479890,5.47
1629370479906,5.43
1629370479921,5.34
1629370479937,5.19
1629370479953,4.98
1629370479968,4.81
1629370479984,4.72
1629370480000,4.72
1629370480015,4.72
1629370480031,4.61
1629370480046,4.27
1629370480062,3.69
1629370480078,2.94
1629370480093,2.13
1629370480109,1.37
1629370480125,0.7
1629370480140,0.11
1629370480156,-0.42
1629370480171,-0.94
1629370480187,-1.45
1629370480203,-1.96
1629370480218,-2.51
1629370480234,-3.11
1629370480250,-3.8
1629370480265,-4.6
1629370480281,-5.47
1629370480296,-6.37
1629370480312,-7.2
1629370480328,-7.91
1629370480343,-8.47
1629370480359,-8.88
1629370480375,-9.21
1629370480390,-9.55
1629370480406,-9.96
1629370480421,-10.43
1629370480437,-10.87
1629370480453,-11.14
1629370480468,-11.11
1629370480484,-10.72
1629370480500,-10.01
1629370480515,-9.05
1629370480531,-7.92
1629370480546,-6.67
1629370480562,-5.31
1629370480578,-3.82
1629370480593,-2.19
1629370480609,-0.46
1629370480625,1.3
1629370480640,3.0
1629370480656,4.56
1629370480671,5.88
1629370480687,6.86
1629370480703,7.43
1629370480718,7.58
1629370480734,7.38
1629370480750,7.0
1629370480765,6.63
1629370480781,6.43
1629370480796,6.45
1629370480812,6.64
1629370480828,6.88
1629370480843,7.07
1629370480859,7.15
1629370480875,7.12
1629370480890,7.03
1629370480906,6.88
1629370480921,6.62
1629370480937,6.26
1629370480953,5.81
1629370480968,5.36
1629370480984,5.02
1629370481000,4.82
1629370481015,4.73
1629370481031,4.66
1629370481046,4.54
1629370481062,4.34
1629370481078,4.1
1629370481093,3.86
1629370481109,3.59
1629370481125,3.21
1629370481140,2.63
1629370481156,1.78
1629370481171,0.72
1629370481187,-0.4
1629370481203,-1.37
1629370481218,-2.03
1629370481234,-2.32
1629370481250,-2.31
1629370481265,-2.19
1629370481281,-2.14
1629370481296,-2.31
1629370481312,-2.76
1629370481328,-3.46
1629370481343,-4.34
1629370481359,-5.33
1629370481375,-6.33
1629370481390,-7.28
1629370481406,-8.06
1629370481421,-8.61
1629370481437,-8.92
1629370481453,-9.08
1629370481468,-9.29
1629370481484,-9.68
1629370481500,-10.32
1629370481515,-11.07
1629370481531,-11.71
1629370481546,-11.98
1629370481562,-11.74
1629370481578,-11.0
1629370481593,-9.91
1629370481609,-8.66
1629370481625,-7.39
1629370481640,-6.16
1629370481656,-4.96
1629370481671,-3.76
1629370481687,-2.5
1629370481703,-1.16
1629370481718,0.24
1629370481734,1.65
1629370481750,2.98
1629370481765,4.16
1629370481781,5.13
1629370481796,5.86
1629370481812,6.4
1629370481828,6.84
1629370481843,7.22
1629370481859,7.61
1629370481875,7.98
1629370481890,8.3
1629370481906,8.56
1629370481921,8.74
1629370481937,8.84
1629370481953,8.86
1629370481968,8.78
1629370481984,8.61
1629370482000,8.36
1629370482015,8.07
1629370482031,7.79
1629370482046,7.54
1629370482062,7.31
1629370482078,7.06
1629370482093,6.76
1629370482109,6.4
1629370482125,5.97
1629370482140,5.44
1629370482156,4.84
1629370482171,4.17
1629370482187,3.53
1629370482203,2.98
1629370482218,2.59
1629370482234,2.38
1629370482250,2.27
1629370482265,2.17
1629370482281,1.98
1629370482296,1.71
1629370482312,1.37
1629370482328,0.99
1629370482343,0.55
1629370482359,0.01
1629370482375,-0.68
1629370482390,-1.52
1629370482406,-2.45
1629370482421,-3.38
1629370482437,-4.22
1629370482453,-4.92
1629370482468,-5.51
1629370482484,-6.06
1629370482500,-6.6
1629370482515,-7.16
1629370482531,-7.73
1629370482546,-8.28
1629370482562,-8.82
1629370482578,-9.38
1629370482593,-10.02
1629370482609,-10.78
1629370482625,-11.59
1629370482640,-12.31
1629370482656,-12.73
1629370482671,-12.7
1629370482687,-12.16
1629370482703,-11.22
1629370482718,-10.0
1629370482734,-8.67
1629370482750,-7.28
1629370482765,-5.82
1629370482781,-4.26
1629370482796,-2.64
1629370482812,-1.07
1629370482828,0.34
1629370482843,1.51
1629370482859,2.45
1629370482875,3.21
1629370482890,3.87
1629370482906,4.49
1629370482921,5.06
1629370482937,5.59
1629370482953,6.09
1629370482968,6.54
1629370482984,6.92
1629370483000,7.23
1629370483015,7.42
1629370483031,7.49
1629370483046,7.47
1629370483062,7.38
1629370483078,7.24
1629370483093,7.04
1629370483109,6.78
1629370483125,6.45
1629370483140,6.1
1629370483156,5.79
1629370483171,5.58
1629370483187,5.48
1629370483203,5.48
1629370483218,5.5
1629370483234,5.49
1629370483250,5.38
1629370483265,5.1
1629370483281,4.6
1629370483296,3.86
1629370483312,2.94
1629370483328,1.97
1629370483343,1.18
1629370483359,0.72
1629370483375,0.64
1629370483390,0.77
1629370483406,0.85
1629370483421,0.57
1629370483437,-0.22
1629370483453,-1.46
1629370483468,-2.93
1629370483484,-4.36
1629370483500,-5.53
1629370483515,-6.38
1629370483531,-6.95
1629370483546,-7.35
1629370483562,-7.68
1629370483578,-7.96
1629370483593,-8.26
1629370483609,-8.61
1629370483625,-9.12
1629370483640,-9.81
1629370483656,-10.62
1629370483671,-11.37
1629370483687,-11.82
1629370483703,-11.77
1629370483718,-11.2
1629370483734,-10.2
1629370483750,-8.97
1629370483765,-7.66
1629370483781,-6.36
1629370483796,-5.03
1629370483812,-3.62
1629370483828,-2.14
1629370483843,-0.63
1629370483859,0.8
1629370483875,2.07
1629370483890,3.15
1629370483906,4.04
1629370483921,4.77
1629370483937,5.34
1629370483953,5.78
1629370483968,6.09
1629370483984,6.29
1629370484000,6.41
1629370484015,6.5
1629370484031,6.62
1629370484046,6.83
1629370484062,7.16
1629370484078,7.56
1629370484093,7.94
1629370484109,8.18
1629370484125,8.21
1629370484140,8.03
1629370484156,7.69
1629370484171,7.32
1629370484187,7.02
1629370484203,6.83
1629370484218,6.7
1629370484234,6.55
1629370484250,6.32
1629370484265,5.94
1629370484281,5.43
1629370484296,4.8
1629370484312,4.11
1629370484328,3.41
1629370484343,2.76
1629370484359,2.17
1629370484375,1.63
1629370484390,1.13
1629370484406,0.66
1629370484421,0.24
1629370484437,-0.11
1629370484453,-0.42
1629370484468,-0.72
1629370484484,-1.13
1629370484500,-1.71
1629370484515,-2.49
1629370484531,-3.39
1629370484546,-4.32
1629370484562,-5.15
1629370484578,-5.82
1629370484593,-6.33
1629370484609,-6.76
1629370484625,-7.19
1629370484640,-7.68
1629370484656,-8.27
1629370484671,-8.9
1629370484687,-9.55
1629370484703,-10.2
1629370484718,-10.86
1629370484734,-11.52
1629370484750,-12.13
1629370484765,-12.56
1629370484781,-12.6
1629370484796,-12.09
1629370484812,-10.99
1629370484828,-9.42
1629370484843,-7.6
1629370484859,-5.79
1629370484875,-4.13
1629370484890,-2.61
1629370484906,-1.16
1629370484921,0.26
1629370484937,1.64
1629370484953,2.87
1629370484968,3.89
1629370484984,4.69
1629370485000,5.33
1629370485015,5.9
1629370485031,6.43
1629370485046,6.87
1629370485062,7.15
1629370485078,7.22
1629370485093,7.1
1629370485109,6.89
1629370485125,6.69
1629370485140,6.57
1629370485156,6.53
1629370485171,6.57
1629370485187,6.66
1629370485203,6.82
1629370485218,7.02
1629370485234,7.23
1629370485250,7.38
1629370485265,7.39
1629370485281,7.18
1629370485296,6.71
1629370485312,6.01
1629370485328,5.14
1629370485343,4.22
1629370485359,3.36
1629370485375,2.66
1629370485390,2.17
1629370485406,1.89
1629370485421,1.79
1629370485437,1.82
1629370485453,1.92
1629370485468,2.03
1629370485484,2.1
1629370485500,2.07
1629370485515,1.88
1629370485531,1.53
1629370485546,1.06
1629370485562,0.54
1629370485578,0.05
1629370485593,-0.41
1629370485609,-0.88
1629370485625,-1.41
1629370485640,-2.05
1629370485656,-2.79
1629370485671,-3.59
1629370485687,-4.4
1629370485703,-5.19
1629370485718,-5.95
1629370485734,-6.7
1629370485750,-7.46
1629370485765,-8.24
1629370485781,-9.02
1629370485796,-9.75
1629370485812,-10.36
1629370485828,-10.78
1629370485843,-11.0
1629370485859,-11.03
1629370485875,-10.89
1629370485890,-10.59
1629370485906,-10.07
1629370485921,-9.25
1629370485937,-8.08
1629370485953,-6.63
1629370485968,-5.06
1629370485984,-3.55
1629370486000,-2.23
1629370486015,-1.11
1629370486031,-0.05
1629370486046,1.08
1629370486062,2.34
1629370486078,3.63
1629370486093,4.75
1629370486109,5.56
1629370486125,5.96
1629370486140,6.03
1629370486156,5.93
1629370486171,5.84
1629370486187,5.86
1629370486203,6.05
1629370486218,6.4
1629370486234,6.87
1629370486250,7.4
1629370486265,7.9
1629370486281,8.25
1629370486296,8.39
1629370486312,8.28
1629370486328,8.0
1629370486343,7.65
1629370486359,7.34
1629370486375,7.07
1629370486390,6.79
1629370486406,6.44
1629370486421,5.99
1629370486437,5.51
1629370486453,5.13
1629370486468,4.92
1629370486484,4.85
1629370486500,4.78
1629370486515,4.53
1629370486531,4.0
1629370486546,3.22
1629370486562,2.32
1629370486578,1.48
1629370486593,0.76
1629370486609,0.14
1629370486625,-0.46
1629370486640,-1.11
1629370486656,-1.78
1629370486671,-2.39
1629370486687,-2.86
1629370486703,-3.2
1629370486718,-3.53
1629370486734,-3.97
1629370486750,-4.66
1629370486765,-5.62
1629370486781,-6.77
1629370486796,-7.97
1629370486812,-9.08
1629370486828,-9.98
1629370486843,-10.68
1629370486859,-11.22
1629370486875,-11.71
1629370486890,-12.19
1629370486906,-12.66
1629370486921,-12.98
1629370486937,-12.99
1629370486953,-12.55
1629370486968,-11.61
1629370486984,-10.24
1629370487000,-8.57
1629370487015,-6.74
1629370487031,-4.86
1629370487046,-3.0
1629370487062,-1.21
1629370487078,0.46
1629370487093,1.95
1629370487109,3.2
1629370487125,4.2
1629370487140,4.98
1629370487156,5.59
1629370487171,6.1
1629370487187,6.54
1629370487203,6.93
1629370487218,7.32
1629370487234,7.7
1629370487250,8.07
1629370487265,8.39
1629370487281,8.6
1629370487296,8.68
1629370487312,8.62
1629370487328,8.48
1629370487343,8.28
1629370487359,8.05
1629370487375,7.77
1629370487390,7.41
1629370487406,7.0
1629370487421,6.62
1629370487437,6.35
1629370487453,6.27
1629370487468,6.36
1629370487484,6.51
1629370487500,6.59
1629370487515,6.47
1629370487531,6.09
1629370487546,5.48
1629370487562,4.71
1629370487578,3.92
1629370487593,3.19
1629370487609,2.57
1629370487625,2.08
1629370487640,1.66
1629370487656,1.21
1629370487671,0.68
1629370487687,-0.01
1629370487703,-0.81
1629370487718,-1.67
1629370487734,-2.5
1629370487750,-3.25
1629370487765,-3.91
1629370487781,-4.46
1629370487796,-4.91
1629370487812,-5.25
1629370487828,-5.53
1629370487843,-5.88
1629370487859,-6.45
1629370487875,-7.37
1629370487890,-8.67
1629370487906,-10.22
1629370487921,-11.79
1629370487937,-13.12
1629370487953,-14.01
1629370487968,-14.37
1629370487984,-14.22
1629370488000,-13.65
1629370488015,-12.74
1629370488031,-11.57
1629370488046,-10.23
1629370488062,-8.8
1629370488078,-7.33
1629370488093,-5.87
1629370488109,-4.45
1629370488125,-3.07
1629370488140,-1.72
1629370488156,-0.4
1629370488171,0.92
1629370488187,2.23
1629370488203,3.51
1629370488218,4.69
1629370488234,5.69
1629370488250,6.4
1629370488265,6.8
1629370488281,6.89
1629370488296,6.77
1629370488312,6.54
1629370488328,6.29
1629370488343,6.06
1629370488359,5.9
1629370488375,5.84
1629370488390,5.93
1629370488406,6.16
1629370488421,6.47
1629370488437,6.73
1629370488453,6.77
1629370488468,6.53
1629370488484,6.04
1629370488500,5.44
1629370488515,4.89
1629370488531,4.54
1629370488546,4.39
1629370488562,4.39
1629370488578,4.4
1629370488593,4.32
1629370488609,4.11
1629370488625,3.8
1629370488640,3.47
1629370488656,3.18
1629370488671,2.95
1629370488687,2.77
1629370488703,2.57
1629370488718,2.31
1629370488734,1.94
1629370488750,1.46
1629370488765,0.92
1629370488781,0.36
1629370488796,-0.18
1629370488812,-0.66
1629370488828,-1.07
1629370488843,-1.43
1629370488859,-1.74
1629370488875,-2.06
1629370488890,-2.43
1629370488906,-2.9
1629370488921,-3.51
1629370488937,-4.23
1629370488953,-5.02
1629370488968,-5.78
1629370488984,-6.46
1629370489000,-7.04
1629370489015,-7.59
1629370489031,-8.2
1629370489046,-8.93
1629370489062,-9.79
1629370489078,-10.68
1629370489093,-11.43
1629370489109,-11.88
1629370489125,-11.91
1629370489140,-11.51
1629370489156,-10.74
1629370489171,-9.73
1629370489187,-8.55
1629370489203,-7.24
1629370489218,-5.76
1629370489234,-4.1
1629370489250,-2.27
1629370489265,-0.38
1629370489281,1.44
1629370489296,3.1
1629370489312,4.55
1629370489328,5.84
1629370489343,6.98
1629370489359,7.99
1629370489375,8.78
1629370489390,9.26
1629370489406,9.34
1629370489421,9.05
1629370489437,8.49
1629370489453,7.82
1629370489468,7.22
1629370489484,6.8
1629370489500,6.62
1629370489515,6.63
1629370489531,6.79
1629370489546,6.99
1629370489562,7.18
1629370489578,7.33
1629370489593,7.42
1629370489609,7.49
1629370489625,7.51
1629370489640,7.44
1629370489656,7.29
1629370489671,7.08
1629370489687,6.88
1629370489703,6.75
1629370489718,6.7
1629370489734,6.62
1629370489750,6.38
1629370489765,5.85
1629370489781,5.05
1629370489796,4.1
1629370489812,3.16
1629370489828,2.39
1629370489843,1.8
1629370489859,1.35
1629370489875,0.95
1629370489890,0.54
1629370489906,0.1
1629370489921,-0.31
1629370489937,-0.67
1629370489953,-1.0
1629370489968,-1.36
1629370489984,-1.81
1629370490000,-2.44
1629370490015,-3.26
1629370490031,-4.22
1629370490046,-5.16
1629370490062,-5.95
1629370490078,-6.47
1629370490093,-6.77
1629370490109,-6.99
1629370490125,-7.35
1629370490140,-8.04
1629370490156,-9.08
1629370490171,-10.32
1629370490187,-11.51
1629370490203,-12.38
1629370490218,-12.75
1629370490234,-12.59
1629370490250,-11.99
1629370490265,-11.06
1629370490281,-9.89
1629370490296,-8.54
1629370490312,-7.07
1629370490328,-5.55
1629370490343,-4.06
1629370490359,-2.67
1629370490375,-1.37
1629370490390,-0.14
1629370490406,1.09
1629370490421,2.37
1629370490437,3.69
1629370490453,4.97
1629370490468,6.11
1629370490484,7.0
1629370490500,7.58
1629370490515,7.88
1629370490531,7.94
1629370490546,7.84
1629370490562,7.62
1629370490578,7.29
1629370490593,6.86
1629370490609,6.38
1629370490625,5.93
1629370490640,5.61
1629370490656,5.51
1629370490671,5.63
1629370490687,5.87
1629370490703,6.11
1629370490718,6.19
1629370490734,6.04
1629370490750,5.67
1629370490765,5.17
1629370490781,4.66
1629370490796,4.23
1629370490812,3.95
1629370490828,3.86
1629370490843,3.91
1629370490859,4.03
1629370490875,4.1
1629370490890,4.0
1629370490906,3.66
1629370490921,3.05
1629370490937,2.23
1629370490953,1.31
1629370490968,0.4
1629370490984,-0.41
1629370491000,-1.09
1629370491015,-1.65
1629370491031,-2.18
1629370491046,-2.77
1629370491062,-3.45
1629370491078,-4.21
1629370491093,-4.96
1629370491109,-5.58
1629370491125,-6.05
1629370491140,-6.41
1629370491156,-6.77
1629370491171,-7.26
1629370491187,-7.89
1629370491203,-8.62
1629370491218,-9.33
1629370491234,-9.92
1629370491250,-10.39
1629370491265,-10.77
1629370491281,-11.09
1629370491296,-11.33
1629370491312,-11.39
1629370491328,-11.13
1629370491343,-10.46
1629370491359,-9.38
1629370491375,-8.01
1629370491390,-6.45
1629370491406,-4.85
1629370491421,-3.28
1629370491437,-1.78
1629370491453,-0.35
1629370491468,1.04
1629370491484,2.4
1629370491500,3.71
1629370491515,4.88
1629370491531,5.83
1629370491546,6.49
1629370491562,6.86
1629370491578,7.06
1629370491593,7.19
1629370491609,7.37
1629370491625,7.57
1629370491640,7.68
1629370491656,7.55
1629370491671,7.14
1629370491687,6.56
1629370491703,6.03
1629370491718,5.75
1629370491734,5.8
1629370491750,6.09
1629370491765,6.37
1629370491781,6.44
1629370491796,6.22
1629370491812,5.79
1629370491828,5.31
1629370491843,4.92
1629370491859,4.64
1629370491875,4.4
1629370491890,4.12
1629370491906,3.76
1629370491921,3.42
1629370491937,3.18
1629370491953,3.12
1629370491968,3.19
1629370491984,3.25
1629370492000,3.15
1629370492015,2.8
1629370492031,2.19
1629370492046,1.41
1629370492062,0.53
1629370492078,-0.37
1629370492093,-1.23
1629370492109,-1.99
1629370492125,-2.63
1629370492140,-3.13
1629370492156,-3.54
1629370492171,-3.94
1629370492187,-4.4
1629370492203,-4.97
1629370492218,-5.64
1629370492234,-6.34
1629370492250,-7.03
1629370492265,-7.72
1629370492281,-8.39
1629370492296,-9.09
1629370492312,-9.77
1629370492328,-10.42
1629370492343,-10.98
1629370492359,-11.44
1629370492375,-11.83
1629370492390,-12.16
1629370492406,-12.41
1629370492421,-12.46
1629370492437,-12.16
1629370492453,-11.41
1629370492468,-10.17
1629370492484,-8.55
1629370492500,-6.73
1629370492515,-4.93
1629370492531,-3.29
1629370492546,-1.83
1629370492562,-0.5
1629370492578,0.79
1629370492593,2.09
1629370492609,3.35
1629370492625,4.46
1629370492640,5.3
1629370492656,5.84
1629370492671,6.17
1629370492687,6.45
1629370492703,6.86
1629370492718,7.44
1629370492734,8.15
1629370492750,8.85
1629370492765,9.4
1629370492781,9.77
1629370492796,10.03
1629370492812,10.24
1629370492828,10.45
1629370492843,10.6
1629370492859,10.59
1629370492875,10.32
1629370492890,9.79
1629370492906,9.1
1629370492921,8.43
1629370492937,7.92
1629370492953,7.66
1629370492968,7.66
1629370492984,7.85
1629370493000,8.14
1629370493015,8.39
1629370493031,8.49
1629370493046,8.35
1629370493062,7.94
1629370493078,7.35
1629370493093,6.72
1629370493109,6.21
1629370493125,5.9
1629370493140,5.69
1629370493156,5.35
1629370493171,4.66
1629370493187,3.44
1629370493203,1.73
1629370493218,-0.34
1629370493234,-2.52
1629370493250,-4.63
1629370493265,-6.51
1629370493281,-8.08
1629370493296,-9.28
1629370493312,-10.04
1629370493328,-10.34
1629370493343,-10.23
1629370493359,-9.87
1629370493375,-9.45
1629370493390,-9.15
1629370493406,-9.03
1629370493421,-9.1
1629370493437,-9.29
1629370493453,-9.56
1629370493468,-9.85
1629370493484,-10.08
1629370493500,-10.18
1629370493515,-10.0
1629370493531,-9.48
1629370493546,-8.61
1629370493562,-7.48
1629370493578,-6.24
1629370493593,-5.04
1629370493609,-4.0
1629370493625,-3.17
1629370493640,-2.55
1629370493656,-2.16
1629370493671,-1.99
1629370493687,-2.07
1629370493703,-2.37
1629370493718,-2.89
1629370493734,-3.59
1629370493750,-4.39
1629370493765,-5.18
1629370493781,-5.74
1629370493796,-5.86
1629370493812,-5.38
1629370493828,-4.28
1629370493843,-2.73
1629370493859,-1.04
1629370493875,0.48
1629370493890,1.63
1629370493906,2.39
1629370493921,2.88
1629370493937,3.28
1629370493953,3.76
1629370493968,4.33
1629370493984,4.95
1629370494000,5.49
1629370494015,5.89
1629370494031,6.12
1629370494046,6.25
1629370494062,6.32
1629370494078,6.38
1629370494093,6.44
1629370494109,6.46
1629370494125,6.4
1629370494140,6.24
1629370494156,5.98
1629370494171,5.64
1629370494187,5.27
1629370494203,4.89
1629370494218,4.5
1629370494234,4.11
1629370494250,3.69
1629370494265,3.27
1629370494281,2.83
1629370494296,2.39
1629370494312,1.96
1629370494328,1.55
1629370494343,1.15
1629370494359,0.73
1629370494375,0.23
1629370494390,-0.38
1629370494406,-1.12
1629370494421,-1.97
1629370494437,-2.86
1629370494453,-3.74
1629370494468,-4.59
1629370494484,-5.46
1629370494500,-6.42
1629370494515,-7.47
1629370494531,-8.54
1629370494546,-9.45
1629370494562,-10.01
1629370494578,-10.11
1629370494593,-9.78
1629370494609,-9.15
1629370494625,-8.4
1629370494640,-7.67
1629370494656,-6.95
1629370494671,-6.17
1629370494687,-5.24
1629370494703,-4.09
1629370494718,-2.77
1629370494734,-1.33
1629370494750,0.12
1629370494765,1.56
1629370494781,2.94
1629370494796,4.25
1629370494812,5.46
1629370494828,6.49
1629370494843,7.26
1629370494859,7.71
1629370494875,7.84
1629370494890,7.74
1629370494906,7.59
1629370494921,7.57
1629370494937,7.8
1629370494953,8.26
1629370494968,8.78
1629370494984,9.18
1629370495000,9.32
1629370495015,9.18
1629370495031,8.87
1629370495046,8.47
1629370495062,8.01
1629370495078,7.44
1629370495093,6.7
1629370495109,5.79
1629370495125,4.82
1629370495140,3.96
1629370495156,3.28
1629370495171,2.74
1629370495187,2.2
1629370495203,1.53
1629370495218,0.73
1629370495234,-0.12
1629370495250,-0.87
1629370495265,-1.44
1629370495281,-1.81
1629370495296,-2.07
1629370495312,-2.24
1629370495328,-2.36
1629370495343,-2.4
1629370495359,-2.44
1629370495375,-2.55
1629370495390,-2.87
1629370495406,-3.39
1629370495421,-4.04
1629370495437,-4.63
1629370495453,-5.01
1629370495468,-5.13
1629370495484,-5.07
1629370495500,-5.0
1629370495515,-5.06
1629370495531,-5.32
1629370495546,-5.76
1629370495562,-6.33
1629370495578,-6.94
1629370495593,-7.52
1629370495609,-8.06
1629370495625,-8.58
1629370495640,-9.11
1629370495656,-9.63
1629370495671,-10.08
1629370495687,-10.33
1629370495703,-10.26
1629370495718,-9.82
1629370495734,-9.05
1629370495750,-8.07
1629370495765,-7.02
1629370495781,-5.97
1629370495796,-4.91
1629370495812,-3.78
1629370495828,-2.51
1629370495843,-1.08
1629370495859,0.44
1629370495875,1.95
1629370495890,3.34
1629370495906,4.52
1629370495921,5.42
1629370495937,6.0
1629370495953,6.27
1629370495968,6.29
1629370495984,6.14
1629370496000,5.92
1629370496015,5.73
1629370496031,5.64
1629370496046,5.67
1629370496062,5.87
1629370496078,6.2
1629370496093,6.61
1629370496109,7.0
1629370496125,7.24
1629370496140,7.25
1629370496156,7.05
1629370496171,6.72
1629370496187,6.42
1629370496203,6.27
1629370496218,6.3
1629370496234,6.45
1629370496250,6.56
1629370496265,6.5
1629370496281,6.19
1629370496296,5.66
1629370496312,5.02
1629370496328,4.36
1629370496343,3.76
1629370496359,3.2
1629370496375,2.62
1629370496390,2.01
1629370496406,1.41
1629370496421,0.94
1629370496437,0.75
1629370496453,0.86
1629370496468,1.16
1629370496484,1.39
1629370496500,1.31
1629370496515,0.82
1629370496531,-0.03
1629370496546,-1.01
1629370496562,-1.9
1629370496578,-2.56
1629370496593,-2.95
1629370496609,-3.15
1629370496625,-3.27
1629370496640,-3.36
1629370496656,-3.45
1629370496671,-3.57
1629370496687,-3.76
1629370496703,-4.09
1629370496718,-4.64
1629370496734,-5.47
1629370496750,-6.62
1629370496765,-8.09
1629370496781,-9.79
1629370496796,-11.52
1629370496812,-13.0
1629370496828,-13.91
1629370496843,-13.98
1629370496859,-13.16
1629370496875,-11.6
1629370496890,-9.58
1629370496906,-7.44
1629370496921,-5.44
1629370496937,-3.7
1629370496953,-2.22
1629370496968,-0.91
1629370496984,0.33
1629370497000,1.55
1629370497015,2.76
1629370497031,3.93
1629370497046,5.04
1629370497062,6.05
1629370497078,6.91
1629370497093,7.57
1629370497109,8.02
1629370497125,8.24
1629370497140,8.28
1629370497156,8.17
1629370497171,7.97
1629370497187,7.76
1629370497203,7.6
1629370497218,7.57
1629370497234,7.65
1629370497250,7.78
1629370497265,7.83
1629370497281,7.67
1629370497296,7.25
1629370497312,6.62
1629370497328,5.94
1629370497343,5.41
1629370497359,5.15
1629370497375,5.19
1629370497390,5.4
1629370497406,5.62
1629370497421,5.74
1629370497437,5.71
1629370497453,5.57
1629370497468,5.39
1629370497484,5.19
1629370497500,4.95
1629370497515,4.61
1629370497531,4.11
1629370497546,3.46
1629370497562,2.75
1629370497578,2.1
1629370497593,1.6
1629370497609,1.27
1629370497625,1.02
1629370497640,0.73
1629370497656,0.28
1629370497671,-0.37
1629370497687,-1.19
1629370497703,-2.06
1629370497718,-2.86
1629370497734,-3.54
1629370497750,-4.16
1629370497765,-4.82
1629370497781,-5.61
1629370497796,-6.6
1629370497812,-7.76
1629370497828,-9.01
1629370497843,-10.24
1629370497859,-11.34
1629370497875,-12.22
1629370497890,-12.81
1629370497906,-13.07
1629370497921,-13.0
1629370497937,-12.63
1629370497953,-12.0
1629370497968,-11.17
1629370497984,-10.16
1629370498000,-9.02
1629370498015,-7.79
1629370498031,-6.51
1629370498046,-5.22
1629370498062,-3.95
1629370498078,-2.7
1629370498093,-1.48
1629370498109,-0.28
1629370498125,0.83
1629370498140,1.79
1629370498156,2.56
1629370498171,3.17
1629370498187,3.67
1629370498203,4.15
1629370498218,4.65
1629370498234,5.18
1629370498250,5.66
1629370498265,6.02
1629370498281,6.22
1629370498296,6.27
1629370498312,6.26
1629370498328,6.29
1629370498343,6.44
1629370498359,6.72
1629370498375,7.05
1629370498390,7.32
1629370498406,7.44
1629370498421,7.35
1629370498437,7.08
1629370498453,6.7
1629370498468,6.26
1629370498484,5.8
1629370498500,5.3
1629370498515,4.73
1629370498531,4.04
1629370498546,3.21
1629370498562,2.27
1629370498578,1.28
1629370498593,0.36
1629370498609,-0.42
1629370498625,-1.03
1629370498640,-1.52
1629370498656,-2.0
1629370498671,-2.53
1629370498687,-3.1
1629370498703,-3.64
1629370498718,-4.02
1629370498734,-4.14
1629370498750,-4.04
1629370498765,-3.8
1629370498781,-3.57
1629370498796,-3.44
1629370498812,-3.46
1629370498828,-3.63
1629370498843,-3.93
1629370498859,-4.34
1629370498875,-4.85
1629370498890,-5.45
1629370498906,-6.13
1629370498921,-6.83
1629370498937,-7.55
1629370498953,-8.26
1629370498968,-8.95
1629370498984,-9.54
1629370499000,-9.93
1629370499015,-10.0
1629370499031,-9.63
1629370499046,-8.81
1629370499062,-7.65
1629370499078,-6.29
1629370499093,-4.9
1629370499109,-3.58
1629370499125,-2.32
1629370499140,-1.07
1629370499156,0.22
1629370499171,1.52
1629370499187,2.7
1629370499203,3.61
1629370499218,4.17
1629370499234,4.42
1629370499250,4.52
1629370499265,4.68
1629370499281,5.05
1629370499296,5.65
1629370499312,6.35
1629370499328,7.01
1629370499343,7.49
1629370499359,7.78
1629370499375,7.91
1629370499390,7.96
1629370499406,7.99
1629370499421,8.0
1629370499437,7.94
1629370499453,7.76
1629370499468,7.45
1629370499484,7.03
1629370499500,6.61
1629370499515,6.3
1629370499531,6.21
1629370499546,6.31
1629370499562,6.52
1629370499578,6.66
1629370499593,6.57
1629370499609,6.15
1629370499625,5.44
1629370499640,4.56
1629370499656,3.71
1629370499671,3.02
1629370499687,2.53
1629370499703,2.22
1629370499718,1.97
1629370499734,1.69
1629370499750,1.29
1629370499765,0.72
1629370499781,0.01
1629370499796,-0.78
1629370499812,-1.56
1629370499828,-2.26
1629370499843,-2.85
1629370499859,-3.39
1629370499875,-3.97
1629370499890,-4.67
1629370499906,-5.49
1629370499921,-6.39
1629370499937,-7.29
1629370499953,-8.09
1629370499968,-8.74
1629370499984,-9.22
1629370500000,-9.57
1629370500015,-9.84
1629370500031,-10.08
1629370500046,-10.36
1629370500062,-10.67
1629370500078,-10.97
1629370500093,-11.21
1629370500109,-11.28
1629370500125,-11.12
1629370500140,-10.68
1629370500156,-9.96
1629370500171,-8.97
1629370500187,-7.73
1629370500203,-6.26
1629370500218,-4.58
1629370500234,-2.74
1629370500250,-0.84
1629370500265,0.98
1629370500281,2.55
1629370500296,3.76
1629370500312,4.58
1629370500328,5.11
1629370500343,5.48
1629370500359,5.89
1629370500375,6.46
1629370500390,7.21
1629370500406,8.05
1629370500421,8.8
1629370500437,9.31
1629370500453,9.49
1629370500468,9.35
1629370500484,8.99
1629370500500,8.53
1629370500515,8.05
1629370500531,7.59
1629370500546,7.16
1629370500562,6.78
1629370500578,6.45
1629370500593,6.21
1629370500609,6.04
1629370500625,5.9
1629370500640,5.71
1629370500656,5.37
1629370500671,4.81
1629370500687,4.06
1629370500703,3.19
1629370500718,2.34
1629370500734,1.64
1629370500750,1.15
1629370500765,0.85
1629370500781,0.67
1629370500796,0.49
1629370500812,0.23
1629370500828,-0.15
1629370500843,-0.62
1629370500859,-1.15
1629370500875,-1.7
1629370500890,-2.28
1629370500906,-2.89
1629370500921,-3.49
1629370500937,-4.05
1629370500953,-4.47
1629370500968,-4.7
1629370500984,-4.75
1629370501000,-4.7
1629370501015,-4.69
1629370501031,-4.81
1629370501046,-5.15
1629370501062,-5.69
1629370501078,-6.39
1629370501093,-7.17
1629370501109,-7.96
1629370501125,-8.7
1629370501140,-9.3
1629370501156,-9.68
1629370501171,-9.74
1629370501187,-9.41
1629370501203,-8.63
1629370501218,-7.47
1629370501234,-6.08
1629370501250,-4.69
1629370501265,-3.53
1629370501281,-2.75
1629370501296,-2.33
1629370501312,-2.04
1629370501328,-1.6
1629370501343,-0.79
1629370501359,0.38
1629370501375,1.71
1629370501390,2.88
1629370501406,3.67
1629370501421,4.05
1629370501437,4.18
1629370501453,4.32
1629370501468,4.64
1629370501484,5.17
1629370501500,5.76
1629370501515,6.23
1629370501531,6.45
1629370501546,6.38
1629370501562,6.14
1629370501578,5.87
1629370501593,5.72
1629370501609,5.75
1629370501625,5.96
1629370501640,6.25
1629370501656,6.44
1629370501671,6.41
1629370501687,6.08
1629370501703,5.5
1629370501718,4.83
1629370501734,4.21
1629370501750,3.76
1629370501765,3.46
1629370501781,3.23
1629370501796,2.93
1629370501812,2.47
1629370501828,1.83
1629370501843,1.1
1629370501859,0.41
1629370501875,-0.13
1629370501890,-0.5
1629370501906,-0.78
1629370501921,-1.09
1629370501937,-1.57
1629370501953,-2.24
1629370501968,-3.04
1629370501984,-3.8
1629370502000,-4.38
1629370502015,-4.76
1629370502031,-5.0
1629370502046,-5.22
1629370502062,-5.54
1629370502078,-5.94
1629370502093,-6.36
1629370502109,-6.69
1629370502125,-6.93
1629370502140,-7.18
1629370502156,-7.6
1629370502171,-8.29
1629370502187,-9.18
1629370502203,-10.02
1629370502218,-10.51
1629370502234,-10.41
1629370502250,-9.65
1629370502265,-8.37
1629370502281,-6.84
1629370502296,-5.34
1629370502312,-4.03
1629370502328,-2.93
1629370502343,-1.91
1629370502359,-0.84
1629370502375,0.38
1629370502390,1.72
1629370502406,3.08
1629370502421,4.31
1629370502437,5.32
1629370502453,6.06
1629370502468,6.53
1629370502484,6.77
1629370502500,6.86
1629370502515,6.88
1629370502531,6.89
1629370502546,6.97
1629370502562,7.13
1629370502578,7.31
1629370502593,7.43
1629370502609,7.42
1629370502625,7.28
1629370502640,7.06
1629370502656,6.88
1629370502671,6.8
1629370502687,6.82
1629370502703,6.89
1629370502718,6.91
1629370502734,6.84
1629370502750,6.65
1629370502765,6.35
1629370502781,5.97
1629370502796,5.51
1629370502812,4.99
1629370502828,4.44
1629370502843,3.95
1629370502859,3.58
1629370502875,3.37
1629370502890,3.3
1629370502906,3.28
1629370502921,3.18
1629370502937,2.9
1629370502953,2.35
1629370502968,1.53
1629370502984,0.49
1629370503000,-0.67
1629370503015,-1.84
1629370503031,-2.88
1629370503046,-3.71
1629370503062,-4.31
1629370503078,-4.77
1629370503093,-5.22
1629370503109,-5.77
1629370503125,-6.51
1629370503140,-7.4
1629370503156,-8.38
1629370503171,-9.34
1629370503187,-10.21
1629370503203,-10.91
1629370503218,-11.42
1629370503234,-11.73
1629370503250,-11.85
1629370503265,-11.82
1629370503281,-11.7
1629370503296,-11.56
1629370503312,-11.4
1629370503328,-11.16
1629370503343,-10.72
1629370503359,-9.97
1629370503375,-8.87
1629370503390,-7.47
1629370503406,-5.92
1629370503421,-4.38
1629370503437,-2.97
1629370503453,-1.7
1629370503468,-0.52
1629370503484,0.64
1629370503500,1.8
1629370503515,2.95
1629370503531,4.01
1629370503546,4.88
1629370503562,5.5
1629370503578,5.87
1629370503593,5.98
1629370503609,5.9
1629370503625,5.7
1629370503640,5.45
1629370503656,5.26
1629370503671,5.22
1629370503687,5.38
1629370503703,5.7
1629370503718,6.07
1629370503734,6.36
1629370503750,6.51
1629370503765,6.53
1629370503781,6.49
1629370503796,6.47
1629370503812,6.5
1629370503828,6.55
1629370503843,6.55
1629370503859,6.46
1629370503875,6.33
1629370503890,6.24
1629370503906,6.27
1629370503921,6.4
1629370503937,6.5
1629370503953,6.39
1629370503968,5.9
1629370503984,5.02
1629370504000,3.84
1629370504015,2.57
1629370504031,1.4
1629370504046,0.39
1629370504062,-0.49
1629370504078,-1.33
1629370504093,-2.18
1629370504109,-3.01
1629370504125,-3.74
1629370504140,-4.32
1629370504156,-4.76
1629370504171,-5.16
1629370504187,-5.61
1629370504203,-6.12
1629370504218,-6.61
1629370504234,-7.0
1629370504250,-7.24
1629370504265,-7.38
1629370504281,-7.59
1629370504296,-7.99
1629370504312,-8.61
1629370504328,-9.37
1629370504343,-10.12
1629370504359,-10.76
1629370504375,-11.23
1629370504390,-11.55
1629370504406,-11.73
1629370504421,-11.75
1629370504437,-11.48
1629370504453,-10.84
1629370504468,-9.77
1629370504484,-8.3
1629370504500,-6.57
1629370504515,-4.72
1629370504531,-2.88
1629370504546,-1.12
1629370504562,0.54
1629370504578,2.07
1629370504593,3.45
1629370504609,4.58
1629370504625,5.4
1629370504640,5.8
1629370504656,5.77
1629370504671,5.34
1629370504687,4.65
1629370504703,3.87
1629370504718,3.17
1629370504734,2.66
1629370504750,2.35
1629370504765,2.18
1629370504781,2.04
1629370504796,1.88
1629370504812,1.71
1629370504828,1.64
1629370504843,1.74
1629370504859,2.04
1629370504875,2.51
1629370504890,3.04
1629370504906,3.55
1629370504921,4.02
1629370504937,4.47
1629370504953,4.96
1629370504968,5.52
1629370504984,6.09
1629370505000,6.57
1629370505015,6.85
1629370505031,6.85
1629370505046,6.59
1629370505062,6.13
1629370505078,5.58
1629370505093,5.05
1629370505109,4.56
1629370505125,4.07
1629370505140,3.5
1629370505156,2.79
1629370505171,1.94
1629370505187,1.02
1629370505203,0.13
1629370505218,-0.64
1629370505234,-1.32
1629370505250,-1.98
1629370505265,-2.68
1629370505281,-3.38
1629370505296,-4.0
1629370505312,-4.41
1629370505328,-4.61
1629370505343,-4.71
1629370505359,-4.89
1629370505375,-5.32
1629370505390,-6.05
1629370505406,-6.98
1629370505421,-7.96
1629370505437,-8.81
1629370505453,-9.42
1629370505468,-9.74
1629370505484,-9.77
1629370505500,-9.53
1629370505515,-9.07
1629370505531,-8.45
1629370505546,-7.73
1629370505562,-6.95
1629370505578,-6.11
1629370505593,-5.2
1629370505609,-4.23
1629370505625,-3.21
1629370505640,-2.19
1629370505656,-1.19
1629370505671,-0.23
1629370505687,0.69
1629370505703,1.57
1629370505718,2.45
1629370505734,3.33
1629370505750,4.3
1629370505765,5.41
1629370505781,6.66
1629370505796,7.95
1629370505812,9.11
1629370505828,9.94
1629370505843,10.33
1629370505859,10.26
1629370505875,9.85
1629370505890,9.27
1629370505906,8.64
1629370505921,8.06
1629370505937,7.59
1629370505953,7.25
1629370505968,7.06
1629370505984,6.98
1629370506000,6.95
1629370506015,6.88
1629370506031,6.72
1629370506046,6.44
1629370506062,6.07
1629370506078,5.65
1629370506093,5.22
1629370506109,4.74
1629370506125,4.2
1629370506140,3.61
1629370506156,2.99
1629370506171,2.41
1629370506187,1.92
1629370506203,1.54
1629370506218,1.23
1629370506234,0.91
1629370506250,0.5
1629370506265,-0.06
1629370506281,-0.78
1629370506296,-1.67
1629370506312,-2.72
1629370506328,-3.95
1629370506343,-5.39
1629370506359,-7.09
1629370506375,-9.06
1629370506390,-11.21
1629370506406,-13.4
1629370506421,-15.41
1629370506437,-16.98
1629370506453,-17.88
1629370506468,-17.99
1629370506484,-17.35
1629370506500,-16.12
1629370506515,-14.6
1629370506531,-13.01
1629370506546,-11.44
1629370506562,-9.79
1629370506578,-7.89
1629370506593,-5.6
1629370506609,-2.94
1629370506625,-0.2
1629370506640,2.27
1629370506656,4.15
1629370506671,5.32
1629370506687,5.88
1629370506703,6.05
1629370506718,6.04
1629370506734,5.96
1629370506750,5.83
1629370506765,5.64
1629370506781,5.39
1629370506796,5.12
1629370506812,4.88
1629370506828,4.69
1629370506843,4.54
1629370506859,4.39
1629370506875,4.22
1629370506890,4.04
1629370506906,3.86
1629370506921,3.71
1629370506937,3.58
1629370506953,3.49
1629370506968,3.47
1629370506984,3.55
1629370507000,3.79
1629370507015,4.15
1629370507031,4.55
1629370507046,4.86
1629370507062,4.94
1629370507078,4.7
1629370507093,4.14
1629370507109,3.31
1629370507125,2.35
1629370507140,1.39
1629370507156,0.53
1629370507171,-0.2
1629370507187,-0.82
1629370507203,-1.38
1629370507218,-1.9
1629370507234,-2.4
1629370507250,-2.85
1629370507265,-3.25
1629370507281,-3.59
1629370507296,-3.91
1629370507312,-4.23
1629370507328,-4.55
1629370507343,-4.88
1629370507359,-5.2
1629370507375,-5.49
1629370507390,-5.78
1629370507406,-6.03
1629370507421,-6.22
1629370507437,-6.27
1629370507453,-6.11
1629370507468,-5.7
1629370507484,-4.98
1629370507500,-3.95
1629370507515,-2.65
1629370507531,-1.17
1629370507546,0.33
1629370507562,1.68
1629370507578,2.73
1629370507593,3.43
1629370507609,3.87
1629370507625,4.21
1629370507640,4.58
1629370507656,5.04
1629370507671,5.57
1629370507687,6.05
1629370507703,6.42
1629370507718,6.68
1629370507734,6.85
1629370507750,6.97
1629370507765,7.02
1629370507781,6.97
1629370507796,6.78
1629370507812,6.45
1629370507828,6.08
1629370507843,5.8
1629370507859,5.69
1629370507875,5.81
1629370507890,6.06
1629370507906,6.3
1629370507921,6.35
1629370507937,6.07
1629370507953,5.43
1629370507968,4.51
1629370507984,3.5
1629370508000,2.61
1629370508015,2.01
1629370508031,1.76
1629370508046,1.78
1629370508062,1.91
1629370508078,2.0
1629370508093,1.97
1629370508109,1.77
1629370508125,1.44
1629370508140,0.96
1629370508156,0.33
1629370508171,-0.46
1629370508187,-1.37
1629370508203,-2.3
1629370508218,-3.12
1629370508234,-3.73
1629370508250,-4.11
1629370508265,-4.33
1629370508281,-4.52
1629370508296,-4.8
1629370508312,-5.21
1629370508328,-5.73
1629370508343,-6.33
1629370508359,-6.97
1629370508375,-7.68
1629370508390,-8.51
1629370508406,-9.49
1629370508421,-10.57
1629370508437,-11.67
1629370508453,-12.62
1629370508468,-13.27
1629370508484,-13.5
1629370508500,-13.24
1629370508515,-12.48
1629370508531,-11.29
1629370508546,-9.77
1629370508562,-8.08
1629370508578,-6.39
1629370508593,-4.82
1629370508609,-3.44
1629370508625,-2.23
1629370508640,-1.1
1629370508656,0.06
1629370508671,1.31
1629370508687,2.65
1629370508703,3.98
1629370508718,5.16
1629370508734,6.1
1629370508750,6.76
1629370508765,7.19
1629370508781,7.47
1629370508796,7.67
1629370508812,7.82
1629370508828,7.93
1629370508843,8.03
1629370508859,8.14
1629370508875,8.32
1629370508890,8.56
1629370508906,8.77
1629370508921,8.84
1629370508937,8.64
1629370508953,8.13
1629370508968,7.41
1629370508984,6.66
1629370509000,6.05
1629370509015,5.62
1629370509031,5.32
1629370509046,5.01
1629370509062,4.58
1629370509078,4.04
1629370509093,3.44
1629370509109,2.89
1629370509125,2.44
1629370509140,2.08
1629370509156,1.76
1629370509171,1.42
1629370509187,1.03
1629370509203,0.62
1629370509218,0.21
1629370509234,-0.17
1629370509250,-0.53
1629370509265,-0.85
1629370509281,-1.17
1629370509296,-1.54
1629370509312,-2.02
1629370509328,-2.63
1629370509343,-3.38
1629370509359,-4.2
1629370509375,-4.97
1629370509390,-5.62
1629370509406,-6.12
1629370509421,-6.58
1629370509437,-7.12
1629370509453,-7.88
1629370509468,-8.84
1629370509484,-9.89
1629370509500,-10.82
1629370509515,-11.44
1629370509531,-11.7
1629370509546,-11.61
1629370509562,-11.22
1629370509578,-10.59
1629370509593,-9.72
1629370509609,-8.58
1629370509625,-7.2
1629370509640,-5.66
1629370509656,-4.06
1629370509671,-2.51
1629370509687,-1.06
1629370509703,0.3
1629370509718,1.6
1629370509734,2.87
1629370509750,4.09
1629370509765,5.23
1629370509781,6.23
1629370509796,7.05
1629370509812,7.67
1629370509828,8.06
1629370509843,8.18
1629370509859,8.08
1629370509875,7.83
1629370509890,7.55
1629370509906,7.34
1629370509921,7.21
1629370509937,7.16
1629370509953,7.13
1629370509968,7.1
1629370509984,7.06
1629370510000,7.02
1629370510015,6.95
1629370510031,6.78
1629370510046,6.43
1629370510062,5.87
1629370510078,5.14
1629370510093,4.34
1629370510109,3.58
1629370510125,2.93
1629370510140,2.36
1629370510156,1.76
1629370510171,1.08
1629370510187,0.27
1629370510203,-0.58
1629370510218,-1.38
1629370510234,-2.04
1629370510250,-2.5
1629370510265,-2.77
1629370510281,-2.89
1629370510296,-2.93
1629370510312,-2.92
1629370510328,-2.9
1629370510343,-2.89
1629370510359,-2.98
1629370510375,-3.23
1629370510390,-3.69
1629370510406,-4.35
1629370510421,-5.12
1629370510437,-5.89
1629370510453,-6.54
1629370510468,-7.05
1629370510484,-7.52
1629370510500,-8.09
1629370510515,-8.88
1629370510531,-9.84
1629370510546,-10.82
1629370510562,-11.52
1629370510578,-11.72
1629370510593,-11.33
1629370510609,-10.46
1629370510625,-9.3
1629370510640,-8.12
1629370510656,-7.04
1629370510671,-6.1
1629370510687,-5.21
1629370510703,-4.28
1629370510718,-3.2
1629370510734,-1.93
1629370510750,-0.49
1629370510765,1.07
1629370510781,2.65
1629370510796,4.13
1629370510812,5.38
1629370510828,6.31
1629370510843,6.89
1629370510859,7.11
1629370510875,7.07
1629370510890,6.86
1629370510906,6.62
1629370510921,6.43
1629370510937,6.37
1629370510953,6.49
1629370510968,6.78
1629370510984,7.2
1629370511000,7.64
1629370511015,8.0
1629370511031,8.2
1629370511046,8.18
1629370511062,7.95
1629370511078,7.62
1629370511093,7.32
1629370511109,7.15
1629370511125,7.16
1629370511140,7.29
1629370511156,7.38
1629370511171,7.26
1629370511187,6.84
1629370511203,6.14
1629370511218,5.3
1629370511234,4.49
1629370511250,3.84
1629370511265,3.34
1629370511281,2.89
1629370511296,2.35
1629370511312,1.66
1629370511328,0.89
1629370511343,0.16
1629370511359,-0.38
1629370511375,-0.72
1629370511390,-0.92
1629370511406,-1.1
1629370511421,-1.38
1629370511437,-1.8
1629370511453,-2.31
1629370511468,-2.91
1629370511484,-3.6
1629370511500,-4.45
1629370511515,-5.52
1629370511531,-6.8
1629370511546,-8.19
1629370511562,-9.56
1629370511578,-10.77
1629370511593,-11.79
1629370511609,-12.63
1629370511625,-13.31
1629370511640,-13.8
1629370511656,-14.05
1629370511671,-13.96
1629370511687,-13.49
1629370511703,-12.69
1629370511718,-11.65
1629370511734,-10.49
1629370511750,-9.29
1629370511765,-8.05
1629370511781,-6.71
1629370511796,-5.21
1629370511812,-3.53
1629370511828,-1.75
1629370511843,0.01
1629370511859,1.63
1629370511875,3.0
1629370511890,4.08
1629370511906,4.91
1629370511921,5.51
1629370511937,5.94
1629370511953,6.22
1629370511968,6.38
1629370511984,6.47
1629370512000,6.57
1629370512015,6.73
1629370512031,6.98
1629370512046,7.33
1629370512062,7.75
1629370512078,8.22
1629370512093,8.69
1629370512109,9.07
1629370512125,9.3
1629370512140,9.31
1629370512156,9.11
1629370512171,8.77
1629370512187,8.41
1629370512203,8.15
1629370512218,8.0
1629370512234,7.94
1629370512250,7.86
1629370512265,7.66
1629370512281,7.27
1629370512296,6.7
1629370512312,5.98
1629370512328,5.21
1629370512343,4.5
1629370512359,3.92
1629370512375,3.51
1629370512390,3.22
1629370512406,3.0
1629370512421,2.74
1629370512437,2.43
1629370512453,2.04
1629370512468,1.62
1629370512484,1.17
1629370512500,0.64
1629370512515,-0.02
1629370512531,-0.85
1629370512546,-1.85
1629370512562,-2.95
1629370512578,-4.04
1629370512593,-4.99
1629370512609,-5.71
1629370512625,-6.17
1629370512640,-6.43
1629370512656,-6.62
1629370512671,-6.91
1629370512687,-7.45
1629370512703,-8.31
1629370512718,-9.45
1629370512734,-10.7
1629370512750,-11.82
1629370512765,-12.55
1629370512781,-12.78
1629370512796,-12.48
1629370512812,-11.76
1629370512828,-10.76
1629370512843,-9.58
1629370512859,-8.26
1629370512875,-6.83
1629370512890,-5.3
1629370512906,-3.7
1629370512921,-2.11
1629370512937,-0.62
1629370512953,0.71
1629370512968,1.9
1629370512984,2.96
1629370513000,3.98
1629370513015,4.98
1629370513031,6.0
1629370513046,7.02
1629370513062,7.97
1629370513078,8.76
1629370513093,9.29
1629370513109,9.49
1629370513125,9.39
1629370513140,9.1
1629370513156,8.76
1629370513171,8.51
1629370513187,8.4
1629370513203,8.36
1629370513218,8.31
1629370513234,8.15
1629370513250,7.84
1629370513265,7.4
1629370513281,6.83
1629370513296,6.14
1629370513312,5.3
1629370513328,4.39
1629370513343,3.48
1629370513359,2.69
1629370513375,2.09
1629370513390,1.62
1629370513406,1.12
1629370513421,0.44
1629370513437,-0.44
1629370513453,-1.42
1629370513468,-2.31
1629370513484,-2.93
1629370513500,-3.31
1629370513515,-3.62
1629370513531,-4.08
1629370513546,-4.86
1629370513562,-5.94
1629370513578,-7.15
1629370513593,-8.26
1629370513609,-9.09
1629370513625,-9.54
1629370513640,-9.64
1629370513656,-9.46
1629370513671,-9.08
1629370513687,-8.58
1629370513703,-8.02
1629370513718,-7.45
1629370513734,-6.95
1629370513750,-6.59
1629370513765,-6.44
1629370513781,-6.51
1629370513796,-6.79
1629370513812,-7.17
1629370513828,-7.51
1629370513843,-7.66
1629370513859,-7.48
1629370513875,-6.94
1629370513890,-6.07
1629370513906,-4.99
1629370513921,-3.82
1629370513937,-2.65
1629370513953,-1.53
1629370513968,-0.44
1629370513984,0.64
1629370514000,1.76
1629370514015,2.91
1629370514031,4.11
1629370514046,5.29
1629370514062,6.42
1629370514078,7.4
1629370514093,8.15
1629370514109,8.62
1629370514125,8.76
1629370514140,8.63
1629370514156,8.33
1629370514171,7.99
1629370514187,7.75
1629370514203,7.67
1629370514218,7.72
1629370514234,7.77
1629370514250,7.69
1629370514265,7.4
1629370514281,6.87
1629370514296,6.2
1629370514312,5.49
1629370514328,4.84
1629370514343,4.3
1629370514359,3.89
1629370514375,3.65
1629370514390,3.58
1629370514406,3.71
1629370514421,3.96
1629370514437,4.19
1629370514453,4.23
1629370514468,3.94
1629370514484,3.3
1629370514500,2.44
1629370514515,1.59
1629370514531,0.94
1629370514546,0.58
1629370514562,0.47
1629370514578,0.47
1629370514593,0.4
1629370514609,0.19
1629370514625,-0.18
1629370514640,-0.65
1629370514656,-1.16
1629370514671,-1.68
1629370514687,-2.24
1629370514703,-2.86
1629370514718,-3.54
1629370514734,-4.23
1629370514750,-4.89
1629370514765,-5.48
1629370514781,-6.07
1629370514796,-6.78
1629370514812,-7.68
1629370514828,-8.79
1629370514843,-9.99
1629370514859,-11.06
1629370514875,-11.83
1629370514890,-12.18
1629370514906,-12.18
1629370514921,-11.96
1629370514937,-11.67
1629370514953,-11.39
1629370514968,-11.06
1629370514984,-10.55
1629370515000,-9.68
1629370515015,-8.36
1629370515031,-6.59
1629370515046,-4.53
1629370515062,-2.35
1629370515078,-0.26
1629370515093,1.58
1629370515109,3.11
1629370515125,4.27
1629370515140,5.1
1629370515156,5.63
1629370515171,5.96
1629370515187,6.21
1629370515203,6.55
1629370515218,7.07
1629370515234,7.81
1629370515250,8.7
1629370515265,9.58
1629370515281,10.32
1629370515296,10.82
1629370515312,11.05
1629370515328,11.06
1629370515343,10.9
1629370515359,10.63
1629370515375,10.29
1629370515390,9.92
1629370515406,9.51
1629370515421,9.06
1629370515437,8.53
1629370515453,7.97
1629370515468,7.42
1629370515484,6.94
1629370515500,6.55
1629370515515,6.19
1629370515531,5.78
1629370515546,5.24
1629370515562,4.57
1629370515578,3.82
1629370515593,3.12
1629370515609,2.54
1629370515625,2.06
1629370515640,1.65
1629370515656,1.2
1629370515671,0.67
1629370515687,0.07
1629370515703,-0.58
1629370515718,-1.25
1629370515734,-1.93
1629370515750,-2.63
1629370515765,-3.31
1629370515781,-3.91
1629370515796,-4.39
1629370515812,-4.74
1629370515828,-5.0
1629370515843,-5.22
1629370515859,-5.49
1629370515875,-5.87
1629370515890,-6.37
1629370515906,-7.05
1629370515921,-7.91
1629370515937,-8.96
1629370515953,-10.11
1629370515968,-11.2
1629370515984,-12.07
1629370516000,-12.56
1629370516015,-12.62
1629370516031,-12.29
1629370516046,-11.7
1629370516062,-10.99
1629370516078,-10.18
1629370516093,-9.22
1629370516109,-8.0
1629370516125,-6.44
1629370516140,-4.58
1629370516156,-2.61
1629370516171,-0.75
1629370516187,0.8
1629370516203,1.95
1629370516218,2.76
1629370516234,3.41
1629370516250,4.09
1629370516265,4.91
1629370516281,5.82
1629370516296,6.72
1629370516312,7.45
1629370516328,7.92
1629370516343,8.14
1629370516359,8.22
1629370516375,8.3
1629370516390,8.46
1629370516406,8.68
1629370516421,8.91
1629370516437,9.07
1629370516453,9.15
1629370516468,9.18
1629370516484,9.21
1629370516500,9.28
1629370516515,9.35
1629370516531,9.36
1629370516546,9.24
1629370516562,8.96
1629370516578,8.53
1629370516593,8.02
1629370516609,7.53
1629370516625,7.13
1629370516640,6.89
1629370516656,6.77
1629370516671,6.67
1629370516687,6.45
1629370516703,6.01
1629370516718,5.29
1629370516734,4.38
1629370516750,3.43
1629370516765,2.59
1629370516781,1.96
1629370516796,1.51
1629370516812,1.11
1629370516828,0.61
1629370516843,-0.09
1629370516859,-1.01
1629370516875,-2.08
1629370516890,-3.16
1629370516906,-4.13
1629370516921,-4.91
1629370516937,-5.49
1629370516953,-5.92
1629370516968,-6.32
1629370516984,-6.77
1629370517000,-7.36
1629370517015,-8.13
1629370517031,-9.09
1629370517046,-10.23
1629370517062,-11.46
1629370517078,-12.64
1629370517093,-13.54
1629370517109,-13.96
1629370517125,-13.75
1629370517140,-12.95
1629370517156,-11.72
1629370517171,-10.31
1629370517187,-8.93
1629370517203,-7.64
1629370517218,-6.41
1629370517234,-5.09
1629370517250,-3.59
1629370517265,-1.93
1629370517281,-0.19
1629370517296,1.49
1629370517312,3.02
1629370517328,4.35
1629370517343,5.45
1629370517359,6.31
1629370517375,6.93
1629370517390,7.32
1629370517406,7.48
1629370517421,7.46
1629370517437,7.33
1629370517453,7.13
1629370517468,6.92
1629370517484,6.77
1629370517500,6.73
1629370517515,6.83
1629370517531,7.03
1629370517546,7.22
1629370517562,7.26
1629370517578,7.04
1629370517593,6.55
1629370517609,5.91
1629370517625,5.29
1629370517640,4.83
1629370517656,4.54
1629370517671,4.31
1629370517687,4.0
1629370517703,3.57
1629370517718,3.05
1629370517734,2.57
1629370517750,2.26
1629370517765,2.1
1629370517781,2.01
1629370517796,1.83
1629370517812,1.5
1629370517828,1.05
1629370517843,0.63
1629370517859,0.33
1629370517875,0.14
1629370517890,-0.04
1629370517906,-0.38
1629370517921,-0.96
1629370517937,-1.75
1629370517953,-2.58
1629370517968,-3.31
1629370517984,-3.84
1629370518000,-4.24
1629370518015,-4.64
1629370518031,-5.2
1629370518046,-5.97
1629370518062,-6.9
1629370518078,-7.85
1629370518093,-8.67
1629370518109,-9.29
1629370518125,-9.71
1629370518140,-10.0
1629370518156,-10.23
1629370518171,-10.41
1629370518187,-10.5
1629370518203,-10.39
1629370518218,-9.97
1629370518234,-9.14
1629370518250,-7.91
1629370518265,-6.34
1629370518281,-4.56
1629370518296,-2.72
1629370518312,-0.92
1629370518328,0.78
1629370518343,2.37
1629370518359,3.84
1629370518375,5.17
1629370518390,6.27
1629370518406,7.06
1629370518421,7.49
1629370518437,7.6
1629370518453,7.5
1629370518468,7.36
1629370518484,7.32
1629370518500,7.45
1629370518515,7.72
1629370518531,8.04
1629370518546,8.29
1629370518562,8.38
1629370518578,8.26
1629370518593,8.0
1629370518609,7.66
1629370518625,7.36
1629370518640,7.14
1629370518656,7.02
1629370518671,6.96
1629370518687,6.91
1629370518703,6.85
1629370518718,6.76
1629370518734,6.64
1629370518750,6.5
1629370518765,6.28
1629370518781,5.92
1629370518796,5.34
1629370518812,4.5
1629370518828,3.41
1629370518843,2.17
1629370518859,0.93
1629370518875,-0.13
1629370518890,-0.89
1629370518906,-1.32
1629370518921,-1.47
1629370518937,-1.49
