timestamp,bvp
1629897192375,-51.17
1629897192390,-53.85
1629897192406,-53.6
1629897192421,-49.81
1629897192437,-42.56
1629897192453,-32.6
1629897192468,-21.19
1629897192484,-9.72
1629897192500,0.63
1629897192515,9.17
1629897192531,15.73
1629897192546,20.56
1629897192562,24.11
1629897192578,26.87
1629897192593,29.25
1629897192609,31.47
1629897192625,33.59
1629897192640,35.53
1629897192656,37.04
1629897192671,37.86
1629897192687,37.77
1629897192703,36.74
1629897192718,34.94
1629897192734,32.75
1629897192750,30.61
1629897192765,28.84
1629897192781,27.54
1629897192796,26.51
1629897192812,25.37
1629897192828,23.78
1629897192843,21.56
1629897192859,18.79
1629897192875,15.74
1629897192890,12.76
1629897192906,10.03
1629897192921,7.55
1629897192937,5.04
1629897192953,2.18
1629897192968,-1.24
1629897192984,-5.24
1629897193000,-9.57
1629897193015,-13.87
1629897193031,-17.79
1629897193046,-21.18
1629897193062,-24.1
1629897193078,-26.79
1629897193093,-29.56
1629897193109,-32.69
1629897193125,-36.4
1629897193140,-40.75
1629897193156,-45.59
1629897193171,-50.44
1629897193187,-54.49
1629897193203,-56.64
1629897193218,-55.86
1629897193234,-51.49
1629897193250,-43.63
1629897193265,-33.14
1629897193281,-21.38
1629897193296,-9.84
1629897193312,0.33
1629897193328,8.56
1629897193343,14.82
1629897193359,19.47
1629897193375,22.97
1629897193390,25.7
1629897193406,27.9
1629897193421,29.72
1629897193437,31.23
1629897193453,32.5
1629897193468,33.54
1629897193484,34.32
1629897193500,34.76
1629897193515,34.75
1629897193531,34.25
1629897193546,33.31
1629897193562,32.1
1629897193578,30.84
1629897193593,29.77
1629897193609,29.02
1629897193625,28.5
1629897193640,27.92
1629897193656,26.85
1629897193671,24.94
1629897193687,22.06
1629897193703,18.41
1629897193718,14.43
1629897193734,10.59
1629897193750,7.14
1629897193765,4.04
1629897193781,1.02
1629897193796,-2.22
1629897193812,-5.78
1629897193828,-9.52
1629897193843,-13.07
1629897193859,-16.13
1629897193875,-18.57
1629897193890,-20.52
1629897193906,-22.33
1629897193921,-24.38
1629897193937,-27.0
1629897193953,-30.39
1629897193968,-34.61
1629897193984,-39.44
1629897194000,-44.37
1629897194015,-48.57
1629897194031,-50.98
1629897194046,-50.61
1629897194062,-46.86
1629897194078,-39.8
1629897194093,-30.2
1629897194109,-19.37
1629897194125,-8.74
1629897194140,0.57
1629897194156,7.96
1629897194171,13.4
1629897194187,17.31
1629897194203,20.27
1629897194218,22.79
1629897194234,25.2
1629897194250,27.56
1629897194265,29.73
1629897194281,31.49
1629897194296,32.66
1629897194312,33.17
1629897194328,33.1
1629897194343,32.57
1629897194359,31.71
1629897194375,30.55
1629897194390,29.08
1629897194406,27.35
1629897194421,25.53
1629897194437,23.89
1629897194453,22.62
1629897194468,21.72
1629897194484,20.88
1629897194500,19.67
1629897194515,17.68
1629897194531,14.88
1629897194546,11.54
1629897194562,8.12
1629897194578,5.01
1629897194593,2.26
1629897194609,-0.35
1629897194625,-3.21
1629897194640,-6.55
1629897194656,-10.3
1629897194671,-14.08
1629897194687,-17.42
1629897194703,-20.01
1629897194718,-21.89
1629897194734,-23.4
1629897194750,-25.06
1629897194765,-27.34
1629897194781,-30.49
1629897194796,-34.46
1629897194812,-38.96
1629897194828,-43.46
1629897194843,-47.22
1629897194859,-49.36
1629897194875,-49.0
1629897194890,-45.53
1629897194906,-38.9
1629897194921,-29.74
1629897194937,-19.24
1629897194953,-8.89
1629897194968,0.06
1629897194984,6.91
1629897195000,11.64
1629897195015,14.68
1629897195031,16.68
1629897195046,18.1
1629897195062,19.18
1629897195078,19.9
1629897195093,20.22
1629897195109,20.07
1629897195125,19.54
1629897195140,18.73
1629897195156,17.73
1629897195171,16.57
1629897195187,15.21
1629897195203,13.62
1629897195218,11.83
1629897195234,9.93
1629897195250,8.08
1629897195265,6.34
1629897195281,4.68
1629897195296,2.97
1629897195312,1.07
1629897195328,-1.15
1629897195343,-3.69
1629897195359,-6.44
1629897195375,-9.25
1629897195390,-11.97
1629897195406,-14.49
1629897195421,-16.72
1629897195437,-18.55
1629897195453,-19.88
1629897195468,-20.68
1629897195484,-21.07
1629897195500,-21.3
1629897195515,-21.75
1629897195531,-22.76
1629897195546,-24.5
1629897195562,-26.94
1629897195578,-29.83
1629897195593,-32.74
1629897195609,-35.25
1629897195625,-36.87
1629897195640,-37.12
1629897195656,-35.59
1629897195671,-31.93
1629897195687,-25.99
1629897195703,-17.87
1629897195718,-7.99
1629897195734,2.86
1629897195750,13.61
1629897195765,23.09
1629897195781,30.3
1629897195796,34.65
1629897195812,36.2
1629897195828,35.54
1629897195843,33.57
1629897195859,31.18
1629897195875,28.86
1629897195890,26.62
1629897195906,23.99
1629897195921,20.29
1629897195937,14.8
1629897195953,6.95
1629897195968,-3.57
1629897195984,-16.69
1629897196000,-31.69
1629897196015,-46.97
1629897196031,-59.9
1629897196046,-67.27
1629897196062,-66.12
1629897196078,-55.04
1629897196093,-34.9
1629897196109,-8.87
1629897196125,18.63
1629897196140,43.43
1629897196156,62.91
1629897196171,76.45
1629897196187,84.98
1629897196203,89.9
1629897196218,92.21
1629897196234,92.25
1629897196250,89.88
1629897196265,85.21
1629897196281,79.02
1629897196296,72.85
1629897196312,68.6
1629897196328,67.83
1629897196343,70.96
1629897196359,76.89
1629897196375,83.06
1629897196390,86.12
1629897196406,83.1
1629897196421,72.42
1629897196437,54.13
1629897196453,29.33
1629897196468,-0.67
1629897196484,-34.76
1629897196500,-71.47
1629897196515,-107.97
1629897196531,-139.59
1629897196546,-160.65
1629897196562,-166.49
1629897196578,-155.68
1629897196593,-130.86
1629897196609,-97.9
1629897196625,-63.4
1629897196640,-32.31
1629897196656,-6.76
1629897196671,13.41
1629897196687,29.03
1629897196703,40.26
1629897196718,46.28
1629897196734,46.15
1629897196750,39.95
1629897196765,29.44
1629897196781,17.51
1629897196796,7.22
1629897196812,0.5
1629897196828,-2.22
1629897196843,-1.94
1629897196859,-0.24
1629897196875,1.57
1629897196890,2.95
1629897196906,4.11
1629897196921,5.59
1629897196937,7.65
1629897196953,9.98
1629897196968,11.73
1629897196984,11.9
1629897197000,9.85
1629897197015,5.67
1629897197031,0.13
1629897197046,-5.57
1629897197062,-10.33
1629897197078,-13.55
1629897197093,-15.24
1629897197109,-15.96
1629897197125,-16.51
1629897197140,-17.63
1629897197156,-19.84
1629897197171,-23.26
1629897197187,-27.67
1629897197203,-32.49
1629897197218,-36.71
1629897197234,-39.15
1629897197250,-38.7
1629897197265,-34.71
1629897197281,-27.33
1629897197296,-17.47
1629897197312,-6.52
1629897197328,4.06
1629897197343,13.2
1629897197359,20.37
1629897197375,25.54
1629897197390,28.9
1629897197406,30.73
1629897197421,31.31
1629897197437,30.95
1629897197453,30.08
1629897197468,29.13
1629897197484,28.4
1629897197500,27.99
1629897197515,27.84
1629897197531,27.79
1629897197546,27.75
1629897197562,27.67
1629897197578,27.46
1629897197593,27.04
1629897197609,26.33
1629897197625,25.53
1629897197640,25.12
1629897197656,25.76
1629897197671,27.91
1629897197687,31.35
1629897197703,35.08
1629897197718,37.54
1629897197734,37.26
1629897197750,33.52
1629897197765,26.63
1629897197781,17.81
1629897197796,8.56
1629897197812,0.02
1629897197828,-7.38
1629897197843,-13.87
1629897197859,-20.06
1629897197875,-26.45
1629897197890,-33.26
1629897197906,-40.38
1629897197921,-47.42
1629897197937,-53.84
1629897197953,-58.94
1629897197968,-61.92
1629897197984,-62.05
1629897198000,-58.87
1629897198015,-52.5
1629897198031,-43.7
1629897198046,-33.73
1629897198062,-23.97
1629897198078,-15.49
1629897198093,-8.8
1629897198109,-3.81
1629897198125,-0.04
1629897198140,3.06
1629897198156,5.79
1629897198171,8.21
1629897198187,10.14
1629897198203,11.47
1629897198218,12.23
1629897198234,12.67
1629897198250,13.16
1629897198265,13.9
1629897198281,14.89
1629897198296,15.8
1629897198312,16.22
1629897198328,15.74
1629897198343,14.24
1629897198359,11.87
1629897198375,8.96
1629897198390,5.89
1629897198406,2.86
1629897198421,-0.14
1629897198437,-3.23
1629897198453,-6.57
1629897198468,-10.2
1629897198484,-13.99
1629897198500,-17.66
1629897198515,-20.89
1629897198531,-23.43
1629897198546,-25.22
1629897198562,-26.42
1629897198578,-27.33
1629897198593,-28.36
1629897198609,-29.96
1629897198625,-32.45
1629897198640,-35.93
1629897198656,-40.18
1629897198671,-44.52
1629897198687,-47.95
1629897198703,-49.33
1629897198718,-47.77
1629897198734,-42.93
1629897198750,-35.23
1629897198765,-25.7
1629897198781,-15.62
1629897198796,-6.15
1629897198812,2.02
1629897198828,8.74
1629897198843,14.26
1629897198859,18.96
1629897198875,23.16
1629897198890,27.0
1629897198906,30.47
1629897198921,33.45
1629897198937,35.79
1629897198953,37.35
1629897198968,38.01
1629897198984,37.79
1629897199000,36.79
1629897199015,35.31
1629897199031,33.7
1629897199046,32.26
1629897199062,31.13
1629897199078,30.24
1629897199093,29.31
1629897199109,27.99
1629897199125,26.03
1629897199140,23.38
1629897199156,20.17
1629897199171,16.66
1629897199187,13.12
1629897199203,9.68
1629897199218,6.31
1629897199234,2.87
1629897199250,-0.91
1629897199265,-5.22
1629897199281,-10.11
1629897199296,-15.46
1629897199312,-20.98
1629897199328,-26.31
1629897199343,-31.14
1629897199359,-35.38
1629897199375,-39.25
1629897199390,-43.29
1629897199406,-48.18
1629897199421,-54.41
1629897199437,-61.9
1629897199453,-69.8
1629897199468,-76.57
1629897199484,-80.4
1629897199500,-79.88
1629897199515,-74.43
1629897199531,-64.59
1629897199546,-51.73
1629897199562,-37.51
1629897199578,-23.46
1629897199593,-10.57
1629897199609,0.66
1629897199625,10.16
1629897199640,18.03
1629897199656,24.55
1629897199671,30.09
1629897199687,35.08
1629897199703,39.84
1629897199718,44.43
1629897199734,48.59
1629897199750,51.83
1629897199765,53.67
1629897199781,53.94
1629897199796,52.83
1629897199812,50.87
1629897199828,48.69
1629897199843,46.77
1629897199859,45.28
1629897199875,44.14
1629897199890,43.07
1629897199906,41.71
1629897199921,39.74
1629897199937,36.96
1629897199953,33.35
1629897199968,29.09
1629897199984,24.53
1629897200000,20.03
1629897200015,15.88
1629897200031,12.16
1629897200046,8.73
1629897200062,5.3
1629897200078,1.63
1629897200093,-2.41
1629897200109,-6.8
1629897200125,-11.32
1629897200140,-15.72
1629897200156,-19.78
1629897200171,-23.41
1629897200187,-26.71
1629897200203,-30.01
1629897200218,-33.74
1629897200234,-38.3
1629897200250,-43.8
1629897200265,-49.87
1629897200281,-55.63
1629897200296,-59.81
1629897200312,-61.15
1629897200328,-58.72
1629897200343,-52.3
1629897200359,-42.44
1629897200375,-30.33
1629897200390,-17.42
1629897200406,-5.08
1629897200421,5.72
1629897200437,14.57
1629897200453,21.48
1629897200468,26.73
1629897200484,30.69
1629897200500,33.73
1629897200515,36.16
1629897200531,38.23
1629897200546,40.12
1629897200562,41.82
1629897200578,43.19
1629897200593,43.93
1629897200609,43.74
1629897200625,42.51
1629897200640,40.38
1629897200656,37.79
1629897200671,35.21
1629897200687,33.07
1629897200703,31.49
1629897200718,30.27
1629897200734,29.01
1629897200750,27.3
1629897200765,24.82
1629897200781,21.5
1629897200796,17.54
1629897200812,13.29
1629897200828,9.17
1629897200843,5.41
1629897200859,1.97
1629897200875,-1.42
1629897200890,-5.15
1629897200906,-9.49
1629897200921,-14.44
1629897200937,-19.76
1629897200953,-25.1
1629897200968,-30.22
1629897200984,-35.09
1629897201000,-39.87
1629897201015,-44.76
1629897201031,-49.9
1629897201046,-55.31
1629897201062,-60.96
1629897201078,-66.78
1629897201093,-72.64
1629897201109,-78.14
1629897201125,-82.51
1629897201140,-84.7
1629897201156,-83.6
1629897201171,-78.53
1629897201187,-69.5
1629897201203,-57.35
1629897201218,-43.54
1629897201234,-29.69
1629897201250,-17.11
1629897201265,-6.58
1629897201281,1.73
1629897201296,8.1
1629897201312,12.96
1629897201328,16.73
1629897201343,19.76
1629897201359,22.28
1629897201375,24.47
1629897201390,26.53
1629897201406,28.63
1629897201421,30.92
1629897201437,33.4
1629897201453,35.94
1629897201468,38.3
1629897201484,40.26
1629897201500,41.69
1629897201515,42.62
1629897201531,43.17
1629897201546,43.49
1629897201562,43.68
1629897201578,43.74
1629897201593,43.56
1629897201609,43.01
1629897201625,42.06
1629897201640,40.7
1629897201656,38.96
1629897201671,36.76
1629897201687,33.93
1629897201703,30.26
1629897201718,25.65
1629897201734,20.26
1629897201750,14.47
1629897201765,8.81
1629897201781,3.75
1629897201796,-0.52
1629897201812,-4.14
1629897201828,-7.53
1629897201843,-11.18
1629897201859,-15.56
1629897201875,-20.89
1629897201890,-27.08
1629897201906,-33.63
1629897201921,-39.63
1629897201937,-43.88
1629897201953,-45.19
1629897201968,-42.76
1629897201984,-36.58
1629897202000,-27.54
1629897202015,-17.14
1629897202031,-7.04
1629897202046,1.45
1629897202062,7.8
1629897202078,12.21
1629897202093,15.35
1629897202109,17.92
1629897202125,20.4
1629897202140,22.85
1629897202156,25.04
1629897202171,26.63
1629897202187,27.31
1629897202203,27.04
1629897202218,26.0
1629897202234,24.57
1629897202250,23.16
1629897202265,22.1
1629897202281,21.43
1629897202296,20.98
1629897202312,20.4
1629897202328,19.4
1629897202343,17.86
1629897202359,15.9
1629897202375,13.72
1629897202390,11.49
1629897202406,9.18
1629897202421,6.58
1629897202437,3.43
1629897202453,-0.43
1629897202468,-4.88
1629897202484,-9.59
1629897202500,-14.15
1629897202515,-18.21
1629897202531,-21.66
1629897202546,-24.58
1629897202562,-27.21
1629897202578,-29.85
1629897202593,-32.75
1629897202609,-36.1
1629897202625,-40.03
1629897202640,-44.53
1629897202656,-49.35
1629897202671,-53.91
1629897202687,-57.32
1629897202703,-58.52
1629897202718,-56.6
1629897202734,-51.1
1629897202750,-42.26
1629897202765,-30.97
1629897202781,-18.59
1629897202796,-6.56
1629897202812,4.0
1629897202828,12.52
1629897202843,19.0
1629897202859,23.84
1629897202875,27.56
1629897202890,30.56
1629897202906,33.06
1629897202921,35.18
1629897202937,37.01
1629897202953,38.63
1629897202968,40.06
1629897202984,41.16
1629897203000,41.68
1629897203015,41.4
1629897203031,40.26
1629897203046,38.51
1629897203062,36.58
1629897203078,34.84
1629897203093,33.44
1629897203109,32.19
1629897203125,30.69
1629897203140,28.57
1629897203156,25.65
1629897203171,22.04
1629897203187,17.99
1629897203203,13.83
1629897203218,9.76
1629897203234,5.9
1629897203250,2.24
1629897203265,-1.25
1629897203281,-4.64
1629897203296,-8.01
1629897203312,-11.45
1629897203328,-14.98
1629897203343,-18.56
1629897203359,-22.09
1629897203375,-25.48
1629897203390,-28.75
1629897203406,-32.11
1629897203421,-35.87
1629897203437,-40.39
1629897203453,-45.8
1629897203468,-51.74
1629897203484,-57.29
1629897203500,-61.09
1629897203515,-61.79
1629897203531,-58.53
1629897203546,-51.32
1629897203562,-41.07
1629897203578,-29.24
1629897203593,-17.39
1629897203609,-6.66
1629897203625,2.37
1629897203640,9.64
1629897203656,15.44
1629897203671,20.14
1629897203687,24.06
1629897203703,27.45
1629897203718,30.54
1629897203734,33.47
1629897203750,36.31
1629897203765,38.98
1629897203781,41.29
1629897203796,42.96
1629897203812,43.73
1629897203828,43.47
1629897203843,42.24
1629897203859,40.3
1629897203875,38.04
1629897203890,35.81
1629897203906,33.86
1629897203921,32.24
1629897203937,30.75
1629897203953,29.08
1629897203968,26.89
1629897203984,23.9
1629897204000,20.05
1629897204015,15.51
1629897204031,10.69
1629897204046,6.11
1629897204062,2.17
1629897204078,-0.98
1629897204093,-3.59
1629897204109,-6.08
1629897204125,-8.93
1629897204140,-12.35
1629897204156,-16.14
1629897204171,-19.89
1629897204187,-23.1
1629897204203,-25.59
1629897204218,-27.48
1629897204234,-29.33
1629897204250,-31.79
1629897204265,-35.51
1629897204281,-40.77
1629897204296,-47.36
1629897204312,-54.44
1629897204328,-60.66
1629897204343,-64.43
1629897204359,-64.39
1629897204375,-59.89
1629897204390,-51.24
1629897204406,-39.63
1629897204421,-26.75
1629897204437,-14.26
1629897204453,-3.34
1629897204468,5.52
1629897204484,12.4
1629897204500,17.78
1629897204515,22.19
1629897204531,26.1
1629897204546,29.73
1629897204562,33.13
1629897204578,36.21
1629897204593,38.76
1629897204609,40.65
1629897204625,41.84
1629897204640,42.4
1629897204656,42.46
1629897204671,42.09
1629897204687,41.31
1629897204703,40.12
1629897204718,38.61
1629897204734,36.92
1629897204750,35.22
1629897204765,33.57
1629897204781,31.8
1629897204796,29.67
1629897204812,26.92
1629897204828,23.52
1629897204843,19.65
1629897204859,15.7
1629897204875,12.0
1629897204890,8.71
1629897204906,5.76
1629897204921,2.92
1629897204937,-0.09
1629897204953,-3.46
1629897204968,-7.21
1629897204984,-11.22
1629897205000,-15.24
1629897205015,-19.07
1629897205031,-22.56
1629897205046,-25.71
1629897205062,-28.62
1629897205078,-31.45
1629897205093,-34.38
1629897205109,-37.57
1629897205125,-41.21
1629897205140,-45.5
1629897205156,-50.54
1629897205171,-56.08
1629897205187,-61.42
1629897205203,-65.37
1629897205218,-66.57
1629897205234,-63.97
1629897205250,-57.31
1629897205265,-47.24
1629897205281,-35.19
1629897205296,-22.83
1629897205312,-11.58
1629897205328,-2.23
1629897205343,5.09
1629897205359,10.74
1629897205375,15.25
1629897205390,19.05
1629897205406,22.39
1629897205421,25.32
1629897205437,27.79
1629897205453,29.8
1629897205468,31.37
1629897205484,32.61
1629897205500,33.58
1629897205515,34.27
1629897205531,34.55
1629897205546,34.23
1629897205562,33.16
1629897205578,31.42
1629897205593,29.32
1629897205609,27.28
1629897205625,25.7
1629897205640,24.74
1629897205656,24.21
1629897205671,23.66
1629897205687,22.59
1629897205703,20.62
1629897205718,17.67
1629897205734,13.99
1629897205750,10.03
1629897205765,6.34
1629897205781,3.31
1629897205796,1.07
1629897205812,-0.54
1629897205828,-1.93
1629897205843,-3.61
1629897205859,-5.96
1629897205875,-9.13
1629897205890,-12.96
1629897205906,-17.07
1629897205921,-20.99
1629897205937,-24.37
1629897205953,-27.1
1629897205968,-29.36
1629897205984,-31.6
1629897206000,-34.41
1629897206015,-38.25
1629897206031,-43.23
1629897206046,-48.85
1629897206062,-54.05
1629897206078,-57.48
1629897206093,-57.87
1629897206109,-54.48
1629897206125,-47.32
1629897206140,-37.17
1629897206156,-25.25
1629897206171,-12.96
1629897206187,-1.49
1629897206203,8.36
1629897206218,16.17
1629897206234,21.92
1629897206250,25.78
1629897206265,28.1
1629897206281,29.32
1629897206296,29.86
1629897206312,30.04
1629897206328,30.05
1629897206343,29.87
1629897206359,29.44
1629897206375,28.73
1629897206390,27.77
1629897206406,26.72
1629897206421,25.8
1629897206437,25.1
1629897206453,24.59
1629897206468,24.09
1629897206484,23.3
1629897206500,21.98
1629897206515,20.01
1629897206531,17.44
1629897206546,14.43
1629897206562,11.21
1629897206578,8.03
1629897206593,5.08
1629897206609,2.44
1629897206625,0.06
1629897206640,-2.28
1629897206656,-4.8
1629897206671,-7.74
1629897206687,-11.1
1629897206703,-14.73
1629897206718,-18.34
1629897206734,-21.63
1629897206750,-24.49
1629897206765,-27.04
1629897206781,-29.6
1629897206796,-32.59
1629897206812,-36.35
1629897206828,-40.99
1629897206843,-46.27
1629897206859,-51.49
1629897206875,-55.63
1629897206890,-57.48
1629897206906,-55.99
1629897206921,-50.71
1629897206937,-41.99
1629897206953,-31.01
1629897206968,-19.36
1629897206984,-8.6
1629897207000,0.26
1629897207015,6.92
1629897207031,11.72
1629897207046,15.25
1629897207062,18.04
1629897207078,20.38
1629897207093,22.34
1629897207109,23.87
1629897207125,25.01
1629897207140,25.84
1629897207156,26.47
1629897207171,26.92
1629897207187,27.09
1629897207203,26.85
1629897207218,26.07
1629897207234,24.73
1629897207250,22.94
1629897207265,20.9
1629897207281,18.8
1629897207296,16.79
1629897207312,14.89
1629897207328,13.05
1629897207343,11.18
1629897207359,9.2
1629897207375,7.06
1629897207390,4.72
1629897207406,2.17
1629897207421,-0.64
1629897207437,-3.71
1629897207453,-6.94
1629897207468,-10.13
1629897207484,-12.96
1629897207500,-15.14
1629897207515,-16.58
1629897207531,-17.46
1629897207546,-18.26
1629897207562,-19.64
1629897207578,-22.21
1629897207593,-26.33
1629897207609,-31.87
1629897207625,-38.19
1629897207640,-44.2
1629897207656,-48.58
1629897207671,-50.08
1629897207687,-47.95
1629897207703,-42.13
1629897207718,-33.33
1629897207734,-22.87
1629897207750,-12.25
1629897207765,-2.66
1629897207781,5.27
1629897207796,11.58
1629897207812,16.7
1629897207828,21.13
1629897207843,25.12
1629897207859,28.66
1629897207875,31.61
1629897207890,33.88
1629897207906,35.56
1629897207921,36.86
1629897207937,37.9
1629897207953,38.61
1629897207968,38.72
1629897207984,37.95
1629897208000,36.22
1629897208015,33.76
1629897208031,31.11
1629897208046,28.83
1629897208062,27.28
1629897208078,26.41
1629897208093,25.86
1629897208109,25.07
1629897208125,23.62
1629897208140,21.3
1629897208156,18.25
1629897208171,14.82
1629897208187,11.45
1629897208203,8.49
1629897208218,6.03
1629897208234,3.91
1629897208250,1.73
1629897208265,-0.98
1629897208281,-4.51
1629897208296,-8.9
1629897208312,-13.8
1629897208328,-18.66
1629897208343,-22.91
1629897208359,-26.24
1629897208375,-28.71
1629897208390,-30.75
1629897208406,-33.03
1629897208421,-36.14
1629897208437,-40.48
1629897208453,-45.95
1629897208468,-51.98
1629897208484,-57.51
1629897208500,-61.19
1629897208515,-61.72
1629897208531,-58.21
1629897208546,-50.6
1629897208562,-39.59
1629897208578,-26.61
1629897208593,-13.32
1629897208609,-1.18
1629897208625,8.9
1629897208640,16.69
1629897208656,22.51
1629897208671,26.97
1629897208687,30.68
1629897208703,34.05
1629897208718,37.2
1629897208734,40.05
1629897208750,42.44
1629897208765,44.21
1629897208781,45.29
1629897208796,45.67
1629897208812,45.38
1629897208828,44.5
1629897208843,43.1
1629897208859,41.3
1629897208875,39.22
1629897208890,37.03
1629897208906,34.84
1629897208921,32.74
1629897208937,30.67
1629897208953,28.53
1629897208968,26.18
1629897208984,23.44
1629897209000,20.23
1629897209015,16.62
1629897209031,12.84
1629897209046,9.19
1629897209062,5.96
1629897209078,3.26
1629897209093,0.97
1629897209109,-1.26
1629897209125,-3.81
1629897209140,-7.02
1629897209156,-10.93
1629897209171,-15.31
1629897209187,-19.77
1629897209203,-23.82
1629897209218,-27.12
1629897209234,-29.59
1629897209250,-31.52
1629897209265,-33.45
1629897209281,-36.08
1629897209296,-39.98
1629897209312,-45.42
1629897209328,-52.19
1629897209343,-59.55
1629897209359,-66.3
1629897209375,-70.98
1629897209390,-72.22
1629897209406,-69.07
1629897209421,-61.4
1629897209437,-50.02
1629897209453,-36.54
1629897209468,-22.85
1629897209484,-10.53
1629897209500,-0.4
1629897209515,7.58
1629897209531,14.02
1629897209546,19.61
1629897209562,24.75
1629897209578,29.46
1629897209593,33.49
1629897209609,36.65
1629897209625,39.01
1629897209640,40.77
1629897209656,42.21
1629897209671,43.4
1629897209687,44.17
1629897209703,44.19
1629897209718,43.2
1629897209734,41.21
1629897209750,38.57
1629897209765,35.85
1629897209781,33.57
1629897209796,32.01
1629897209812,31.06
1629897209828,30.33
1629897209843,29.28
1629897209859,27.52
1629897209875,24.86
1629897209890,21.36
1629897209906,17.26
1629897209921,12.82
1629897209937,8.35
1629897209953,4.16
1629897209968,0.5
1629897209984,-2.5
1629897210000,-4.89
1629897210015,-6.95
1629897210031,-9.13
1629897210046,-11.79
1629897210062,-15.16
1629897210078,-19.09
1629897210093,-23.26
1629897210109,-27.26
1629897210125,-30.78
1629897210140,-33.81
1629897210156,-36.57
1629897210171,-39.49
1629897210187,-43.04
1629897210203,-47.55
1629897210218,-52.99
1629897210234,-58.82
1629897210250,-64.03
1629897210265,-67.32
1629897210281,-67.42
1629897210296,-63.52
1629897210312,-55.57
1629897210328,-44.3
1629897210343,-31.13
1629897210359,-17.68
1629897210375,-5.4
1629897210390,4.81
1629897210406,12.68
1629897210421,18.5
1629897210437,22.89
1629897210453,26.53
1629897210468,29.97
1629897210484,33.42
1629897210500,36.8
1629897210515,39.75
1629897210531,41.9
1629897210546,43.06
1629897210562,43.32
1629897210578,42.98
1629897210593,42.39
1629897210609,41.73
1629897210625,40.99
1629897210640,40.02
1629897210656,38.73
1629897210671,37.24
1629897210687,35.81
1629897210703,34.71
1629897210718,34.02
1629897210734,33.57
1629897210750,32.98
1629897210765,31.82
1629897210781,29.86
1629897210796,27.09
1629897210812,23.77
1629897210828,20.25
1629897210843,16.83
1629897210859,13.63
1629897210875,10.51
1629897210890,7.18
1629897210906,3.31
1629897210921,-1.27
1629897210937,-6.5
1629897210953,-12.01
1629897210968,-17.37
1629897210984,-22.19
1629897211000,-26.31
1629897211015,-29.87
1629897211031,-33.15
1629897211046,-36.43
1629897211062,-39.93
1629897211078,-43.82
1629897211093,-48.23
1629897211109,-53.28
1629897211125,-58.84
1629897211140,-64.4
1629897211156,-68.92
1629897211171,-71.04
1629897211187,-69.46
1629897211203,-63.48
1629897211218,-53.36
1629897211234,-40.34
1629897211250,-26.32
1629897211265,-13.13
1629897211281,-2.07
1629897211296,6.39
1629897211312,12.52
1629897211328,16.93
1629897211343,20.22
1629897211359,22.73
1629897211375,24.66
1629897211390,26.12
1629897211406,27.31
1629897211421,28.47
1629897211437,29.76
1629897211453,31.2
1629897211468,32.6
1629897211484,33.64
1629897211500,34.12
1629897211515,34.05
1629897211531,33.62
1629897211546,33.14
1629897211562,32.83
1629897211578,32.75
1629897211593,32.79
1629897211609,32.63
1629897211625,31.88
1629897211640,30.21
1629897211656,27.44
1629897211671,23.64
1629897211687,19.18
1629897211703,14.62
1629897211718,10.49
1629897211734,7.11
1629897211750,4.4
1629897211765,2.0
1629897211781,-0.58
1629897211796,-3.66
1629897211812,-7.26
1629897211828,-11.11
1629897211843,-14.8
1629897211859,-18.02
1629897211875,-20.67
1629897211890,-22.98
1629897211906,-25.36
1629897211921,-28.33
1629897211937,-32.41
1629897211953,-37.82
1629897211968,-44.35
1629897211984,-51.23
1629897212000,-57.1
1629897212015,-60.39
1629897212031,-59.7
1629897212046,-54.4
1629897212062,-44.89
1629897212078,-32.55
1629897212093,-19.21
1629897212109,-6.67
1629897212125,3.88
1629897212140,11.98
1629897212156,17.77
1629897212171,21.72
1629897212187,24.35
1629897212203,26.12
1629897212218,27.34
1629897212234,28.27
1629897212250,29.04
1629897212265,29.68
1629897212281,30.13
1629897212296,30.27
1629897212312,30.05
1629897212328,29.51
1629897212343,28.78
1629897212359,28.01
1629897212375,27.29
1629897212390,26.61
1629897212406,25.87
1629897212421,24.93
1629897212437,23.62
1629897212453,21.81
1629897212468,19.42
1629897212484,16.47
1629897212500,13.1
1629897212515,9.5
1629897212531,5.88
1629897212546,2.37
1629897212562,-1.07
1629897212578,-4.53
1629897212593,-8.09
1629897212609,-11.75
1629897212625,-15.4
1629897212640,-18.85
1629897212656,-22.0
1629897212671,-24.9
1629897212687,-27.73
1629897212703,-30.79
1629897212718,-34.43
1629897212734,-38.88
1629897212750,-44.14
1629897212765,-49.92
1629897212781,-55.46
1629897212796,-59.67
1629897212812,-61.3
1629897212828,-59.35
1629897212843,-53.44
1629897212859,-44.03
1629897212875,-32.34
1629897212890,-19.93
1629897212906,-8.28
1629897212921,1.61
1629897212937,9.38
1629897212953,15.19
1629897212968,19.52
1629897212984,22.86
1629897213000,25.62
1629897213015,28.03
1629897213031,30.15
1629897213046,31.93
1629897213062,33.28
1629897213078,34.16
1629897213093,34.58
1629897213109,34.69
1629897213125,34.61
1629897213140,34.42
1629897213156,34.13
1629897213171,33.65
1629897213187,32.91
1629897213203,31.94
1629897213218,30.75
1629897213234,29.32
1629897213250,27.52
1629897213265,25.11
1629897213281,21.94
1629897213296,18.05
1629897213312,13.77
1629897213328,9.59
1629897213343,5.99
1629897213359,3.17
1629897213375,0.92
1629897213390,-1.2
1629897213406,-3.71
1629897213421,-6.96
1629897213437,-10.96
1629897213453,-15.46
1629897213468,-20.03
1629897213484,-24.36
1629897213500,-28.33
1629897213515,-32.06
1629897213531,-35.88
1629897213546,-40.17
1629897213562,-45.25
1629897213578,-51.16
1629897213593,-57.58
1629897213609,-63.66
1629897213625,-68.22
1629897213640,-69.92
1629897213656,-67.71
1629897213671,-61.19
1629897213687,-50.82
1629897213703,-37.85
1629897213718,-23.99
1629897213734,-10.91
1629897213750,0.24
1629897213765,9.04
1629897213781,15.74
1629897213796,20.98
1629897213812,25.44
1629897213828,29.57
1629897213843,33.5
1629897213859,37.13
1629897213875,40.24
1629897213890,42.66
1629897213906,44.3
1629897213921,45.16
1629897213937,45.29
1629897213953,44.76
1629897213968,43.71
1629897213984,42.3
1629897214000,40.77
1629897214015,39.31
1629897214031,38.07
1629897214046,37.01
1629897214062,35.94
1629897214078,34.57
1629897214093,32.58
1629897214109,29.81
1629897214125,26.23
1629897214140,22.07
1629897214156,17.63
1629897214171,13.31
1629897214187,9.4
1629897214203,6.02
1629897214218,3.05
1629897214234,0.21
1629897214250,-2.86
1629897214265,-6.4
1629897214281,-10.41
1629897214296,-14.7
1629897214312,-18.9
1629897214328,-22.69
1629897214343,-25.87
1629897214359,-28.53
1629897214375,-30.96
1629897214390,-33.58
1629897214406,-36.85
1629897214421,-41.19
1629897214437,-46.8
1629897214453,-53.5
1629897214468,-60.58
1629897214484,-66.85
1629897214500,-70.81
1629897214515,-71.08
1629897214531,-66.91
1629897214546,-58.49
1629897214562,-46.86
1629897214578,-33.65
1629897214593,-20.57
1629897214609,-8.94
1629897214625,0.54
1629897214640,7.85
1629897214656,13.42
1629897214671,17.95
1629897214687,22.07
1629897214703,26.25
1629897214718,30.59
1629897214734,34.89
1629897214750,38.7
1629897214765,41.56
1629897214781,43.19
1629897214796,43.56
1629897214812,42.94
1629897214828,41.7
1629897214843,40.23
1629897214859,38.8
1629897214875,37.51
1629897214890,36.4
1629897214906,35.41
1629897214921,34.48
1629897214937,33.52
1629897214953,32.4
1629897214968,30.94
1629897214984,28.95
1629897215000,26.28
1629897215015,22.89
1629897215031,18.95
1629897215046,14.8
1629897215062,10.84
1629897215078,7.37
1629897215093,4.4
1629897215109,1.65
1629897215125,-1.35
1629897215140,-5.0
1629897215156,-9.41
1629897215171,-14.3
1629897215187,-19.15
1629897215203,-23.43
1629897215218,-26.84
1629897215234,-29.48
1629897215250,-31.79
1629897215265,-34.41
1629897215281,-37.95
1629897215296,-42.76
1629897215312,-48.78
1629897215328,-55.46
1629897215343,-61.78
1629897215359,-66.38
1629897215375,-67.9
1629897215390,-65.35
1629897215406,-58.47
1629897215421,-47.84
1629897215437,-34.82
1629897215453,-21.11
1629897215468,-8.27
1629897215484,2.6
1629897215500,11.18
1629897215515,17.74
1629897215531,22.92
1629897215546,27.36
1629897215562,31.44
1629897215578,35.22
1629897215593,38.46
1629897215609,40.93
1629897215625,42.44
1629897215640,43.04
1629897215656,42.91
1629897215671,42.31
1629897215687,41.44
1629897215703,40.39
1629897215718,39.18
1629897215734,37.79
1629897215750,36.24
1629897215765,34.63
1629897215781,33.09
1629897215796,31.68
1629897215812,30.29
1629897215828,28.68
1629897215843,26.51
1629897215859,23.54
1629897215875,19.76
1629897215890,15.47
1629897215906,11.15
1629897215921,7.32
1629897215937,4.23
1629897215953,1.77
1629897215968,-0.43
1629897215984,-2.86
1629897216000,-5.89
1629897216015,-9.6
1629897216031,-13.77
1629897216046,-18.05
1629897216062,-22.11
1629897216078,-25.74
1629897216093,-28.92
1629897216109,-31.79
1629897216125,-34.56
1629897216140,-37.55
1629897216156,-41.09
1629897216171,-45.52
1629897216187,-50.93
1629897216203,-56.88
1629897216218,-62.3
1629897216234,-65.65
1629897216250,-65.39
1629897216265,-60.62
1629897216281,-51.5
1629897216296,-39.27
1629897216312,-25.85
1629897216328,-13.12
1629897216343,-2.36
1629897216359,6.04
1629897216375,12.37
1629897216390,17.26
1629897216406,21.29
1629897216421,24.79
1629897216437,27.85
1629897216453,30.51
1629897216468,32.79
1629897216484,34.71
1629897216500,36.26
1629897216515,37.34
1629897216531,37.82
1629897216546,37.62
1629897216562,36.76
1629897216578,35.46
1629897216593,34.08
1629897216609,32.95
1629897216625,32.27
1629897216640,31.96
1629897216656,31.69
1629897216671,30.99
1629897216687,29.47
1629897216703,27.03
1629897216718,23.8
1629897216734,20.16
1629897216750,16.49
1629897216765,13.02
1629897216781,9.73
1629897216796,6.45
1629897216812,3.01
1629897216828,-0.63
1629897216843,-4.35
1629897216859,-7.93
1629897216875,-11.19
1629897216890,-14.14
1629897216906,-16.96
1629897216921,-19.88
1629897216937,-23.08
1629897216953,-26.67
1629897216968,-30.7
1629897216984,-35.22
1629897217000,-40.21
1629897217015,-45.5
1629897217031,-50.52
1629897217046,-54.34
1629897217062,-55.77
1629897217078,-53.82
1629897217093,-48.07
1629897217109,-38.95
1629897217125,-27.62
1629897217140,-15.61
1629897217156,-4.34
1629897217171,5.24
1629897217187,12.82
1629897217203,18.56
1629897217218,22.87
1629897217234,26.15
1629897217250,28.59
1629897217265,30.22
1629897217281,30.96
1629897217296,30.81
1629897217312,29.93
1629897217328,28.66
1629897217343,27.44
1629897217359,26.6
1629897217375,26.25
1629897217390,26.17
1629897217406,26.01
1629897217421,25.4
1629897217437,24.17
1629897217453,22.41
1629897217468,20.37
1629897217484,18.27
1629897217500,16.16
1629897217515,13.88
1629897217531,11.19
1629897217546,7.93
1629897217562,4.14
1629897217578,0.06
1629897217593,-4.01
1629897217609,-7.83
1629897217625,-11.29
1629897217640,-14.44
1629897217656,-17.4
1629897217671,-20.29
1629897217687,-23.25
1629897217703,-26.4
1629897217718,-29.93
1629897217734,-34.02
1629897217750,-38.91
1629897217765,-44.66
1629897217781,-50.99
1629897217796,-57.13
1629897217812,-61.88
1629897217828,-63.85
1629897217843,-61.92
1629897217859,-55.67
1629897217875,-45.63
1629897217890,-33.14
1629897217906,-19.99
1629897217921,-7.83
1629897217937,2.24
1629897217953,9.91
1629897217968,15.47
1629897217984,19.54
1629897218000,22.76
1629897218015,25.58
1629897218031,28.17
1629897218046,30.51
1629897218062,32.45
1629897218078,33.86
1629897218093,34.66
1629897218109,34.86
1629897218125,34.56
1629897218140,33.83
1629897218156,32.8
1629897218171,31.56
1629897218187,30.21
1629897218203,28.81
1629897218218,27.37
1629897218234,25.84
1629897218250,24.13
1629897218265,22.1
1629897218281,19.65
1629897218296,16.78
1629897218312,13.49
1629897218328,9.83
1629897218343,5.86
1629897218359,1.63
1629897218375,-2.79
1629897218390,-7.3
1629897218406,-11.74
1629897218421,-15.93
1629897218437,-19.68
1629897218453,-22.91
1629897218468,-25.71
1629897218484,-28.36
1629897218500,-31.33
1629897218515,-35.15
1629897218531,-40.23
1629897218546,-46.59
1629897218562,-53.67
1629897218578,-60.3
1629897218593,-64.92
1629897218609,-66.03
1629897218625,-62.77
1629897218640,-55.2
1629897218656,-44.34
1629897218671,-31.78
1629897218687,-19.16
1629897218703,-7.72
1629897218718,1.94
1629897218734,9.76
1629897218750,16.07
1629897218765,21.28
1629897218781,25.78
1629897218796,29.88
1629897218812,33.79
1629897218828,37.56
1629897218843,41.09
1629897218859,44.11
1629897218875,46.25
1629897218890,47.28
1629897218906,47.14
1629897218921,46.06
1629897218937,44.38
1629897218953,42.51
1629897218968,40.76
1629897218984,39.27
1629897219000,38.02
1629897219015,36.86
1629897219031,35.56
1629897219046,33.81
1629897219062,31.39
1629897219078,28.18
1629897219093,24.23
1629897219109,19.82
1629897219125,15.3
1629897219140,11.02
1629897219156,7.14
1629897219171,3.65
1629897219187,0.3
1629897219203,-3.18
1629897219218,-7.01
1629897219234,-11.22
1629897219250,-15.63
1629897219265,-19.94
1629897219281,-23.89
1629897219296,-27.37
1629897219312,-30.54
1629897219328,-33.81
1629897219343,-37.71
1629897219359,-42.71
1629897219375,-48.98
1629897219390,-56.19
1629897219406,-63.45
1629897219421,-69.35
1629897219437,-72.33
1629897219453,-71.1
1629897219468,-65.1
1629897219484,-54.79
1629897219500,-41.51
1629897219515,-27.12
1629897219531,-13.38
1629897219546,-1.51
1629897219562,8.12
1629897219578,15.76
1629897219593,22.01
1629897219609,27.41
1629897219625,32.31
1629897219640,36.81
1629897219656,40.94
1629897219671,44.64
1629897219687,47.82
1629897219703,50.31
1629897219718,51.9
1629897219734,52.47
1629897219750,52.01
1629897219765,50.67
1629897219781,48.71
1629897219796,46.42
1629897219812,44.07
1629897219828,41.85
1629897219843,39.85
1629897219859,38.04
1629897219875,36.25
1629897219890,34.21
1629897219906,31.59
1629897219921,28.21
1629897219937,24.09
1629897219953,19.51
1629897219968,14.95
1629897219984,10.84
1629897220000,7.43
1629897220015,4.7
1629897220031,2.38
1629897220046,0.01
1629897220062,-2.87
1629897220078,-6.6
1629897220093,-11.23
1629897220109,-16.5
1629897220125,-21.88
1629897220140,-26.83
1629897220156,-31.0
1629897220171,-34.4
1629897220187,-37.4
1629897220203,-40.57
1629897220218,-44.5
1629897220234,-49.5
1629897220250,-55.52
1629897220265,-61.99
1629897220281,-67.94
1629897220296,-72.1
1629897220312,-73.19
1629897220328,-70.27
1629897220343,-63.08
1629897220359,-52.23
1629897220375,-39.04
1629897220390,-25.24
1629897220406,-12.39
1629897220421,-1.49
1629897220437,7.26
1629897220453,14.27
1629897220468,20.22
1629897220484,25.67
1629897220500,30.87
1629897220515,35.68
1629897220531,39.8
1629897220546,43.0
1629897220562,45.25
1629897220578,46.7
1629897220593,47.58
1629897220609,47.98
1629897220625,47.88
1629897220640,47.19
1629897220656,45.87
1629897220671,44.0
1629897220687,41.81
1629897220703,39.59
1629897220718,37.56
1629897220734,35.78
1629897220750,34.11
1629897220765,32.3
1629897220781,30.06
1629897220796,27.22
1629897220812,23.77
1629897220828,19.95
1629897220843,16.07
1629897220859,12.47
1629897220875,9.35
1629897220890,6.68
1629897220906,4.24
1629897220921,1.64
1629897220937,-1.48
1629897220953,-5.38
1629897220968,-10.06
1629897220984,-15.24
1629897221000,-20.42
1629897221015,-24.99
1629897221031,-28.55
1629897221046,-31.02
1629897221062,-32.77
1629897221078,-34.49
1629897221093,-36.93
1629897221109,-40.65
1629897221125,-45.82
1629897221140,-52.11
1629897221156,-58.77
1629897221171,-64.66
1629897221187,-68.47
1629897221203,-69.01
1629897221218,-65.46
1629897221234,-57.75
1629897221250,-46.65
1629897221265,-33.65
1629897221281,-20.48
1629897221296,-8.63
1629897221312,1.08
1629897221328,8.6
1629897221343,14.4
1629897221359,19.17
1629897221375,23.4
1629897221390,27.37
1629897221406,31.08
1629897221421,34.41
1629897221437,37.25
1629897221453,39.53
1629897221468,41.22
1629897221484,42.27
1629897221500,42.62
1629897221515,42.25
1629897221531,41.23
1629897221546,39.74
1629897221562,38.09
1629897221578,36.56
1629897221593,35.3
1629897221609,34.27
1629897221625,33.26
1629897221640,31.99
1629897221656,30.28
1629897221671,28.04
1629897221687,25.33
1629897221703,22.22
1629897221718,18.83
1629897221734,15.29
1629897221750,11.78
1629897221765,8.52
1629897221781,5.6
1629897221796,3.05
1629897221812,0.64
1629897221828,-1.93
1629897221843,-4.93
1629897221859,-8.41
1629897221875,-12.2
1629897221890,-15.96
1629897221906,-19.41
1629897221921,-22.43
1629897221937,-25.22
1629897221953,-28.19
1629897221968,-31.78
1629897221984,-36.29
1629897222000,-41.74
1629897222015,-47.72
1629897222031,-53.46
1629897222046,-57.94
1629897222062,-60.06
1629897222078,-58.91
1629897222093,-54.09
1629897222109,-45.81
1629897222125,-34.92
1629897222140,-22.76
1629897222156,-10.73
1629897222171,-0.03
1629897222187,8.66
1629897222203,15.21
1629897222218,19.88
1629897222234,23.13
1629897222250,25.43
1629897222265,27.19
1629897222281,28.64
1629897222296,29.9
1629897222312,30.94
1629897222328,31.63
1629897222343,31.84
1629897222359,31.49
1629897222375,30.64
1629897222390,29.44
1629897222406,28.12
1629897222421,26.92
1629897222437,25.93
1629897222453,25.16
1629897222468,24.41
1629897222484,23.44
1629897222500,21.97
1629897222515,19.83
1629897222531,17.0
1629897222546,13.63
1629897222562,10.02
1629897222578,6.52
1629897222593,3.37
1629897222609,0.63
1629897222625,-1.81
1629897222640,-4.2
1629897222656,-6.75
1629897222671,-9.57
1629897222687,-12.68
1629897222703,-16.0
1629897222718,-19.45
1629897222734,-22.97
1629897222750,-26.6
1629897222765,-30.49
1629897222781,-34.86
1629897222796,-39.9
1629897222812,-45.6
1629897222828,-51.6
1629897222843,-57.04
1629897222859,-60.76
1629897222875,-61.52
1629897222890,-58.45
1629897222906,-51.46
1629897222921,-41.27
1629897222937,-29.27
1629897222953,-16.99
1629897222968,-5.72
1629897222984,3.84
1629897223000,11.54
1629897223015,17.59
1629897223031,22.33
1629897223046,26.02
1629897223062,28.81
1629897223078,30.77
1629897223093,32.0
1629897223109,32.63
1629897223125,32.81
1629897223140,32.68
1629897223156,32.31
1629897223171,31.71
1629897223187,30.9
1629897223203,29.9
1629897223218,28.77
1629897223234,27.59
1629897223250,26.4
1629897223265,25.23
1629897223281,24.02
1629897223296,22.64
1629897223312,20.95
1629897223328,18.84
1629897223343,16.27
1629897223359,13.3
1629897223375,10.1
1629897223390,6.89
1629897223406,3.85
1629897223421,1.07
1629897223437,-1.54
1629897223453,-4.25
1629897223468,-7.35
1629897223484,-11.05
1629897223500,-15.31
1629897223515,-19.79
1629897223531,-23.93
1629897223546,-27.29
1629897223562,-29.68
1629897223578,-31.41
1629897223593,-33.19
1629897223609,-35.87
1629897223625,-40.11
1629897223640,-45.96
1629897223656,-52.68
1629897223671,-58.89
1629897223687,-62.87
1629897223703,-63.18
1629897223718,-59.1
1629897223734,-50.89
1629897223750,-39.75
1629897223765,-27.36
1629897223781,-15.34
1629897223796,-4.86
1629897223812,3.62
1629897223828,10.28
1629897223843,15.63
1629897223859,20.2
1629897223875,24.36
1629897223890,28.22
1629897223906,31.73
1629897223921,34.85
1629897223937,37.51
1629897223953,39.73
1629897223968,41.49
1629897223984,42.75
1629897224000,43.39
1629897224015,43.31
1629897224031,42.54
1629897224046,41.19
1629897224062,39.49
1629897224078,37.68
1629897224093,35.9
1629897224109,34.18
1629897224125,32.43
1629897224140,30.47
1629897224156,28.09
1629897224171,25.17
1629897224187,21.69
1629897224203,17.83
1629897224218,13.89
1629897224234,10.24
1629897224250,7.09
1629897224265,4.45
1629897224281,2.04
1629897224296,-0.52
1629897224312,-3.56
1629897224328,-7.15
1629897224343,-11.12
1629897224359,-15.16
1629897224375,-18.94
1629897224390,-22.28
1629897224406,-25.13
1629897224421,-27.58
1629897224437,-29.88
1629897224453,-32.36
1629897224468,-35.5
1629897224484,-39.74
1629897224500,-45.31
1629897224515,-52.08
1629897224531,-59.27
1629897224546,-65.66
1629897224562,-69.73
1629897224578,-70.17
1629897224593,-66.26
1629897224609,-58.13
1629897224625,-46.76
1629897224640,-33.72
1629897224656,-20.7
1629897224671,-9.05
1629897224687,0.47
1629897224703,7.85
1629897224718,13.56
1629897224734,18.32
1629897224750,22.74
1629897224765,27.13
1629897224781,31.48
1629897224796,35.55
1629897224812,39.05
1629897224828,41.75
1629897224843,43.56
1629897224859,44.49
1629897224875,44.61
1629897224890,44.01
1629897224906,42.78
1629897224921,41.06
1629897224937,39.05
1629897224953,36.96
1629897224968,34.99
1629897224984,33.25
1629897225000,31.7
1629897225015,30.16
1629897225031,28.37
1629897225046,26.08
1629897225062,23.13
1629897225078,19.57
1629897225093,15.66
1629897225109,11.76
1629897225125,8.23
1629897225140,5.23
1629897225156,2.71
1629897225171,0.38
1629897225187,-2.08
1629897225203,-4.94
1629897225218,-8.24
1629897225234,-11.91
1629897225250,-15.73
1629897225265,-19.48
1629897225281,-22.92
1629897225296,-25.9
1629897225312,-28.39
1629897225328,-30.54
1629897225343,-32.69
1629897225359,-35.34
1629897225375,-38.96
1629897225390,-43.85
1629897225406,-49.92
1629897225421,-56.61
1629897225437,-62.89
1629897225453,-67.41
1629897225468,-68.8
1629897225484,-66.09
1629897225500,-59.11
1629897225515,-48.56
1629897225531,-35.91
1629897225546,-22.88
1629897225562,-11.0
1629897225578,-1.14
1629897225593,6.54
1629897225609,12.44
1629897225625,17.15
1629897225640,21.18
1629897225656,24.84
1629897225671,28.23
1629897225687,31.43
1629897225703,34.44
1629897225718,37.25
1629897225734,39.69
1629897225750,41.53
1629897225765,42.49
1629897225781,42.35
1629897225796,41.14
1629897225812,39.1
1629897225828,36.71
1629897225843,34.48
1629897225859,32.8
1629897225875,31.77
1629897225890,31.2
1629897225906,30.69
1629897225921,29.8
1629897225937,28.21
1629897225953,25.75
1629897225968,22.48
1629897225984,18.64
1629897226000,14.56
1629897226015,10.64
1629897226031,7.17
1629897226046,4.28
1629897226062,1.86
1629897226078,-0.41
1629897226093,-2.91
1629897226109,-5.91
1629897226125,-9.44
1629897226140,-13.28
1629897226156,-17.08
1629897226171,-20.55
1629897226187,-23.6
1629897226203,-26.34
1629897226218,-28.98
1629897226234,-31.79
1629897226250,-35.01
1629897226265,-38.84
1629897226281,-43.47
1629897226296,-48.93
1629897226312,-54.89
1629897226328,-60.54
1629897226343,-64.64
1629897226359,-65.84
1629897226375,-63.12
1629897226390,-56.22
1629897226406,-45.83
1629897226421,-33.39
1629897226437,-20.6
1629897226453,-8.92
1629897226468,0.78
1629897226484,8.34
1629897226500,14.06
1629897226515,18.49
1629897226531,22.12
1629897226546,25.3
1629897226562,28.09
1629897226578,30.48
1629897226593,32.36
1629897226609,33.64
1629897226625,34.34
1629897226640,34.55
1629897226656,34.41
1629897226671,34.07
1629897226687,33.63
1629897226703,33.12
1629897226718,32.54
1629897226734,31.82
1629897226750,30.9
1629897226765,29.77
1629897226781,28.41
1629897226796,26.77
1629897226812,24.83
1629897226828,22.53
1629897226843,19.85
1629897226859,16.86
1629897226875,13.69
1629897226890,10.56
1629897226906,7.63
1629897226921,4.9
1629897226937,2.18
1629897226953,-0.8
1629897226968,-4.26
1629897226984,-8.23
1629897227000,-12.46
1629897227015,-16.56
1629897227031,-20.19
1629897227046,-23.16
1629897227062,-25.6
1629897227078,-27.87
1629897227093,-30.46
1629897227109,-33.85
1629897227125,-38.32
1629897227140,-43.8
1629897227156,-49.75
1629897227171,-55.1
1629897227187,-58.46
1629897227203,-58.5
1629897227218,-54.43
1629897227234,-46.33
1629897227250,-35.23
1629897227265,-22.77
1629897227281,-10.63
1629897227296,-0.09
1629897227312,8.27
1629897227328,14.5
1629897227343,18.97
1629897227359,22.14
1629897227375,24.34
1629897227390,25.81
1629897227406,26.74
1629897227421,27.33
1629897227437,27.74
1629897227453,28.05
1629897227468,28.23
1629897227484,28.18
1629897227500,27.86
1629897227515,27.32
1629897227531,26.69
1629897227546,26.17
1629897227562,25.82
1629897227578,25.52
1629897227593,25.04
1629897227609,24.12
1629897227625,22.6
1629897227640,20.49
1629897227656,17.96
1629897227671,15.21
1629897227687,12.39
1629897227703,9.52
1629897227718,6.44
1629897227734,2.98
1629897227750,-0.97
1629897227765,-5.35
1629897227781,-9.9
1629897227796,-14.27
1629897227812,-18.11
1629897227828,-21.28
1629897227843,-23.86
1629897227859,-26.2
1629897227875,-28.68
1629897227890,-31.77
1629897227906,-35.82
1629897227921,-40.98
1629897227937,-47.08
1629897227953,-53.5
1629897227968,-59.15
1629897227984,-62.57
1629897228000,-62.39
1629897228015,-57.76
1629897228031,-48.81
1629897228046,-36.66
1629897228062,-23.17
1629897228078,-10.35
1629897228093,0.38
1629897228109,8.41
1629897228125,14.05
1629897228140,18.05
1629897228156,21.32
1629897228171,24.42
1629897228187,27.56
1629897228203,30.62
1629897228218,33.27
1629897228234,35.24
1629897228250,36.34
1629897228265,36.52
1629897228281,35.87
1629897228296,34.56
1629897228312,32.79
1629897228328,30.8
1629897228343,28.83
1629897228359,27.06
1629897228375,25.6
1629897228390,24.42
1629897228406,23.31
1629897228421,21.94
1629897228437,20.07
1629897228453,17.54
1629897228468,14.45
1629897228484,11.07
1629897228500,7.65
1629897228515,4.33
1629897228531,1.01
1629897228546,-2.54
1629897228562,-6.52
1629897228578,-10.89
1629897228593,-15.39
1629897228609,-19.62
1629897228625,-23.26
1629897228640,-26.26
1629897228656,-28.82
1629897228671,-31.34
1629897228687,-34.26
1629897228703,-37.97
1629897228718,-42.77
1629897228734,-48.68
1629897228750,-55.29
1629897228765,-61.64
1629897228781,-66.29
1629897228796,-67.63
1629897228812,-64.51
1629897228828,-56.71
1629897228843,-45.13
1629897228859,-31.52
1629897228875,-17.81
1629897228890,-5.53
1629897228906,4.59
1629897228921,12.59
1629897228937,18.94
1629897228953,24.15
1629897228968,28.57
1629897228984,32.37
1629897229000,35.64
1629897229015,38.48
1629897229031,40.95
1629897229046,43.06
1629897229062,44.66
1629897229078,45.54
1629897229093,45.54
1629897229109,44.66
1629897229125,43.16
1629897229140,41.4
1629897229156,39.73
1629897229171,38.32
1629897229187,37.12
1629897229203,35.89
1629897229218,34.34
1629897229234,32.23
1629897229250,29.45
1629897229265,26.02
1629897229281,22.12
1629897229296,18.03
1629897229312,14.06
1629897229328,10.49
1629897229343,7.37
1629897229359,4.52
1629897229375,1.57
1629897229390,-1.83
1629897229406,-5.87
1629897229421,-10.45
1629897229437,-15.22
1629897229453,-19.82
1629897229468,-24.04
1629897229484,-27.88
1629897229500,-31.54
1629897229515,-35.31
1629897229531,-39.47
1629897229546,-44.28
1629897229562,-49.89
1629897229578,-56.22
1629897229593,-62.83
1629897229609,-68.72
1629897229625,-72.51
1629897229640,-72.83
1629897229656,-68.79
1629897229671,-60.4
1629897229687,-48.61
1629897229703,-35.03
1629897229718,-21.35
1629897229734,-8.91
1629897229750,1.59
1629897229765,10.04
1629897229781,16.76
1629897229796,22.21
1629897229812,26.87
1629897229828,31.09
1629897229843,35.1
1629897229859,39.02
1629897229875,42.8
1629897229890,46.26
1629897229906,49.13
1629897229921,51.13
1629897229937,52.04
1629897229953,51.79
1629897229968,50.49
1629897229984,48.43
1629897230000,46.06
1629897230015,43.76
1629897230031,41.83
1629897230046,40.26
1629897230062,38.83
1629897230078,37.16
1629897230093,34.93
1629897230109,32.01
1629897230125,28.47
1629897230140,24.6
1629897230156,20.74
1629897230171,17.19
1629897230187,14.02
1629897230203,11.18
1629897230218,8.44
1629897230234,5.46
1629897230250,1.98
1629897230265,-2.17
1629897230281,-6.95
1629897230296,-12.13
1629897230312,-17.38
1629897230328,-22.38
1629897230343,-26.93
1629897230359,-31.06
1629897230375,-34.9
1629897230390,-38.73
1629897230406,-42.86
1629897230421,-47.66
1629897230437,-53.38
1629897230453,-60.01
1629897230468,-67.05
1629897230484,-73.42
1629897230500,-77.65
1629897230515,-78.27
1629897230531,-74.38
1629897230546,-66.0
1629897230562,-54.1
1629897230578,-40.31
1629897230593,-26.37
1629897230609,-13.59
1629897230625,-2.6
1629897230640,6.59
1629897230656,14.33
1629897230671,21.12
1629897230687,27.27
1629897230703,32.94
1629897230718,38.14
1629897230734,42.77
1629897230750,46.67
1629897230765,49.74
1629897230781,51.85
1629897230796,52.98
1629897230812,53.18
1629897230828,52.56
1629897230843,51.29
1629897230859,49.6
1629897230875,47.69
1629897230890,45.73
1629897230906,43.85
1629897230921,42.1
1629897230937,40.45
1629897230953,38.81
1629897230968,36.94
1629897230984,34.65
1629897231000,31.76
1629897231015,28.26
1629897231031,24.29
1629897231046,20.13
1629897231062,16.07
1629897231078,12.33
1629897231093,9.01
1629897231109,6.02
1629897231125,3.14
1629897231140,0.09
1629897231156,-3.36
1629897231171,-7.34
1629897231187,-11.77
1629897231203,-16.45
1629897231218,-21.08
1629897231234,-25.46
1629897231250,-29.48
1629897231265,-33.22
1629897231281,-36.89
1629897231296,-40.8
1629897231312,-45.23
1629897231328,-50.36
1629897231343,-56.2
1629897231359,-62.49
1629897231375,-68.53
1629897231390,-73.3
1629897231406,-75.49
1629897231421,-73.92
1629897231437,-67.94
1629897231453,-57.72
1629897231468,-44.32
1629897231484,-29.49
1629897231500,-15.12
1629897231515,-2.69
1629897231531,7.06
1629897231546,14.29
1629897231562,19.74
1629897231578,24.3
1629897231593,28.59
1629897231609,32.79
1629897231625,36.76
1629897231640,40.21
1629897231656,42.95
1629897231671,44.96
1629897231687,46.31
1629897231703,47.05
1629897231718,47.16
1629897231734,46.58
1629897231750,45.33
1629897231765,43.58
1629897231781,41.61
1629897231796,39.74
1629897231812,38.09
1629897231828,36.67
1629897231843,35.32
1629897231859,33.78
1629897231875,31.85
1629897231890,29.29
1629897231906,26.04
1629897231921,22.12
1629897231937,17.82
1629897231953,13.59
1629897231968,9.94
1629897231984,7.17
1629897232000,5.2
1629897232015,3.55
1629897232031,1.53
1629897232046,-1.39
1629897232062,-5.36
1629897232078,-10.03
1629897232093,-14.79
1629897232109,-19.05
1629897232125,-22.52
1629897232140,-25.3
1629897232156,-27.73
1629897232171,-30.24
1629897232187,-33.22
1629897232203,-37.01
1629897232218,-41.79
1629897232234,-47.55
1629897232250,-53.86
1629897232265,-59.74
1629897232281,-63.74
1629897232296,-64.34
1629897232312,-60.46
1629897232328,-51.96
1629897232343,-39.8
1629897232359,-25.74
1629897232375,-11.8
1629897232390,0.36
1629897232406,9.88
1629897232421,16.78
1629897232437,21.64
1629897232453,25.3
1629897232468,28.41
1629897232484,31.27
1629897232500,33.84
1629897232515,35.89
1629897232531,37.23
1629897232546,37.81
1629897232562,37.75
1629897232578,37.25
1629897232593,36.43
1629897232609,35.34
1629897232625,33.95
1629897232640,32.36
1629897232656,30.8
1629897232671,29.55
1629897232687,28.82
1629897232703,28.49
1629897232718,28.08
1629897232734,26.94
1629897232750,24.56
1629897232765,20.82
1629897232781,16.07
1629897232796,11.01
1629897232812,6.34
1629897232828,2.48
1629897232843,-0.63
1629897232859,-3.4
1629897232875,-6.34
1629897232890,-9.8
1629897232906,-13.8
1629897232921,-18.06
1629897232937,-22.17
1629897232953,-25.77
1629897232968,-28.76
1629897232984,-31.27
1629897233000,-33.64
1629897233015,-36.27
1629897233031,-39.58
1629897233046,-43.81
1629897233062,-48.92
1629897233078,-54.4
1629897233093,-59.27
1629897233109,-62.19
1629897233125,-61.84
1629897233140,-57.37
1629897233156,-48.78
1629897233171,-37.02
1629897233187,-23.68
1629897233203,-10.55
1629897233218,0.9
1629897233234,9.86
1629897233250,16.25
1629897233265,20.55
1629897233281,23.49
1629897233296,25.73
1629897233312,27.7
1629897233328,29.57
1629897233343,31.3
1629897233359,32.72
1629897233375,33.65
1629897233390,34.04
1629897233406,33.89
1629897233421,33.28
1629897233437,32.3
1629897233453,31.07
1629897233468,29.78
1629897233484,28.61
1629897233500,27.69
1629897233515,27.01
1629897233531,26.33
1629897233546,25.26
1629897233562,23.43
1629897233578,20.63
1629897233593,16.92
1629897233609,12.68
1629897233625,8.35
1629897233640,4.32
1629897233656,0.74
1629897233671,-2.47
1629897233687,-5.57
1629897233703,-8.83
1629897233718,-12.33
1629897233734,-16.02
1629897233750,-19.73
1629897233765,-23.26
1629897233781,-26.51
1629897233796,-29.59
1629897233812,-32.71
1629897233828,-36.2
1629897233843,-40.37
1629897233859,-45.44
1629897233875,-51.39
1629897233890,-57.82
1629897233906,-63.88
1629897233921,-68.28
1629897233937,-69.61
1629897233953,-66.72
1629897233968,-59.25
1629897233984,-47.86
1629897234000,-34.09
1629897234015,-19.89
1629897234031,-7.01
1629897234046,3.54
1629897234062,11.59
1629897234078,17.63
1629897234093,22.41
1629897234109,26.55
1629897234125,30.34
1629897234140,33.83
1629897234156,36.91
1629897234171,39.48
1629897234187,41.49
1629897234203,42.95
1629897234218,43.85
1629897234234,44.16
1629897234250,43.84
1629897234265,42.92
1629897234281,41.54
1629897234296,39.96
1629897234312,38.47
1629897234328,37.23
1629897234343,36.19
1629897234359,35.04
1629897234375,33.39
1629897234390,30.9
1629897234406,27.48
1629897234421,23.34
1629897234437,18.92
1629897234453,14.72
1629897234468,11.14
1629897234484,8.31
1629897234500,6.06
1629897234515,4.03
1629897234531,1.75
1629897234546,-1.18
1629897234562,-4.91
1629897234578,-9.35
1629897234593,-14.21
1629897234609,-19.09
1629897234625,-23.66
1629897234640,-27.72
1629897234656,-31.29
1629897234671,-34.52
1629897234687,-37.71
1629897234703,-41.29
1629897234718,-45.72
1629897234734,-51.32
1629897234750,-58.0
1629897234765,-65.06
1629897234781,-71.14
1629897234796,-74.58
1629897234812,-73.94
1629897234828,-68.56
1629897234843,-58.84
1629897234859,-46.11
1629897234875,-32.18
1629897234890,-18.76
1629897234906,-6.97
1629897234921,2.75
1629897234937,10.56
1629897234953,16.88
1629897234968,22.17
1629897234984,26.78
1629897235000,30.9
1629897235015,34.67
1629897235031,38.14
1629897235046,41.32
1629897235062,44.1
1629897235078,46.33
1629897235093,47.79
1629897235109,48.3
1629897235125,47.85
1629897235140,46.57
1629897235156,44.74
1629897235171,42.69
1629897235187,40.66
1629897235203,38.81
1629897235218,37.16
1629897235234,35.61
1629897235250,33.97
1629897235265,32.01
1629897235281,29.52
1629897235296,26.34
1629897235312,22.54
1629897235328,18.37
1629897235343,14.19
1629897235359,10.39
1629897235375,7.14
1629897235390,4.35
1629897235406,1.66
1629897235421,-1.36
1629897235437,-5.0
1629897235453,-9.26
1629897235468,-13.82
1629897235484,-18.26
1629897235500,-22.22
1629897235515,-25.59
1629897235531,-28.57
1629897235546,-31.51
1629897235562,-34.78
1629897235578,-38.66
1629897235593,-43.27
1629897235609,-48.61
1629897235625,-54.55
1629897235640,-60.74
1629897235656,-66.5
1629897235671,-70.77
1629897235687,-72.3
1629897235703,-70.07
1629897235718,-63.69
1629897235734,-53.65
1629897235750,-41.23
1629897235765,-28.07
1629897235781,-15.65
1629897235796,-4.88
1629897235812,4.0
1629897235828,11.28
1629897235843,17.43
1629897235859,22.85
1629897235875,27.76
1629897235890,32.16
1629897235906,35.99
1629897235921,39.19
1629897235937,41.72
1629897235953,43.62
1629897235968,44.88
1629897235984,45.49
1629897236000,45.42
1629897236015,44.66
1629897236031,43.33
1629897236046,41.64
1629897236062,39.88
1629897236078,38.35
1629897236093,37.18
1629897236109,36.35
1629897236125,35.6
1629897236140,34.61
1629897236156,33.0
1629897236171,30.5
1629897236187,27.08
1629897236203,22.91
1629897236218,18.37
1629897236234,13.92
1629897236250,9.88
1629897236265,6.41
1629897236281,3.41
1629897236296,0.61
1629897236312,-2.26
1629897236328,-5.39
1629897236343,-8.84
1629897236359,-12.57
1629897236375,-16.5
1629897236390,-20.52
1629897236406,-24.52
1629897236421,-28.28
1629897236437,-31.65
1629897236453,-34.59
1629897236468,-37.3
1629897236484,-40.23
1629897236500,-43.96
1629897236515,-48.9
1629897236531,-54.99
1629897236546,-61.59
1629897236562,-67.44
1629897236578,-71.01
1629897236593,-70.82
1629897236609,-66.04
1629897236625,-56.76
1629897236640,-44.02
1629897236656,-29.58
1629897236671,-15.36
1629897236687,-2.93
1629897236703,6.91
1629897236718,14.13
1629897236734,19.31
1629897236750,23.21
1629897236765,26.5
1629897236781,29.61
1629897236796,32.67
1629897236812,35.64
1629897236828,38.38
1629897236843,40.71
1629897236859,42.47
1629897236875,43.52
1629897236890,43.76
1629897236906,43.18
1629897236921,41.85
1629897236937,39.98
1629897236953,37.79
1629897236968,35.6
1629897236984,33.68
1629897237000,32.15
1629897237015,30.96
1629897237031,29.84
1629897237046,28.39
1629897237062,26.22
1629897237078,23.16
1629897237093,19.32
1629897237109,15.13
1629897237125,11.16
1629897237140,7.92
1629897237156,5.61
1629897237171,4.08
1629897237187,2.9
1629897237203,1.52
1629897237218,-0.46
1629897237234,-3.25
1629897237250,-6.76
1629897237265,-10.74
1629897237281,-14.88
1629897237296,-18.89
1629897237312,-22.6
1629897237328,-25.95
1629897237343,-29.01
1629897237359,-32.06
1629897237375,-35.48
1629897237390,-39.72
1629897237406,-45.02
1629897237421,-51.22
1629897237437,-57.52
1629897237453,-62.57
1629897237468,-64.83
1629897237484,-63.03
1629897237500,-56.67
1629897237515,-46.28
1629897237531,-33.28
1629897237546,-19.51
1629897237562,-6.72
1629897237578,3.92
1629897237593,12.01
1629897237609,17.83
1629897237625,22.02
1629897237640,25.24
1629897237656,27.9
1629897237671,30.19
1629897237687,32.05
1629897237703,33.37
1629897237718,34.07
1629897237734,34.16
1629897237750,33.66
1629897237765,32.65
1629897237781,31.22
1629897237796,29.51
1629897237812,27.79
1629897237828,26.36
1629897237843,25.49
1629897237859,25.25
1629897237875,25.4
1629897237890,25.46
1629897237906,24.87
1629897237921,23.23
1629897237937,20.48
1629897237953,16.92
1629897237968,13.02
1629897237984,9.24
1629897238000,5.82
1629897238015,2.73
1629897238031,-0.25
1629897238046,-3.4
1629897238062,-6.87
1629897238078,-10.65
1629897238093,-14.5
1629897238109,-18.11
1629897238125,-21.22
1629897238140,-23.74
1629897238156,-25.87
1629897238171,-27.99
1629897238187,-30.64
1629897238203,-34.32
1629897238218,-39.24
1629897238234,-45.25
1629897238250,-51.7
1629897238265,-57.54
1629897238281,-61.4
1629897238296,-62.0
1629897238312,-58.5
1629897238328,-50.82
1629897238343,-39.72
1629897238359,-26.7
1629897238375,-13.54
1629897238390,-1.78
1629897238406,7.62
1629897238421,14.46
1629897238437,19.18
1629897238453,22.51
1629897238468,25.17
1629897238484,27.63
1629897238500,30.0
1629897238515,32.11
1629897238531,33.68
1629897238546,34.48
1629897238562,34.51
1629897238578,33.94
1629897238593,33.11
1629897238609,32.32
1629897238625,31.71
1629897238640,31.24
1629897238656,30.7
1629897238671,29.9
1629897238687,28.65
1629897238703,26.84
1629897238718,24.44
1629897238734,21.49
1629897238750,18.11
1629897238765,14.5
1629897238781,10.9
1629897238796,7.52
1629897238812,4.39
1629897238828,1.34
1629897238843,-1.89
1629897238859,-5.56
1629897238875,-9.72
1629897238890,-14.2
1629897238906,-18.69
1629897238921,-22.89
1629897238937,-26.58
1629897238953,-29.71
1629897238968,-32.47
1629897238984,-35.15
1629897239000,-38.24
1629897239015,-42.18
1629897239031,-47.26
1629897239046,-53.26
1629897239062,-59.34
1629897239078,-64.12
1629897239093,-66.04
1629897239109,-63.91
1629897239125,-57.36
1629897239140,-47.03
1629897239156,-34.33
1629897239171,-21.0
1629897239187,-8.57
1629897239203,2.05
1629897239218,10.61
1629897239234,17.36
1629897239250,22.82
1629897239265,27.45
1629897239281,31.49
1629897239296,35.01
1629897239312,37.94
1629897239328,40.19
1629897239343,41.79
1629897239359,42.81
1629897239375,43.34
1629897239390,43.43
1629897239406,43.03
1629897239421,42.06
1629897239437,40.54
1629897239453,38.67
1629897239468,36.79
1629897239484,35.23
1629897239500,34.11
1629897239515,33.28
1629897239531,32.32
1629897239546,30.69
1629897239562,28.03
1629897239578,24.29
1629897239593,19.86
1629897239609,15.33
1629897239625,11.3
1629897239640,8.03
1629897239656,5.37
1629897239671,2.8
1629897239687,-0.36
1629897239703,-4.54
1629897239718,-9.73
1629897239734,-15.49
1629897239750,-21.12
1629897239765,-26.01
1629897239781,-29.95
1629897239796,-33.09
1629897239812,-35.9
1629897239828,-38.95
1629897239843,-42.71
1629897239859,-47.51
1629897239875,-53.42
1629897239890,-60.12
1629897239906,-66.76
1629897239921,-71.97
1629897239937,-74.18
1629897239953,-72.04
1629897239968,-65.09
1629897239984,-54.0
1629897240000,-40.38
1629897240015,-26.23
1629897240031,-13.2
1629897240046,-2.18
1629897240062,6.8
1629897240078,14.16
1629897240093,20.42
1629897240109,25.94
1629897240125,30.83
1629897240140,35.09
1629897240156,38.71
1629897240171,41.72
1629897240187,44.14
1629897240203,45.99
1629897240218,47.29
1629897240234,48.06
1629897240250,48.32
1629897240265,48.06
1629897240281,47.24
1629897240296,45.85
1629897240312,43.99
1629897240328,41.81
1629897240343,39.55
1629897240359,37.31
1629897240375,35.07
1629897240390,32.65
1629897240406,29.82
1629897240421,26.47
1629897240437,22.58
1629897240453,18.36
1629897240468,14.03
1629897240484,9.86
1629897240500,6.02
1629897240515,2.6
1629897240531,-0.47
1629897240546,-3.38
1629897240562,-6.39
1629897240578,-9.71
1629897240593,-13.46
1629897240609,-17.49
1629897240625,-21.54
1629897240640,-25.35
1629897240656,-28.76
1629897240671,-31.89
1629897240687,-35.07
1629897240703,-38.78
1629897240718,-43.51
1629897240734,-49.47
1629897240750,-56.42
1629897240765,-63.51
1629897240781,-69.35
1629897240796,-72.34
1629897240812,-71.15
1629897240828,-65.21
1629897240843,-55.0
1629897240859,-41.88
1629897240875,-27.73
1629897240890,-14.29
1629897240906,-2.71
1629897240921,6.63
1629897240937,13.97
1629897240953,19.87
1629897240968,24.86
1629897240984,29.26
1629897241000,33.18
1629897241015,36.57
1629897241031,39.39
1629897241046,41.65
1629897241062,43.41
1629897241078,44.63
1629897241093,45.21
1629897241109,44.97
1629897241125,43.84
1629897241140,41.98
1629897241156,39.73
1629897241171,37.59
1629897241187,35.94
1629897241203,34.88
1629897241218,34.16
1629897241234,33.38
1629897241250,32.09
1629897241265,30.07
1629897241281,27.31
1629897241296,23.99
1629897241312,20.37
1629897241328,16.65
1629897241343,13.03
1629897241359,9.65
1629897241375,6.6
1629897241390,3.88
1629897241406,1.32
1629897241421,-1.38
1629897241437,-4.61
1629897241453,-8.57
1629897241468,-13.23
1629897241484,-18.21
1629897241500,-22.95
1629897241515,-26.93
1629897241531,-29.95
1629897241546,-32.23
1629897241562,-34.31
1629897241578,-36.92
1629897241593,-40.71
1629897241609,-45.95
1629897241625,-52.47
1629897241640,-59.53
1629897241656,-65.96
1629897241671,-70.28
1629897241687,-71.1
1629897241703,-67.48
1629897241718,-59.33
1629897241734,-47.47
1629897241750,-33.53
1629897241765,-19.38
1629897241781,-6.55
1629897241796,4.09
1629897241812,12.46
1629897241828,18.97
1629897241843,24.16
1629897241859,28.4
1629897241875,31.81
1629897241890,34.39
1629897241906,36.14
1629897241921,37.25
1629897241937,37.89
1629897241953,38.25
1629897241968,38.36
1629897241984,38.16
1629897242000,37.59
1629897242015,36.67
1629897242031,35.55
1629897242046,34.47
1629897242062,33.62
1629897242078,33.11
1629897242093,32.83
1629897242109,32.52
1629897242125,31.8
1629897242140,30.35
1629897242156,27.96
1629897242171,24.61
1629897242187,20.51
1629897242203,16.02
1629897242218,11.53
1629897242234,7.38
1629897242250,3.73
1629897242265,0.53
1629897242281,-2.46
1629897242296,-5.5
1629897242312,-8.76
1629897242328,-12.26
1629897242343,-15.78
1629897242359,-19.08
1629897242375,-21.97
1629897242390,-24.47
1629897242406,-26.88
1629897242421,-29.65
1629897242437,-33.28
1629897242453,-38.07
1629897242468,-43.93
1629897242484,-50.29
1629897242500,-56.08
1629897242515,-59.89
1629897242531,-60.34
1629897242546,-56.54
1629897242562,-48.4
1629897242578,-36.82
1629897242593,-23.41
1629897242609,-10.05
1629897242625,1.7
1629897242640,10.96
1629897242656,17.69
1629897242671,22.35
1629897242687,25.6
1629897242703,27.95
1629897242718,29.61
1629897242734,30.61
1629897242750,30.92
1629897242765,30.63
1629897242781,29.91
1629897242796,29.0
1629897242812,28.06
1629897242828,27.15
1629897242843,26.33
1629897242859,25.62
1629897242875,25.04
1629897242890,24.62
1629897242906,24.24
1629897242921,23.66
1629897242937,22.61
1629897242953,20.84
1629897242968,18.34
1629897242984,15.27
1629897243000,11.9
1629897243015,8.46
1629897243031,5.04
1629897243046,1.57
1629897243062,-2.08
1629897243078,-5.92
1629897243093,-9.89
1629897243109,-13.81
1629897243125,-17.49
1629897243140,-20.87
1629897243156,-23.98
1629897243171,-26.92
1629897243187,-29.87
1629897243203,-33.03
1629897243218,-36.6
1629897243234,-40.78
1629897243250,-45.61
1629897243265,-50.8
1629897243281,-55.66
1629897243296,-59.06
1629897243312,-59.78
1629897243328,-56.86
1629897243343,-50.03
1629897243359,-39.92
1629897243375,-27.84
1629897243390,-15.38
1629897243406,-3.94
1629897243421,5.62
1629897243437,13.04
1629897243453,18.49
1629897243468,22.36
1629897243484,25.11
1629897243500,27.11
1629897243515,28.75
1629897243531,30.28
1629897243546,31.82
1629897243562,33.28
1629897243578,34.38
1629897243593,34.89
1629897243609,34.63
1629897243625,33.66
1629897243640,32.2
1629897243656,30.5
1629897243671,28.82
1629897243687,27.3
1629897243703,26.04
1629897243718,24.99
1629897243734,23.98
1629897243750,22.7
1629897243765,20.78
1629897243781,17.98
1629897243796,14.28
1629897243812,9.92
1629897243828,5.31
1629897243843,0.79
1629897243859,-3.47
1629897243875,-7.56
1629897243890,-11.63
1629897243906,-15.8
1629897243921,-19.97
1629897243937,-23.93
1629897243953,-27.43
1629897243968,-30.35
1629897243984,-32.74
1629897244000,-34.92
1629897244015,-37.31
1629897244031,-40.38
1629897244046,-44.51
1629897244062,-49.71
1629897244078,-55.46
1629897244093,-60.73
1629897244109,-64.05
1629897244125,-64.02
1629897244140,-59.74
1629897244156,-51.18
1629897244171,-39.28
1629897244187,-25.63
1629897244203,-12.02
1629897244218,0.1
1629897244234,9.96
1629897244250,17.48
1629897244265,23.14
1629897244281,27.59
1629897244296,31.41
1629897244312,34.9
1629897244328,38.07
1629897244343,40.78
1629897244359,42.83
1629897244375,44.1
1629897244390,44.61
1629897244406,44.46
1629897244421,43.76
1629897244437,42.63
1629897244453,41.17
1629897244468,39.49
1629897244484,37.81
1629897244500,36.35
1629897244515,35.25
1629897244531,34.53
1629897244546,33.94
1629897244562,33.07
1629897244578,31.52
1629897244593,28.97
1629897244609,25.42
1629897244625,21.17
1629897244640,16.74
1629897244656,12.59
1629897244671,8.99
1629897244687,5.84
1629897244703,2.73
1629897244718,-0.81
1629897244734,-5.16
1629897244750,-10.33
1629897244765,-15.95
1629897244781,-21.45
1629897244796,-26.33
1629897244812,-30.33
1629897244828,-33.57
1629897244843,-36.43
1629897244859,-39.4
1629897244875,-42.92
1629897244890,-47.28
1629897244906,-52.56
1629897244921,-58.56
1629897244937,-64.65
1629897244953,-69.68
1629897244968,-72.22
1629897244984,-70.92
1629897245000,-65.09
1629897245015,-55.05
1629897245031,-42.14
1629897245046,-28.21
1629897245062,-15.03
1629897245078,-3.71
1629897245093,5.45
1629897245109,12.74
1629897245125,18.7
1629897245140,23.75
1629897245156,28.16
1629897245171,32.03
1629897245187,35.42
1629897245203,38.45
1629897245218,41.13
1629897245234,43.41
1629897245250,45.12
1629897245265,46.11
1629897245281,46.27
1629897245296,45.65
1629897245312,44.38
1629897245328,42.63
1629897245343,40.56
1629897245359,38.31
1629897245375,35.99
1629897245390,33.72
1629897245406,31.54
1629897245421,29.46
1629897245437,27.37
1629897245453,25.14
1629897245468,22.61
1629897245484,19.7
1629897245500,16.44
1629897245515,13.03
1629897245531,9.67
1629897245546,6.49
1629897245562,3.47
1629897245578,0.39
1629897245593,-3.05
1629897245609,-7.03
1629897245625,-11.51
1629897245640,-16.19
1629897245656,-20.62
1629897245671,-24.45
1629897245687,-27.62
1629897245703,-30.36
1629897245718,-33.18
1629897245734,-36.6
1629897245750,-41.04
1629897245765,-46.67
1629897245781,-53.31
1629897245796,-60.4
1629897245812,-66.9
1629897245828,-71.42
1629897245843,-72.53
1629897245859,-69.2
1629897245875,-61.25
1629897245890,-49.48
1629897245906,-35.48
1629897245921,-21.18
1629897245937,-8.17
1629897245953,2.65
1629897245968,11.11
1629897245984,17.6
1629897246000,22.73
1629897246015,27.0
1629897246031,30.76
1629897246046,34.13
1629897246062,37.08
1629897246078,39.52
1629897246093,41.3
1629897246109,42.33
1629897246125,42.62
1629897246140,42.28
1629897246156,41.49
1629897246171,40.43
1629897246187,39.29
1629897246203,38.13
1629897246218,37.03
1629897246234,35.99
1629897246250,34.97
1629897246265,33.82
1629897246281,32.34
1629897246296,30.25
1629897246312,27.38
1629897246328,23.73
1629897246343,19.52
1629897246359,15.21
1629897246375,11.25
1629897246390,7.97
1629897246406,5.46
1629897246421,3.5
1629897246437,1.69
1629897246453,-0.47
1629897246468,-3.33
1629897246484,-7.02
1629897246500,-11.39
1629897246515,-16.02
1629897246531,-20.42
1629897246546,-24.16
1629897246562,-27.08
1629897246578,-29.35
1629897246593,-31.5
1629897246609,-34.22
1629897246625,-38.18
1629897246640,-43.65
1629897246656,-50.34
1629897246671,-57.26
1629897246687,-62.88
1629897246703,-65.53
1629897246718,-63.85
1629897246734,-57.33
1629897246750,-46.49
1629897246765,-32.82
1629897246781,-18.27
1629897246796,-4.74
1629897246812,6.5
1629897246828,14.95
1629897246843,20.78
1629897246859,24.61
1629897246875,27.11
1629897246890,28.87
1629897246906,30.26
1629897246921,31.52
1629897246937,32.69
1629897246953,33.72
1629897246968,34.46
1629897246984,34.75
1629897247000,34.55
1629897247015,33.91
1629897247031,33.01
1629897247046,32.0
1629897247062,30.99
1629897247078,29.98
1629897247093,28.91
1629897247109,27.68
1629897247125,26.21
1629897247140,24.38
1629897247156,22.09
1629897247171,19.26
1629897247187,15.88
1629897247203,12.05
1629897247218,7.97
1629897247234,3.91
1629897247250,0.07
1629897247265,-3.49
1629897247281,-6.82
1629897247296,-10.08
1629897247312,-13.4
1629897247328,-16.81
1629897247343,-20.25
1629897247359,-23.6
1629897247375,-26.78
1629897247390,-29.88
1629897247406,-33.17
1629897247421,-37.07
1629897247437,-41.87
1629897247453,-47.49
1629897247468,-53.29
1629897247484,-58.06
1629897247500,-60.28
1629897247515,-58.65
1629897247531,-52.59
1629897247546,-42.54
1629897247562,-29.85
1629897247578,-16.43
1629897247593,-4.08
1629897247609,5.96
1629897247625,13.26
1629897247640,18.11
1629897247656,21.17
1629897247671,23.18
1629897247687,24.64
1629897247703,25.8
1629897247718,26.72
1629897247734,27.3
1629897247750,27.45
1629897247765,27.12
1629897247781,26.37
1629897247796,25.35
1629897247812,24.33
1629897247828,23.54
1629897247843,23.15
1629897247859,23.14
1629897247875,23.34
1629897247890,23.4
1629897247906,22.97
1629897247921,21.74
1629897247937,19.58
1629897247953,16.59
1629897247968,13.05
1629897247984,9.32
1629897248000,5.64
1629897248015,2.09
1629897248031,-1.45
1629897248046,-5.18
1629897248062,-9.25
1629897248078,-13.62
1629897248093,-18.03
1629897248109,-22.14
1629897248125,-25.67
1629897248140,-28.59
1629897248156,-31.24
1629897248171,-34.15
1629897248187,-37.91
1629897248203,-42.86
1629897248218,-48.94
1629897248234,-55.56
1629897248250,-61.69
1629897248265,-66.05
1629897248281,-67.36
1629897248296,-64.77
1629897248312,-58.02
1629897248328,-47.6
1629897248343,-34.71
1629897248359,-20.91
1629897248375,-7.73
1629897248390,3.69
1629897248406,12.81
1629897248421,19.75
1629897248437,25.03
1629897248453,29.24
1629897248468,32.81
1629897248484,35.9
1629897248500,38.47
1629897248515,40.46
1629897248531,41.85
1629897248546,42.67
1629897248562,42.96
1629897248578,42.64
1629897248593,41.64
1629897248609,39.95
1629897248625,37.8
1629897248640,35.53
1629897248656,33.56
1629897248671,32.06
1629897248687,30.93
1629897248703,29.78
1629897248718,28.2
1629897248734,25.91
1629897248750,22.91
1629897248765,19.42
1629897248781,15.73
1629897248796,12.04
1629897248812,8.37
1629897248828,4.62
1629897248843,0.69
1629897248859,-3.49
1629897248875,-7.89
1629897248890,-12.39
1629897248906,-16.87
1629897248921,-21.24
1629897248937,-25.46
1629897248953,-29.58
1629897248968,-33.72
1629897248984,-38.05
1629897249000,-42.83
1629897249015,-48.27
1629897249031,-54.43
1629897249046,-60.98
1629897249062,-67.05
1629897249078,-71.26
1629897249093,-72.08
1629897249109,-68.33
1629897249125,-59.77
1629897249140,-47.28
1629897249156,-32.63
1629897249171,-17.91
1629897249187,-4.81
1629897249203,5.83
1629897249218,14.05
1629897249234,20.47
1629897249250,25.85
1629897249265,30.67
1629897249281,35.12
1629897249296,39.11
1629897249312,42.49
1629897249328,45.17
1629897249343,47.14
1629897249359,48.46
1629897249375,49.17
1629897249390,49.25
1629897249406,48.63
1629897249421,47.36
1629897249437,45.56
1629897249453,43.49
1629897249468,41.48
1629897249484,39.75
1629897249500,38.27
1629897249515,36.79
1629897249531,34.87
1629897249546,32.16
1629897249562,28.55
1629897249578,24.27
1629897249593,19.75
1629897249609,15.5
1629897249625,11.79
1629897249640,8.59
1629897249656,5.63
1629897249671,2.52
1629897249687,-1.05
1629897249703,-5.25
1629897249718,-10.02
1629897249734,-15.19
1629897249750,-20.45
1629897249765,-25.48
1629897249781,-30.06
1629897249796,-34.07
1629897249812,-37.66
1629897249828,-41.21
1629897249843,-45.3
1629897249859,-50.49
1629897249875,-56.98
1629897249890,-64.35
1629897249906,-71.5
1629897249921,-76.78
1629897249937,-78.48
1629897249953,-75.41
1629897249968,-67.32
1629897249984,-55.05
1629897250000,-40.29
1629897250015,-24.97
1629897250031,-10.75
1629897250046,1.4
1629897250062,11.24
1629897250078,19.06
1629897250093,25.38
1629897250109,30.71
1629897250125,35.37
1629897250140,39.5
1629897250156,43.09
1629897250171,46.04
1629897250187,48.21
1629897250203,49.52
1629897250218,50.02
1629897250234,49.81
1629897250250,48.97
1629897250265,47.62
1629897250281,45.83
1629897250296,43.72
1629897250312,41.52
1629897250328,39.46
1629897250343,37.72
1629897250359,36.29
1629897250375,34.92
1629897250390,33.16
1629897250406,30.63
1629897250421,27.13
1629897250437,22.81
1629897250453,18.11
1629897250468,13.57
1629897250484,9.57
1629897250500,6.21
1629897250515,3.27
1629897250531,0.28
1629897250546,-3.15
1629897250562,-7.22
1629897250578,-11.79
1629897250593,-16.52
1629897250609,-21.0
1629897250625,-24.99
1629897250640,-28.48
1629897250656,-31.7
1629897250671,-35.02
1629897250687,-38.83
1629897250703,-43.5
1629897250718,-49.19
1629897250734,-55.79
1629897250750,-62.66
1629897250765,-68.67
1629897250781,-72.3
1629897250796,-72.13
1629897250812,-67.29
1629897250828,-57.85
1629897250843,-44.89
1629897250859,-30.19
1629897250875,-15.64
1629897250890,-2.72
1629897250906,7.84
1629897250921,16.06
1629897250937,22.4
1629897250953,27.41
1629897250968,31.5
1629897250984,34.82
1629897251000,37.39
1629897251015,39.28
1629897251031,40.71
1629897251046,41.93
1629897251062,43.03
1629897251078,43.92
1629897251093,44.29
1629897251109,43.83
1629897251125,42.46
1629897251140,40.45
1629897251156,38.28
1629897251171,36.48
1629897251187,35.29
1629897251203,34.56
1629897251218,33.85
1629897251234,32.59
1629897251250,30.34
1629897251265,26.98
1629897251281,22.71
1629897251296,17.95
1629897251312,13.2
1629897251328,8.85
1629897251343,5.11
1629897251359,1.92
1629897251375,-0.98
1629897251390,-3.94
1629897251406,-7.24
1629897251421,-10.98
1629897251437,-15.01
1629897251453,-19.04
1629897251468,-22.72
1629897251484,-25.89
1629897251500,-28.56
1629897251515,-31.07
1629897251531,-33.95
1629897251546,-37.68
1629897251562,-42.5
1629897251578,-48.1
1629897251593,-53.56
1629897251609,-57.49
1629897251625,-58.44
1629897251640,-55.39
1629897251656,-48.17
1629897251671,-37.56
1629897251687,-25.03
1629897251703,-12.3
1629897251718,-0.79
1629897251734,8.73
1629897251750,16.12
1629897251765,21.72
1629897251781,26.02
1629897251796,29.36
1629897251812,31.89
1629897251828,33.53
1629897251843,34.21
1629897251859,33.97
1629897251875,33.08
1629897251890,31.94
1629897251906,30.96
1629897251921,30.37
1629897251937,30.11
1629897251953,29.85
1629897251968,29.21
1629897251984,28.01
1629897252000,26.3
1629897252015,24.35
1629897252031,22.38
1629897252046,20.42
1629897252062,18.27
1629897252078,15.62
1629897252093,12.27
1629897252109,8.25
1629897252125,3.82
1629897252140,-0.75
1629897252156,-5.24
1629897252171,-9.6
1629897252187,-13.86
1629897252203,-17.99
1629897252218,-21.87
1629897252234,-25.35
1629897252250,-28.38
1629897252265,-31.15
1629897252281,-34.08
1629897252296,-37.68
1629897252312,-42.38
1629897252328,-48.19
1629897252343,-54.58
1629897252359,-60.47
1629897252375,-64.44
1629897252390,-65.09
1629897252406,-61.57
1629897252421,-53.86
1629897252437,-42.83
1629897252453,-29.98
1629897252468,-16.9
1629897252484,-4.83
1629897252500,5.57
1629897252515,14.18
1629897252531,21.17
1629897252546,26.77
1629897252562,31.14
1629897252578,34.35
1629897252593,36.46
1629897252609,37.6
1629897252625,37.96
1629897252640,37.71
1629897252656,36.98
1629897252671,35.85
1629897252687,34.36
1629897252703,32.61
1629897252718,30.8
1629897252734,29.15
1629897252750,27.86
1629897252765,27.0
1629897252781,26.4
1629897252796,25.72
1629897252812,24.56
1629897252828,22.58
1629897252843,19.69
1629897252859,16.09
1629897252875,12.1
1629897252890,8.06
1629897252906,4.15
1629897252921,0.37
1629897252937,-3.39
1629897252953,-7.2
1629897252968,-11.08
1629897252984,-14.95
1629897253000,-18.69
1629897253015,-22.23
1629897253031,-25.57
1629897253046,-28.78
1629897253062,-32.04
1629897253078,-35.64
1629897253093,-39.91
1629897253109,-45.08
1629897253125,-51.01
1629897253140,-57.0
1629897253156,-61.85
1629897253171,-64.12
1629897253187,-62.6
1629897253203,-56.84
1629897253218,-47.3
1629897253234,-35.27
1629897253250,-22.4
1629897253265,-10.13
1629897253281,0.65
1629897253296,9.63
1629897253312,16.98
1629897253328,23.02
1629897253343,28.02
1629897253359,32.16
1629897253375,35.54
1629897253390,38.24
1629897253406,40.32
1629897253421,41.85
1629897253437,42.8
1629897253453,43.12
1629897253468,42.78
1629897253484,41.83
1629897253500,40.49
1629897253515,39.04
1629897253531,37.74
1629897253546,36.73
1629897253562,35.98
1629897253578,35.24
1629897253593,34.23
1629897253609,32.63
1629897253625,30.22
1629897253640,26.96
1629897253656,22.97
1629897253671,18.55
1629897253687,14.13
1629897253703,10.05
1629897253718,6.49
1629897253734,3.35
1629897253750,0.29
1629897253765,-3.11
1629897253781,-7.12
1629897253796,-11.67
1629897253812,-16.43
1629897253828,-20.89
1629897253843,-24.66
1629897253859,-27.69
1629897253875,-30.27
1629897253890,-32.95
1629897253906,-36.35
1629897253921,-40.87
1629897253937,-46.54
1629897253953,-52.89
1629897253968,-59.01
1629897253984,-63.66
1629897254000,-65.59
1629897254015,-63.84
1629897254031,-58.07
1629897254046,-48.66
1629897254062,-36.6
1629897254078,-23.31
1629897254093,-10.23
1629897254109,1.47
1629897254125,11.16
1629897254140,18.75
1629897254156,24.56
1629897254171,29.07
1629897254187,32.72
1629897254203,35.8
1629897254218,38.41
1629897254234,40.53
1629897254250,42.13
1629897254265,43.16
1629897254281,43.59
1629897254296,43.37
1629897254312,42.43
1629897254328,40.75
1629897254343,38.44
1629897254359,35.75
1629897254375,33.04
1629897254390,30.7
1629897254406,28.95
1629897254421,27.74
1629897254437,26.77
1629897254453,25.53
1629897254468,23.59
1629897254484,20.71
1629897254500,17.04
1629897254515,13.01
1629897254531,9.14
1629897254546,5.83
1629897254562,3.13
1629897254578,0.81
1629897254593,-1.59
1629897254609,-4.46
1629897254625,-7.97
1629897254640,-12.01
1629897254656,-16.24
1629897254671,-20.3
1629897254687,-23.89
1629897254703,-26.94
1629897254718,-29.63
1629897254734,-32.36
1629897254750,-35.61
1629897254765,-39.84
1629897254781,-45.24
1629897254796,-51.63
1629897254812,-58.29
1629897254828,-64.05
1629897254843,-67.47
1629897254859,-67.26
1629897254875,-62.68
1629897254890,-53.85
1629897254906,-41.75
1629897254921,-27.98
1629897254937,-14.3
1629897254953,-2.11
1629897254968,7.83
1629897254984,15.39
1629897255000,20.93
1629897255015,25.02
1629897255031,28.21
1629897255046,30.87
1629897255062,33.24
1629897255078,35.38
1629897255093,37.24
1629897255109,38.66
1629897255125,39.44
1629897255140,39.42
1629897255156,38.57
1629897255171,36.97
1629897255187,34.86
1629897255203,32.54
1629897255218,30.38
1629897255234,28.62
1629897255250,27.4
1629897255265,26.6
1629897255281,25.94
1629897255296,24.97
1629897255312,23.31
1629897255328,20.74
1629897255343,17.38
1629897255359,13.6
1629897255375,9.88
1629897255390,6.64
1629897255406,4.02
1629897255421,1.84
1629897255437,-0.26
1629897255453,-2.64
1629897255468,-5.52
1629897255484,-8.92
1629897255500,-12.66
1629897255515,-16.5
1629897255531,-20.16
1629897255546,-23.43
1629897255562,-26.23
1629897255578,-28.7
1629897255593,-31.2
1629897255609,-34.27
1629897255625,-38.42
1629897255640,-43.81
1629897255656,-49.99
1629897255671,-55.82
1629897255687,-59.7
1629897255703,-60.12
1629897255718,-56.18
1629897255734,-47.92
1629897255750,-36.36
1629897255765,-23.14
1629897255781,-10.0
1629897255796,1.66
1629897255812,11.06
1629897255828,18.0
1629897255843,22.76
1629897255859,25.8
1629897255875,27.61
1629897255890,28.65
1629897255906,29.29
1629897255921,29.78
1629897255937,30.27
1629897255953,30.76
1629897255968,31.1
1629897255984,31.13
1629897256000,30.7
1629897256015,29.76
1629897256031,28.39
1629897256046,26.79
1629897256062,25.15
1629897256078,23.59
1629897256093,22.15
1629897256109,20.79
1629897256125,19.38
1629897256140,17.75
1629897256156,15.65
1629897256171,12.92
1629897256187,9.48
1629897256203,5.45
1629897256218,1.12
1629897256234,-3.15
1629897256250,-7.09
1629897256265,-10.64
1629897256281,-13.87
1629897256296,-16.95
1629897256312,-19.97
1629897256328,-22.9
1629897256343,-25.62
1629897256359,-28.14
1629897256375,-30.66
1629897256390,-33.57
1629897256406,-37.33
1629897256421,-42.15
1629897256437,-47.74
1629897256453,-53.19
1629897256468,-57.17
1629897256484,-58.27
1629897256500,-55.49
1629897256515,-48.61
1629897256531,-38.3
1629897256546,-25.95
1629897256562,-13.19
1629897256578,-1.47
1629897256593,8.26
1629897256609,15.66
1629897256625,20.86
1629897256640,24.32
1629897256656,26.49
1629897256671,27.75
1629897256687,28.38
1629897256703,28.52
1629897256718,28.25
1629897256734,27.67
1629897256750,26.87
1629897256765,25.96
1629897256781,25.05
1629897256796,24.18
1629897256812,23.33
1629897256828,22.4
1629897256843,21.32
1629897256859,20.07
1629897256875,18.69
1629897256890,17.27
1629897256906,15.82
1629897256921,14.23
1629897256937,12.33
1629897256953,9.93
1629897256968,6.92
1629897256984,3.33
1629897257000,-0.66
1629897257015,-4.79
1629897257031,-8.8
1629897257046,-12.48
1629897257062,-15.76
1629897257078,-18.63
1629897257093,-21.21
1629897257109,-23.67
1629897257125,-26.23
1629897257140,-29.19
1629897257156,-32.93
1629897257171,-37.76
1629897257187,-43.75
1629897257203,-50.52
1629897257218,-57.06
1629897257234,-61.97
1629897257250,-63.75
1629897257265,-61.36
1629897257281,-54.58
1629897257296,-44.12
1629897257312,-31.37
1629897257328,-17.97
1629897257343,-5.35
1629897257359,5.52
1629897257375,14.18
1629897257390,20.63
1629897257406,25.13
1629897257421,28.12
1629897257437,30.12
1629897257453,31.62
1629897257468,32.98
1629897257484,34.38
1629897257500,35.76
1629897257515,36.91
1629897257531,37.54
1629897257546,37.45
1629897257562,36.59
1629897257578,35.08
1629897257593,33.25
1629897257609,31.45
1629897257625,29.95
1629897257640,28.8
1629897257656,27.83
1629897257671,26.68
1629897257687,25.01
1629897257703,22.63
1629897257718,19.58
1629897257734,16.09
1629897257750,12.46
1629897257765,8.88
1629897257781,5.41
1629897257796,1.97
1629897257812,-1.56
1629897257828,-5.27
1629897257843,-9.15
1629897257859,-13.1
1629897257875,-17.01
1629897257890,-20.8
1629897257906,-24.44
1629897257921,-27.96
1629897257937,-31.46
1629897257953,-35.15
1629897257968,-39.36
1629897257984,-44.39
1629897258000,-50.36
1629897258015,-56.93
1629897258031,-63.17
1629897258046,-67.74
1629897258062,-69.14
1629897258078,-66.38
1629897258093,-59.21
1629897258109,-48.33
1629897258125,-35.09
1629897258140,-21.08
1629897258156,-7.69
1629897258171,4.15
1629897258187,14.04
1629897258203,21.96
1629897258218,28.12
1629897258234,32.81
1629897258250,36.39
1629897258265,39.16
1629897258281,41.4
1629897258296,43.23
1629897258312,44.64
1629897258328,45.5
1629897258343,45.65
1629897258359,45.08
1629897258375,43.87
1629897258390,42.24
1629897258406,40.45
1629897258421,38.73
1629897258437,37.18
1629897258453,35.87
1629897258468,34.71
1629897258484,33.52
1629897258500,32.01
1629897258515,29.84
1629897258531,26.8
1629897258546,22.87
1629897258562,18.4
1629897258578,13.87
1629897258593,9.78
1629897258609,6.27
1629897258625,3.09
1629897258640,-0.22
1629897258656,-4.12
1629897258671,-8.75
1629897258687,-13.85
1629897258703,-18.9
1629897258718,-23.43
1629897258734,-27.2
1629897258750,-30.34
1629897258765,-33.23
1629897258781,-36.4
1629897258796,-40.33
1629897258812,-45.31
1629897258828,-51.41
1629897258843,-58.21
1629897258859,-64.8
1629897258875,-69.85
1629897258890,-71.89
1629897258906,-69.8
1629897258921,-63.21
1629897258937,-52.68
1629897258953,-39.58
1629897258968,-25.6
1629897258984,-12.29
1629897259000,-0.62
1629897259015,9.02
1629897259031,16.75
1629897259046,22.87
1629897259062,27.73
1629897259078,31.61
1629897259093,34.74
1629897259109,37.36
1629897259125,39.68
1629897259140,41.83
1629897259156,43.83
1629897259171,45.48
1629897259187,46.48
1629897259203,46.54
1629897259218,45.54
1629897259234,43.66
1629897259250,41.34
1629897259265,39.13
1629897259281,37.48
1629897259296,36.49
1629897259312,35.98
1629897259328,35.43
1629897259343,34.26
1629897259359,32.06
1629897259375,28.71
1629897259390,24.41
1629897259406,19.61
1629897259421,14.83
1629897259437,10.45
1629897259453,6.59
1629897259468,3.12
1629897259484,-0.26
1629897259500,-3.83
1629897259515,-7.77
1629897259531,-12.08
1629897259546,-16.57
1629897259562,-20.98
1629897259578,-25.07
1629897259593,-28.66
1629897259609,-31.75
1629897259625,-34.51
1629897259640,-37.37
1629897259656,-40.88
1629897259671,-45.56
1629897259687,-51.53
1629897259703,-58.28
1629897259718,-64.58
1629897259734,-68.77
1629897259750,-69.25
1629897259765,-65.06
1629897259781,-56.19
1629897259796,-43.65
1629897259812,-29.13
1629897259828,-14.51
1629897259843,-1.36
1629897259859,9.38
1629897259875,17.45
1629897259890,23.19
1629897259906,27.25
1629897259921,30.34
1629897259937,33.0
1629897259953,35.48
1629897259968,37.75
1629897259984,39.61
1629897260000,40.87
1629897260015,41.46
1629897260031,41.36
1629897260046,40.66
1629897260062,39.45
1629897260078,37.84
1629897260093,36.05
1629897260109,34.33
1629897260125,32.91
1629897260140,31.88
1629897260156,31.08
1629897260171,30.09
1629897260187,28.42
1629897260203,25.71
1629897260218,21.97
1629897260234,17.64
1629897260250,13.29
1629897260265,9.36
1629897260281,5.99
1629897260296,2.92
1629897260312,-0.26
1629897260328,-3.83
1629897260343,-7.8
1629897260359,-11.89
1629897260375,-15.71
1629897260390,-18.96
1629897260406,-21.64
1629897260421,-23.98
1629897260437,-26.4
1629897260453,-29.32
1629897260468,-33.08
1629897260484,-37.81
1629897260500,-43.34
1629897260515,-49.07
1629897260531,-54.02
1629897260546,-56.94
1629897260562,-56.61
1629897260578,-52.27
1629897260593,-43.9
1629897260609,-32.32
1629897260625,-19.07
1629897260640,-5.93
1629897260656,5.55
1629897260671,14.46
1629897260687,20.71
1629897260703,24.83
1629897260718,27.6
1629897260734,29.7
1629897260750,31.42
1629897260765,32.64
1629897260781,33.08
1629897260796,32.58
1629897260812,31.27
1629897260828,29.55
1629897260843,27.93
1629897260859,26.73
1629897260875,26.0
1629897260890,25.52
1629897260906,24.92
1629897260921,23.9
1629897260937,22.32
1629897260953,20.21
1629897260968,17.7
1629897260984,14.93
1629897261000,11.98
1629897261015,8.86
1629897261031,5.53
1629897261046,1.97
1629897261062,-1.77
1629897261078,-5.6
1629897261093,-9.33
1629897261109,-12.83
1629897261125,-16.0
1629897261140,-18.85
1629897261156,-21.51
1629897261171,-24.16
1629897261187,-27.03
1629897261203,-30.34
1629897261218,-34.28
1629897261234,-39.02
1629897261250,-44.6
1629897261265,-50.74
1629897261281,-56.76
1629897261296,-61.52
1629897261312,-63.7
1629897261328,-62.15
1629897261343,-56.3
1629897261359,-46.45
1629897261375,-33.72
1629897261390,-19.75
1629897261406,-6.27
1629897261421,5.42
1629897261437,14.61
1629897261453,21.32
1629897261468,26.03
1629897261484,29.41
1629897261500,32.11
1629897261515,34.51
1629897261531,36.74
1629897261546,38.69
1629897261562,40.16
1629897261578,40.93
1629897261593,40.92
1629897261609,40.19
1629897261625,38.88
1629897261640,37.2
1629897261656,35.31
1629897261671,33.35
1629897261687,31.41
1629897261703,29.5
1629897261718,27.59
1629897261734,25.58
1629897261750,23.4
1629897261765,21.02
1629897261781,18.43
1629897261796,15.66
1629897261812,12.64
1629897261828,9.26
1629897261843,5.36
1629897261859,0.87
1629897261875,-4.15
1629897261890,-9.41
1629897261906,-14.48
1629897261921,-19.0
1629897261937,-22.78
1629897261953,-25.96
1629897261968,-28.9
1629897261984,-32.06
1629897262000,-35.87
1629897262015,-40.64
1629897262031,-46.43
1629897262046,-53.03
1629897262062,-59.82
1629897262078,-65.79
1629897262093,-69.57
1629897262109,-69.85
1629897262125,-65.73
1629897262140,-57.15
1629897262156,-45.01
1629897262171,-30.93
1629897262187,-16.67
1629897262203,-3.72
1629897262218,7.1
1629897262234,15.61
1629897262250,22.11
1629897262265,27.08
1629897262281,31.02
1629897262296,34.37
1629897262312,37.48
1629897262328,40.55
1629897262343,43.52
1629897262359,46.1
1629897262375,47.85
1629897262390,48.4
1629897262406,47.65
1629897262421,45.83
1629897262437,43.41
1629897262453,40.88
1629897262468,38.53
1629897262484,36.42
1629897262500,34.43
1629897262515,32.36
1629897262531,30.04
1629897262546,27.32
1629897262562,24.14
1629897262578,20.47
1629897262593,16.4
1629897262609,12.13
1629897262625,7.9
1629897262640,3.87
1629897262656,0.05
1629897262671,-3.7
1629897262687,-7.57
1629897262703,-11.64
1629897262718,-15.83
1629897262734,-19.91
1629897262750,-23.71
1629897262765,-27.23
1629897262781,-30.63
1629897262796,-34.25
1629897262812,-38.43
1629897262828,-43.39
1629897262843,-49.21
1629897262859,-55.62
1629897262875,-62.0
1629897262890,-67.33
1629897262906,-70.35
1629897262921,-69.87
1629897262937,-65.19
1629897262953,-56.36
1629897262968,-44.28
1629897262984,-30.45
1629897263000,-16.49
1629897263015,-3.75
1629897263031,7.04
1629897263046,15.73
1629897263062,22.61
1629897263078,28.09
1629897263093,32.57
1629897263109,36.33
1629897263125,39.55
1629897263140,42.35
1629897263156,44.8
1629897263171,46.83
1629897263187,48.32
1629897263203,49.03
1629897263218,48.81
1629897263234,47.67
1629897263250,45.79
1629897263265,43.56
1629897263281,41.35
1629897263296,39.46
1629897263312,37.92
1629897263328,36.56
1629897263343,35.07
1629897263359,33.13
1629897263375,30.51
1629897263390,27.19
1629897263406,23.34
1629897263421,19.28
1629897263437,15.3
1629897263453,11.59
1629897263468,8.09
1629897263484,4.6
1629897263500,0.8
1629897263515,-3.46
1629897263531,-8.17
1629897263546,-13.1
1629897263562,-17.93
1629897263578,-22.38
1629897263593,-26.39
1629897263609,-30.04
1629897263625,-33.61
1629897263640,-37.47
1629897263656,-41.98
1629897263671,-47.45
1629897263687,-53.91
1629897263703,-60.94
1629897263718,-67.55
1629897263734,-72.26
1629897263750,-73.5
1629897263765,-70.15
1629897263781,-61.96
1629897263796,-49.74
1629897263812,-35.14
1629897263828,-20.09
1629897263843,-6.24
1629897263859,5.46
1629897263875,14.78
1629897263890,21.97
1629897263906,27.44
1629897263921,31.54
1629897263937,34.56
1629897263953,36.74
1629897263968,38.39
1629897263984,39.78
1629897264000,41.06
1629897264015,42.19
1629897264031,42.92
1629897264046,42.97
1629897264062,42.17
1629897264078,40.59
1629897264093,38.5
1629897264109,36.3
1629897264125,34.32
1629897264140,32.65
1629897264156,31.2
1629897264171,29.71
1629897264187,27.91
1629897264203,25.63
1629897264218,22.78
1629897264234,19.39
1629897264250,15.64
1629897264265,11.77
1629897264281,7.99
1629897264296,4.47
1629897264312,1.21
1629897264328,-1.91
1629897264343,-5.09
1629897264359,-8.42
1629897264375,-11.83
1629897264390,-15.11
1629897264406,-18.02
1629897264421,-20.44
1629897264437,-22.51
1629897264453,-24.58
1629897264468,-27.19
1629897264484,-30.85
1629897264500,-35.84
1629897264515,-42.06
1629897264531,-48.85
1629897264546,-55.04
1629897264562,-59.13
1629897264578,-59.73
1629897264593,-55.97
1629897264609,-47.88
1629897264625,-36.44
1629897264640,-23.31
1629897264656,-10.31
1629897264671,1.12
1629897264687,10.21
1629897264703,16.91
1629897264718,21.65
1629897264734,25.01
1629897264750,27.49
1629897264765,29.36
1629897264781,30.71
1629897264796,31.53
1629897264812,31.77
1629897264828,31.5
1629897264843,30.79
1629897264859,29.82
1629897264875,28.77
1629897264890,27.75
1629897264906,26.83
1629897264921,25.96
1629897264937,25.04
1629897264953,23.94
1629897264968,22.63
1629897264984,21.1
1629897265000,19.36
1629897265015,17.39
1629897265031,15.06
1629897265046,12.25
1629897265062,8.84
1629897265078,4.9
1629897265093,0.59
1629897265109,-3.79
1629897265125,-7.96
1629897265140,-11.7
1629897265156,-14.96
1629897265171,-17.79
1629897265187,-20.34
1629897265203,-22.82
1629897265218,-25.44
1629897265234,-28.43
1629897265250,-31.97
1629897265265,-36.29
1629897265281,-41.51
1629897265296,-47.48
1629897265312,-53.64
1629897265328,-58.96
1629897265343,-62.06
1629897265359,-61.66
1629897265375,-56.99
1629897265390,-48.11
1629897265406,-36.06
1629897265421,-22.44
1629897265437,-9.03
1629897265453,2.76
1629897265468,12.17
1629897265484,19.1
1629897265500,23.9
1629897265515,27.13
1629897265531,29.35
1629897265546,30.96
1629897265562,32.15
1629897265578,32.98
1629897265593,33.41
1629897265609,33.37
1629897265625,32.89
1629897265640,32.08
1629897265656,31.08
1629897265671,30.02
1629897265687,28.96
1629897265703,27.86
1629897265718,26.68
1629897265734,25.32
1629897265750,23.78
1629897265765,22.02
1629897265781,20.04
1629897265796,17.8
1629897265812,15.21
1629897265828,12.22
1629897265843,8.86
1629897265859,5.23
1629897265875,1.5
1629897265890,-2.22
1629897265906,-5.93
1629897265921,-9.7
1629897265937,-13.58
1629897265953,-17.49
1629897265968,-21.23
1629897265984,-24.6
1629897266000,-27.55
1629897266015,-30.28
1629897266031,-33.26
1629897266046,-37.03
1629897266062,-41.92
1629897266078,-47.86
1629897266093,-54.18
1629897266109,-59.76
1629897266125,-63.18
1629897266140,-63.18
1629897266156,-58.96
1629897266171,-50.56
1629897266187,-38.84
1629897266203,-25.33
1629897266218,-11.74
1629897266234,0.47
1629897266250,10.43
1629897266265,17.95
1629897266281,23.37
1629897266296,27.25
1629897266312,30.14
1629897266328,32.46
1629897266343,34.51
1629897266359,36.46
1629897266375,38.37
1629897266390,40.13
1629897266406,41.45
1629897266421,41.96
1629897266437,41.37
1629897266453,39.66
1629897266468,37.13
1629897266484,34.35
1629897266500,31.91
1629897266515,30.18
1629897266531,29.11
1629897266546,28.32
1629897266562,27.27
1629897266578,25.47
1629897266593,22.69
1629897266609,18.97
1629897266625,14.64
1629897266640,10.1
1629897266656,5.74
1629897266671,1.84
1629897266687,-1.56
1629897266703,-4.58
1629897266718,-7.44
1629897266734,-10.38
1629897266750,-13.57
1629897266765,-17.07
1629897266781,-20.83
1629897266796,-24.77
1629897266812,-28.8
1629897266828,-32.89
1629897266843,-37.14
1629897266859,-41.73
1629897266875,-46.87
1629897266890,-52.6
1629897266906,-58.57
1629897266921,-63.94
1629897266937,-67.47
1629897266953,-67.86
1629897266968,-64.19
1629897266984,-56.38
1629897267000,-45.18
1629897267015,-31.98
1629897267031,-18.4
1629897267046,-5.78
1629897267062,5.05
1629897267078,13.86
1629897267093,20.8
1629897267109,26.24
1629897267125,30.57
1629897267140,34.13
1629897267156,37.17
1629897267171,39.8
1629897267187,42.03
1629897267203,43.73
1629897267218,44.78
1629897267234,45.11
1629897267250,44.66
1629897267265,43.48
1629897267281,41.68
1629897267296,39.45
1629897267312,37.08
1629897267328,34.89
1629897267343,33.11
1629897267359,31.78
1629897267375,30.72
1629897267390,29.48
1629897267406,27.58
1629897267421,24.68
1629897267437,20.76
1629897267453,16.19
1629897267468,11.48
1629897267484,7.14
1629897267500,3.38
1629897267515,0.11
1629897267531,-2.99
1629897267546,-6.24
1629897267562,-9.86
1629897267578,-13.85
1629897267593,-18.09
1629897267609,-22.33
1629897267625,-26.34
1629897267640,-29.95
1629897267656,-33.08
1629897267671,-35.81
1629897267687,-38.43
1629897267703,-41.49
1629897267718,-45.59
1629897267734,-51.04
1629897267750,-57.54
1629897267765,-64.02
1629897267781,-68.78
1629897267796,-70.07
1629897267812,-66.75
1629897267828,-58.7
1629897267843,-46.9
1629897267859,-33.02
1629897267875,-18.87
1629897267890,-5.93
1629897267906,4.96
1629897267921,13.55
1629897267937,20.03
1629897267953,24.83
1629897267968,28.45
1629897267984,31.44
1629897268000,34.22
1629897268015,37.07
1629897268031,39.94
1629897268046,42.57
1629897268062,44.53
1629897268078,45.45
1629897268093,45.18
1629897268109,43.82
1629897268125,41.72
1629897268140,39.28
1629897268156,36.92
1629897268171,34.87
1629897268187,33.26
1629897268203,32.07
1629897268218,31.14
1629897268234,30.18
1629897268250,28.77
1629897268265,26.55
1629897268281,23.3
1629897268296,19.15
1629897268312,14.54
1629897268328,10.06
1629897268343,6.17
1629897268359,2.96
1629897268375,0.13
1629897268390,-2.78
1629897268406,-6.18
1629897268421,-10.15
1629897268437,-14.43
1629897268453,-18.63
1629897268468,-22.45
1629897268484,-25.86
1629897268500,-29.06
1629897268515,-32.34
1629897268531,-35.99
1629897268546,-40.16
1629897268562,-44.92
1629897268578,-50.23
1629897268593,-55.84
1629897268609,-61.22
1629897268625,-65.41
1629897268640,-67.21
1629897268656,-65.43
1629897268671,-59.39
1629897268687,-49.27
1629897268703,-36.16
1629897268718,-21.79
1629897268734,-7.97
1629897268750,3.9
1629897268765,13.19
1629897268781,20.02
1629897268796,24.92
1629897268812,28.51
1629897268828,31.26
1629897268843,33.39
1629897268859,34.97
1629897268875,36.1
1629897268890,36.91
1629897268906,37.53
1629897268921,38.01
1629897268937,38.23
1629897268953,37.99
1629897268968,37.13
1629897268984,35.68
1629897269000,33.89
1629897269015,32.19
1629897269031,30.91
1629897269046,30.12
1629897269062,29.56
1629897269078,28.67
1629897269093,26.92
1629897269109,24.01
1629897269125,20.07
1629897269140,15.55
1629897269156,11.08
1629897269171,7.12
1629897269187,3.84
1629897269203,1.09
1629897269218,-1.48
1629897269234,-4.16
1629897269250,-7.12
1629897269265,-10.31
1629897269281,-13.6
1629897269296,-16.78
1629897269312,-19.72
1629897269328,-22.35
1629897269343,-24.7
1629897269359,-26.98
1629897269375,-29.56
1629897269390,-32.91
1629897269406,-37.45
1629897269421,-43.2
1629897269437,-49.61
1629897269453,-55.51
1629897269468,-59.33
1629897269484,-59.57
1629897269500,-55.3
1629897269515,-46.55
1629897269531,-34.34
1629897269546,-20.41
1629897269562,-6.69
1629897269578,5.22
1629897269593,14.45
1629897269609,20.93
1629897269625,25.22
1629897269640,28.07
1629897269656,30.08
1629897269671,31.51
1629897269687,32.32
1629897269703,32.32
1629897269718,31.47
1629897269734,29.95
1629897269750,28.15
1629897269765,26.51
1629897269781,25.32
1629897269796,24.6
1629897269812,24.24
1629897269828,24.01
1629897269843,23.74
1629897269859,23.35
1629897269875,22.77
1629897269890,21.9
1629897269906,20.53
1629897269921,18.46
1629897269937,15.56
1629897269953,11.9
1629897269968,7.68
1629897269984,3.25
1629897270000,-1.12
1629897270015,-5.27
1629897270031,-9.18
1629897270046,-12.9
1629897270062,-16.47
1629897270078,-19.88
1629897270093,-23.1
1629897270109,-26.18
1629897270125,-29.21
1629897270140,-32.39
1629897270156,-35.98
1629897270171,-40.21
1629897270187,-45.21
1629897270203,-50.83
1629897270218,-56.51
1629897270234,-61.25
1629897270250,-63.8
1629897270265,-62.97
1629897270281,-58.07
1629897270296,-49.22
1629897270312,-37.38
1629897270328,-24.07
1629897270343,-10.96
1629897270359,0.61
1629897270375,9.96
1629897270390,16.99
1629897270406,22.05
1629897270421,25.66
1629897270437,28.27
1629897270453,30.15
1629897270468,31.43
1629897270484,32.18
1629897270500,32.49
1629897270515,32.5
1629897270531,32.35
1629897270546,32.12
1629897270562,31.8
1629897270578,31.2
1629897270593,30.12
1629897270609,28.45
1629897270625,26.24
1629897270640,23.71
1629897270656,21.16
1629897270671,18.89
1629897270687,16.97
1629897270703,15.3
1629897270718,13.55
1629897270734,11.36
1629897270750,8.41
1629897270765,4.59
1629897270781,-0.02
1629897270796,-5.15
1629897270812,-10.43
1629897270828,-15.44
1629897270843,-19.88
1629897270859,-23.62
1629897270875,-26.72
1629897270890,-29.43
1629897270906,-32.22
1629897270921,-35.6
1629897270937,-40.0
1629897270953,-45.58
1629897270968,-52.06
1629897270984,-58.6
1629897271000,-63.93
1629897271015,-66.63
1629897271031,-65.58
1629897271046,-60.33
1629897271062,-51.22
1629897271078,-39.36
1629897271093,-26.26
1629897271109,-13.37
1629897271125,-1.78
1629897271140,7.99
1629897271156,15.88
1629897271171,22.17
1629897271187,27.28
1629897271203,31.6
1629897271218,35.4
1629897271234,38.76
1629897271250,41.6
1629897271265,43.74
1629897271281,45.07
1629897271296,45.55
1629897271312,45.31
1629897271328,44.51
1629897271343,43.33
1629897271359,41.81
1629897271375,39.92
1629897271390,37.62
1629897271406,34.93
1629897271421,31.98
1629897271437,28.92
1629897271453,25.9
1629897271468,22.9
1629897271484,19.88
1629897271500,16.72
1629897271515,13.38
1629897271531,9.89
1629897271546,6.29
1629897271562,2.61
1629897271578,-1.19
1629897271593,-5.21
1629897271609,-9.48
1629897271625,-14.0
1629897271640,-18.61
1629897271656,-23.08
1629897271671,-27.23
1629897271687,-31.06
1629897271703,-34.8
1629897271718,-38.9
1629897271734,-43.86
1629897271750,-49.94
1629897271765,-56.85
1629897271781,-63.66
1629897271796,-68.95
1629897271812,-71.17
1629897271828,-69.16
1629897271843,-62.61
1629897271859,-52.12
1629897271875,-39.05
1629897271890,-25.04
1629897271906,-11.6
1629897271921,0.33
1629897271937,10.4
1629897271953,18.79
1629897271968,25.9
1629897271984,32.09
1629897272000,37.52
1629897272015,42.17
1629897272031,45.94
1629897272046,48.76
1629897272062,50.65
1629897272078,51.7
1629897272093,51.97
1629897272109,51.45
1629897272125,50.1
1629897272140,47.98
1629897272156,45.31
1629897272171,42.48
1629897272187,39.91
1629897272203,37.84
1629897272218,36.24
1629897272234,34.83
1629897272250,33.16
1629897272265,30.84
1629897272281,27.73
1629897272296,23.9
1629897272312,19.65
1629897272328,15.41
1629897272343,11.5
1629897272359,8.05
1629897272375,4.93
1629897272390,1.76
1629897272406,-1.92
1629897272421,-6.41
1629897272437,-11.75
1629897272453,-17.58
1629897272468,-23.37
1629897272484,-28.57
1629897272500,-32.92
1629897272515,-36.5
1629897272531,-39.81
1629897272546,-43.51
1629897272562,-48.25
1629897272578,-54.31
1629897272593,-61.41
1629897272609,-68.6
1629897272625,-74.41
1629897272640,-77.18
1629897272656,-75.6
1629897272671,-69.1
1629897272687,-58.14
1629897272703,-44.06
1629897272718,-28.7
1629897272734,-13.8
1629897272750,-0.63
1629897272765,10.24
1629897272781,18.86
1629897272796,25.62
1629897272812,31.03
1629897272828,35.48
1629897272843,39.3
1629897272859,42.67
1629897272875,45.73
1629897272890,48.42
1629897272906,50.64
1629897272921,52.15
1629897272937,52.7
1629897272953,52.13
1629897272968,50.49
1629897272984,48.0
1629897273000,45.08
1629897273015,42.22
1629897273031,39.79
1629897273046,37.97
1629897273062,36.65
1629897273078,35.47
1629897273093,33.95
1629897273109,31.65
1629897273125,28.36
1629897273140,24.22
1629897273156,19.68
1629897273171,15.24
1629897273187,11.32
1629897273203,8.0
1629897273218,5.09
1629897273234,2.16
1629897273250,-1.18
1629897273265,-5.1
1629897273281,-9.54
1629897273296,-14.18
1629897273312,-18.67
1629897273328,-22.82
1629897273343,-26.62
1629897273359,-30.35
1629897273375,-34.39
1629897273390,-39.21
1629897273406,-45.1
1629897273421,-52.05
1629897273437,-59.62
1629897273453,-66.83
1629897273468,-72.33
1629897273484,-74.64
1629897273500,-72.69
1629897273515,-66.08
1629897273531,-55.38
1629897273546,-41.92
1629897273562,-27.44
1629897273578,-13.54
1629897273593,-1.34
1629897273609,8.74
1629897273625,16.87
1629897273640,23.44
1629897273656,28.95
1629897273671,33.67
1629897273687,37.7
1629897273703,41.06
1629897273718,43.71
1629897273734,45.6
1629897273750,46.73
1629897273765,47.05
1629897273781,46.55
1629897273796,45.31
1629897273812,43.47
1629897273828,41.37
1629897273843,39.37
1629897273859,37.7
1629897273875,36.37
1629897273890,35.1
1629897273906,33.48
1629897273921,31.17
1629897273937,28.07
1629897273953,24.41
1629897273968,20.54
1629897273984,16.83
1629897274000,13.46
1629897274015,10.39
1629897274031,7.46
1629897274046,4.45
1629897274062,1.26
1629897274078,-2.08
1629897274093,-5.5
1629897274109,-8.87
1629897274125,-12.11
1629897274140,-15.17
1629897274156,-18.1
1629897274171,-21.08
1629897274187,-24.42
1629897274203,-28.54
1629897274218,-33.76
1629897274234,-40.13
1629897274250,-47.13
1629897274265,-53.68
1629897274281,-58.32
1629897274296,-59.62
1629897274312,-56.64
1629897274328,-49.35
1629897274343,-38.67
1629897274359,-26.18
1629897274375,-13.64
1629897274390,-2.5
1629897274406,6.46
1629897274421,13.16
1629897274437,18.05
1629897274453,21.75
1629897274468,24.79
1629897274484,27.43
1629897274500,29.63
1629897274515,31.21
1629897274531,31.97
1629897274546,31.87
1629897274562,31.11
1629897274578,30.0
1629897274593,28.88
1629897274609,27.97
1629897274625,27.26
1629897274640,26.59
1629897274656,25.71
1629897274671,24.45
1629897274687,22.77
1629897274703,20.79
1629897274718,18.66
1629897274734,16.47
1629897274750,14.22
1629897274765,11.77
1629897274781,8.94
1629897274796,5.58
1629897274812,1.68
1629897274828,-2.63
1629897274843,-7.11
1629897274859,-11.46
1629897274875,-15.45
1629897274890,-18.99
1629897274906,-22.19
1629897274921,-25.21
1629897274937,-28.32
1629897274953,-31.81
1629897274968,-35.94
1629897274984,-40.88
1629897275000,-46.57
1629897275015,-52.56
1629897275031,-57.9
1629897275046,-61.35
1629897275062,-61.67
1629897275078,-58.04
1629897275093,-50.42
1629897275109,-39.65
1629897275125,-27.17
1629897275140,-14.64
1629897275156,-3.42
1629897275171,5.71
1629897275187,12.63
1629897275203,17.71
1629897275218,21.55
1629897275234,24.72
1629897275250,27.6
1629897275265,30.34
1629897275281,32.88
1629897275296,35.03
1629897275312,36.57
1629897275328,37.38
1629897275343,37.43
1629897275359,36.81
1629897275375,35.68
1629897275390,34.21
1629897275406,32.53
1629897275421,30.78
1629897275437,29.01
1629897275453,27.23
1629897275468,25.36
1629897275484,23.31
1629897275500,20.89
1629897275515,17.99
1629897275531,14.58
1629897275546,10.79
1629897275562,6.84
1629897275578,2.91
1629897275593,-0.88
1629897275609,-4.6
1629897275625,-8.35
1629897275640,-12.22
1629897275656,-16.14
1629897275671,-19.92
1629897275687,-23.31
1629897275703,-26.16
1629897275718,-28.58
1629897275734,-30.93
1629897275750,-33.83
1629897275765,-37.88
1629897275781,-43.4
1629897275796,-50.08
1629897275812,-56.97
1629897275828,-62.53
1629897275843,-65.11
1629897275859,-63.5
1629897275875,-57.29
1629897275890,-47.13
1629897275906,-34.44
1629897275921,-20.97
1629897275937,-8.3
1629897275953,2.58
1629897275968,11.36
1629897275984,18.24
1629897276000,23.7
1629897276015,28.22
1629897276031,32.14
1629897276046,35.65
1629897276062,38.84
1629897276078,41.67
1629897276093,44.05
1629897276109,45.83
1629897276125,46.78
1629897276140,46.73
1629897276156,45.63
1629897276171,43.56
1629897276187,40.85
1629897276203,37.93
1629897276218,35.19
1629897276234,32.88
1629897276250,31.02
1629897276265,29.37
1629897276281,27.57
1629897276296,25.32
1629897276312,22.41
1629897276328,18.89
1629897276343,15.03
1629897276359,11.15
1629897276375,7.51
1629897276390,4.19
1629897276406,1.05
1629897276421,-2.17
1629897276437,-5.66
1629897276453,-9.52
1629897276468,-13.62
1629897276484,-17.76
1629897276500,-21.71
1629897276515,-25.34
1629897276531,-28.66
1629897276546,-31.87
1629897276562,-35.28
1629897276578,-39.28
1629897276593,-44.16
1629897276609,-50.01
1629897276625,-56.47
1629897276640,-62.67
1629897276656,-67.31
1629897276671,-68.97
1629897276687,-66.64
1629897276703,-60.06
1629897276718,-49.91
1629897276734,-37.57
1629897276750,-24.71
1629897276765,-12.68
1629897276781,-2.27
1629897276796,6.4
1629897276812,13.61
1629897276828,19.77
1629897276843,25.23
1629897276859,30.21
1629897276875,34.81
1629897276890,39.0
1629897276906,42.69
1629897276921,45.66
1629897276937,47.67
1629897276953,48.55
1629897276968,48.22
1629897276984,46.86
1629897277000,44.77
1629897277015,42.33
1629897277031,39.9
1629897277046,37.71
1629897277062,35.84
1629897277078,34.26
1629897277093,32.87
1629897277109,31.45
1629897277125,29.81
1629897277140,27.7
1629897277156,24.95
1629897277171,21.57
1629897277187,17.76
1629897277203,13.91
1629897277218,10.47
1629897277234,7.66
1629897277250,5.36
1629897277265,3.08
1629897277281,0.2
1629897277296,-3.72
1629897277312,-8.67
1629897277328,-14.15
1629897277343,-19.44
1629897277359,-23.9
1629897277375,-27.35
1629897277390,-30.11
1629897277406,-32.9
1629897277421,-36.47
1629897277437,-41.32
1629897277453,-47.52
1629897277468,-54.57
1629897277484,-61.48
1629897277500,-66.95
1629897277515,-69.65
1629897277531,-68.57
1629897277546,-63.24
1629897277562,-54.02
1629897277578,-41.99
1629897277593,-28.72
1629897277609,-15.78
1629897277625,-4.38
1629897277640,5.0
1629897277656,12.48
1629897277671,18.53
1629897277687,23.68
1629897277703,28.19
1629897277718,32.08
1629897277734,35.25
1629897277750,37.69
1629897277765,39.5
1629897277781,40.83
1629897277796,41.76
1629897277812,42.15
1629897277828,41.79
1629897277843,40.44
1629897277859,38.19
1629897277875,35.31
1629897277890,32.36
1629897277906,29.83
1629897277921,28.02
1629897277937,26.94
1629897277953,26.3
1629897277968,25.61
1629897277984,24.41
1629897278000,22.35
1629897278015,19.36
1629897278031,15.69
1629897278046,11.83
1629897278062,8.29
1629897278078,5.42
1629897278093,3.16
1629897278109,1.11
1629897278125,-1.32
1629897278140,-4.53
1629897278156,-8.56
1629897278171,-13.0
1629897278187,-17.25
1629897278203,-20.82
1629897278218,-23.58
1629897278234,-25.77
1629897278250,-27.94
1629897278265,-30.69
1629897278281,-34.47
1629897278296,-39.49
1629897278312,-45.63
1629897278328,-52.33
1629897278343,-58.62
1629897278359,-63.17
1629897278375,-64.62
1629897278390,-61.98
1629897278406,-55.05
1629897278421,-44.58
1629897278437,-32.04
1629897278453,-19.14
1629897278468,-7.33
1629897278484,2.56
1629897278500,10.37
1629897278515,16.38
1629897278531,21.03
1629897278546,24.72
1629897278562,27.75
1629897278578,30.33
1629897278593,32.56
1629897278609,34.47
1629897278625,35.97
1629897278640,36.86
1629897278656,36.96
1629897278671,36.21
1629897278687,34.75
1629897278703,32.93
1629897278718,31.15
1629897278734,29.72
1629897278750,28.76
1629897278765,28.17
1629897278781,27.73
1629897278796,27.14
1629897278812,26.13
1629897278828,24.49
1629897278843,22.18
1629897278859,19.31
1629897278875,16.09
1629897278890,12.81
1629897278906,9.7
1629897278921,6.86
1629897278937,4.21
1629897278953,1.58
1629897278968,-1.22
1629897278984,-4.27
1629897279000,-7.5
1629897279015,-10.77
1629897279031,-13.93
1629897279046,-16.93
1629897279062,-19.79
1629897279078,-22.65
1629897279093,-25.64
1629897279109,-28.99
1629897279125,-32.94
1629897279140,-37.62
1629897279156,-42.93
1629897279171,-48.29
1629897279187,-52.59
1629897279203,-54.5
1629897279218,-52.9
1629897279234,-47.34
1629897279250,-38.3
1629897279265,-27.04
1629897279281,-15.15
1629897279296,-4.08
1629897279312,5.21
1629897279328,12.39
1629897279343,17.61
1629897279359,21.23
1629897279375,23.69
1629897279390,25.34
1629897279406,26.43
1629897279421,27.06
1629897279437,27.23
1629897279453,26.94
1629897279468,26.26
1629897279484,25.35
1629897279500,24.47
1629897279515,23.81
1629897279531,23.39
1629897279546,23.03
1629897279562,22.5
1629897279578,21.54
1629897279593,20.14
1629897279609,18.36
1629897279625,16.34
1629897279640,14.17
1629897279656,11.85
1629897279671,9.27
1629897279687,6.32
1629897279703,2.99
1629897279718,-0.66
1629897279734,-4.45
1629897279750,-8.2
1629897279765,-11.76
1629897279781,-15.0
1629897279796,-17.86
1629897279812,-20.34
1629897279828,-22.57
1629897279843,-24.76
1629897279859,-27.27
1629897279875,-30.47
1629897279890,-34.68
1629897279906,-40.0
1629897279921,-46.1
1629897279937,-52.15
1629897279953,-56.92
1629897279968,-58.97
1629897279984,-57.2
1629897280000,-51.21
1629897280015,-41.56
1629897280031,-29.69
1629897280046,-17.43
1629897280062,-6.39
1629897280078,2.49
1629897280093,9.1
1629897280109,13.96
1629897280125,17.77
1629897280140,21.02
1629897280156,23.84
1629897280171,26.11
1629897280187,27.65
1629897280203,28.46
1629897280218,28.68
1629897280234,28.51
1629897280250,28.09
1629897280265,27.45
1629897280281,26.55
1629897280296,25.47
1629897280312,24.33
1629897280328,23.28
1629897280343,22.44
1629897280359,21.7
1629897280375,20.82
1629897280390,19.51
1629897280406,17.61
1629897280421,15.1
1629897280437,12.1
1629897280453,8.77
1629897280468,5.18
1629897280484,1.35
1629897280500,-2.76
1629897280515,-7.09
1629897280531,-11.52
1629897280546,-15.82
1629897280562,-19.79
1629897280578,-23.29
1629897280593,-26.31
1629897280609,-29.01
1629897280625,-31.68
1629897280640,-34.71
1629897280656,-38.49
1629897280671,-43.26
1629897280687,-48.88
1629897280703,-54.67
1629897280718,-59.43
1629897280734,-61.73
1629897280750,-60.37
1629897280765,-54.83
1629897280781,-45.53
1629897280796,-33.68
1629897280812,-20.92
1629897280828,-8.83
1629897280843,1.52
1629897280859,9.68
1629897280875,15.76
1629897280890,20.23
1629897280906,23.65
1629897280921,26.55
1629897280937,29.28
1629897280953,32.02
1629897280968,34.72
1629897280984,37.15
1629897281000,38.97
1629897281015,39.87
1629897281031,39.71
1629897281046,38.53
1629897281062,36.6
1629897281078,34.28
1629897281093,31.97
1629897281109,29.92
1629897281125,28.2
1629897281140,26.72
1629897281156,25.21
1629897281171,23.41
1629897281187,21.11
1629897281203,18.27
1629897281218,15.03
1629897281234,11.53
1629897281250,7.91
1629897281265,4.17
1629897281281,0.22
1629897281296,-3.97
1629897281312,-8.31
1629897281328,-12.58
1629897281343,-16.51
1629897281359,-19.95
1629897281375,-22.94
1629897281390,-25.68
1629897281406,-28.49
1629897281421,-31.66
1629897281437,-35.43
1629897281453,-39.93
1629897281468,-45.26
1629897281484,-51.29
1629897281500,-57.58
1629897281515,-63.25
1629897281531,-67.08
1629897281546,-67.78
1629897281562,-64.49
1629897281578,-57.06
1629897281593,-46.25
1629897281609,-33.49
1629897281625,-20.44
1629897281640,-8.49
1629897281656,1.59
1629897281671,9.71
1629897281687,16.25
1629897281703,21.8
1629897281718,26.85
1629897281734,31.62
1629897281750,36.09
1629897281765,40.05
1629897281781,43.26
1629897281796,45.56
1629897281812,46.9
1629897281828,47.34
1629897281843,47.0
1629897281859,46.01
1629897281875,44.49
1629897281890,42.6
1629897281906,40.52
1629897281921,38.43
1629897281937,36.48
1629897281953,34.7
1629897281968,32.97
1629897281984,31.0
1629897282000,28.52
1629897282015,25.36
1629897282031,21.59
1629897282046,17.5
1629897282062,13.42
1629897282078,9.53
1629897282093,5.85
1629897282109,2.14
1629897282125,-1.92
1629897282140,-6.48
1629897282156,-11.42
1629897282171,-16.4
1629897282187,-20.93
1629897282203,-24.69
1629897282218,-27.64
1629897282234,-30.07
1629897282250,-32.53
1629897282265,-35.65
1629897282281,-39.96
1629897282296,-45.68
1629897282312,-52.59
1629897282328,-59.87
1629897282343,-66.21
1629897282359,-70.03
1629897282375,-69.99
1629897282390,-65.48
1629897282406,-56.78
1629897282421,-45.05
1629897282437,-31.89
1629897282453,-18.84
1629897282468,-7.01
1629897282484,3.08
1629897282500,11.37
1629897282515,18.11
1629897282531,23.65
1629897282546,28.37
1629897282562,32.59
1629897282578,36.45
1629897282593,39.88
1629897282609,42.7
1629897282625,44.64
1629897282640,45.6
1629897282656,45.63
1629897282671,44.96
1629897282687,43.84
1629897282703,42.46
1629897282718,40.93
1629897282734,39.33
1629897282750,37.75
1629897282765,36.31
1629897282781,35.02
1629897282796,33.73
1629897282812,32.16
1629897282828,29.98
1629897282843,27.03
1629897282859,23.37
1629897282875,19.33
1629897282890,15.31
1629897282906,11.57
1629897282921,8.11
1629897282937,4.68
1629897282953,0.92
1629897282968,-3.43
1629897282984,-8.35
1629897283000,-13.6
1629897283015,-18.75
1629897283031,-23.32
1629897283046,-27.05
1629897283062,-29.9
1629897283078,-32.15
1629897283093,-34.36
1629897283109,-37.24
1629897283125,-41.4
1629897283140,-47.06
1629897283156,-53.85
1629897283171,-60.67
1629897283187,-65.93
1629897283203,-67.92
1629897283218,-65.45
1629897283234,-58.26
1629897283250,-47.18
1629897283265,-33.84
1629897283281,-20.19
1629897283296,-7.79
1629897283312,2.42
1629897283328,10.33
1629897283343,16.42
1629897283359,21.36
1629897283375,25.7
1629897283390,29.71
1629897283406,33.32
1629897283421,36.34
1629897283437,38.54
1629897283453,39.83
1629897283468,40.25
1629897283484,40.0
1629897283500,39.29
1629897283515,38.28
1629897283531,37.1
1629897283546,35.8
1629897283562,34.42
1629897283578,32.94
1629897283593,31.32
1629897283609,29.48
1629897283625,27.34
1629897283640,24.88
1629897283656,22.16
1629897283671,19.3
1629897283687,16.42
1629897283703,13.57
1629897283718,10.67
1629897283734,7.54
1629897283750,4.03
1629897283765,0.07
1629897283781,-4.27
1629897283796,-8.78
1629897283812,-13.21
1629897283828,-17.36
1629897283843,-21.18
1629897283859,-24.75
1629897283875,-28.29
1629897283890,-32.13
1629897283906,-36.57
1629897283921,-41.75
1629897283937,-47.52
1629897283953,-53.23
1629897283968,-57.86
1629897283984,-60.16
1629897284000,-59.05
1629897284015,-54.0
1629897284031,-45.31
1629897284046,-34.05
1629897284062,-21.73
1629897284078,-9.81
1629897284093,0.67
1629897284109,9.27
1629897284125,16.06
1629897284140,21.35
1629897284156,25.5
1629897284171,28.68
1629897284187,30.97
1629897284203,32.33
1629897284218,32.81
1629897284234,32.51
1629897284250,31.7
1629897284265,30.67
1629897284281,29.69
1629897284296,28.92
1629897284312,28.27
1629897284328,27.53
1629897284343,26.41
1629897284359,24.72
1629897284375,22.49
1629897284390,19.92
1629897284406,17.31
1629897284421,14.85
1629897284437,12.5
1629897284453,10.01
1629897284468,7.07
1629897284484,3.45
1629897284500,-0.87
1629897284515,-5.65
1629897284531,-10.5
1629897284546,-15.05
1629897284562,-19.03
1629897284578,-22.39
1629897284593,-25.24
1629897284609,-27.8
1629897284625,-30.43
1629897284640,-33.51
1629897284656,-37.41
1629897284671,-42.35
1629897284687,-48.14
1629897284703,-54.13
1629897284718,-59.15
1629897284734,-61.82
1629897284750,-60.9
1629897284765,-55.79
1629897284781,-46.79
1629897284796,-35.06
1629897284812,-22.22
1629897284828,-9.9
1629897284843,0.78
1629897284859,9.44
1629897284875,16.26
1629897284890,21.79
1629897284906,26.53
1629897284921,30.8
1629897284937,34.62
1629897284953,37.86
1629897284968,40.4
1629897284984,42.16
1629897285000,43.15
1629897285015,43.41
1629897285031,42.95
1629897285046,41.82
1629897285062,40.14
1629897285078,38.08
1629897285093,35.87
1629897285109,33.63
1629897285125,31.38
1629897285140,29.02
1629897285156,26.5
1629897285171,23.84
1629897285187,21.14
1629897285203,18.46
1629897285218,15.72
1629897285234,12.66
