timestamp,bvp
1629807853156,1.79
1629807853171,-2.43
1629807853187,-7.57
1629807853203,-13.21
1629807853218,-18.74
1629807853234,-23.65
1629807853250,-27.65
1629807853265,-30.69
1629807853281,-32.99
1629807853296,-34.9
1629807853312,-36.85
1629807853328,-39.05
1629807853343,-41.53
1629807853359,-43.83
1629807853375,-45.03
1629807853390,-43.9
1629807853406,-39.03
1629807853421,-29.17
1629807853437,-13.69
1629807853453,7.08
1629807853468,31.59
1629807853484,57.02
1629807853500,80.0
1629807853515,97.31
1629807853531,106.78
1629807853546,107.86
1629807853562,101.59
1629807853578,90.11
1629807853593,75.82
1629807853609,60.78
1629807853625,46.3
1629807853640,33.06
1629807853656,21.47
1629807853671,11.72
1629807853687,4.04
1629807853703,-1.43
1629807853718,-4.8
1629807853734,-6.45
1629807853750,-6.95
1629807853765,-7.0
1629807853781,-7.2
1629807853796,-7.98
1629807853812,-9.43
1629807853828,-11.36
1629807853843,-13.36
1629807853859,-15.05
1629807853875,-16.12
1629807853890,-16.55
1629807853906,-16.6
1629807853921,-16.61
1629807853937,-16.94
1629807853953,-17.66
1629807853968,-18.46
1629807853984,-18.83
1629807854000,-18.36
1629807854015,-16.87
1629807854031,-14.61
1629807854046,-12.12
1629807854062,-9.94
1629807854078,-8.44
1629807854093,-7.76
1629807854109,-7.69
1629807854125,-8.03
1629807854140,-8.56
1629807854156,-9.05
1629807854171,-9.2
1629807854187,-8.63
1629807854203,-7.04
1629807854218,-4.32
1629807854234,-0.8
1629807854250,2.9
1629807854265,6.1
1629807854281,8.43
1629807854296,9.89
1629807854312,10.89
1629807854328,11.89
1629807854343,13.16
1629807854359,14.57
1629807854375,15.68
1629807854390,16.03
1629807854406,15.3
1629807854421,13.63
1629807854437,11.38
1629807854453,8.97
1629807854468,6.57
1629807854484,4.26
1629807854500,2.05
1629807854515,0.12
1629807854531,-0.99
1629807854546,-0.66
1629807854562,1.56
1629807854578,5.64
1629807854593,10.9
1629807854609,16.27
1629807854625,20.7
1629807854640,23.6
1629807854656,24.95
1629807854671,25.26
1629807854687,25.13
1629807854703,25.0
1629807854718,24.89
1629807854734,24.54
1629807854750,23.63
1629807854765,21.97
1629807854781,19.67
1629807854796,17.03
1629807854812,14.45
1629807854828,12.21
1629807854843,10.45
1629807854859,9.24
1629807854875,8.58
1629807854890,8.52
1629807854906,8.96
1629807854921,9.77
1629807854937,10.63
1629807854953,11.23
1629807854968,11.38
1629807854984,11.05
1629807855000,10.41
1629807855015,9.62
1629807855031,8.86
1629807855046,8.15
1629807855062,7.47
1629807855078,6.72
1629807855093,5.87
1629807855109,4.87
1629807855125,3.69
1629807855140,2.28
1629807855156,0.68
1629807855171,-0.99
1629807855187,-2.5
1629807855203,-3.63
1629807855218,-4.3
1629807855234,-4.7
1629807855250,-5.13
1629807855265,-5.88
1629807855281,-6.98
1629807855296,-8.21
1629807855312,-9.23
1629807855328,-9.82
1629807855343,-10.05
1629807855359,-10.29
1629807855375,-11.04
1629807855390,-12.6
1629807855406,-14.92
1629807855421,-17.52
1629807855437,-19.73
1629807855453,-20.77
1629807855468,-20.09
1629807855484,-17.57
1629807855500,-13.59
1629807855515,-8.88
1629807855531,-4.29
1629807855546,-0.43
1629807855562,2.55
1629807855578,4.96
1629807855593,7.36
1629807855609,10.27
1629807855625,13.85
1629807855640,17.77
1629807855656,21.43
1629807855671,24.31
1629807855687,26.38
1629807855703,28.13
1629807855718,30.32
1629807855734,33.65
1629807855750,38.42
1629807855765,44.28
1629807855781,50.34
1629807855796,55.61
1629807855812,59.3
1629807855828,61.11
1629807855843,61.13
1629807855859,59.36
1629807855875,56.1
1629807855890,51.8
1629807855906,47.12
1629807855921,42.76
1629807855937,39.15
1629807855953,36.34
1629807855968,33.89
1629807855984,31.12
1629807856000,26.92
1629807856015,21.23
1629807856031,14.75
1629807856046,8.24
1629807856062,1.63
1629807856078,-6.51
1629807856093,-18.26
1629807856109,-35.41
1629807856125,-58.41
1629807856140,-86.68
1629807856156,-117.47
1629807856171,-147.1
1629807856187,-172.83
1629807856203,-194.1
1629807856218,-213.05
1629807856234,-233.14
1629807856250,-257.38
1629807856265,-286.36
1629807856281,-318.1
1629807856296,-345.98
1629807856312,-361.03
1629807856328,-355.8
1629807856343,-327.62
1629807856359,-280.53
1629807856375,-223.26
1629807856390,-166.06
1629807856406,-110.03
1629807856421,-59.88
1629807856437,-19.72
1629807856453,9.31
1629807856468,27.77
1629807856484,39.79
1629807856500,47.34
1629807856515,51.44
1629807856531,53.52
1629807856546,55.99
1629807856562,60.56
1629807856578,69.28
1629807856593,83.57
1629807856609,103.57
1629807856625,128.61
1629807856640,157.51
1629807856656,189.26
1629807856671,222.42
1629807856687,254.07
1629807856703,278.63
1629807856718,290.65
1629807856734,286.7
1629807856750,266.88
1629807856765,235.2
1629807856781,197.88
1629807856796,161.35
1629807856812,129.97
1629807856828,104.95
1629807856843,84.54
1629807856859,66.82
1629807856875,50.78
1629807856890,36.54
1629807856906,24.51
1629807856921,14.31
1629807856937,4.76
1629807856953,-5.89
1629807856968,-19.21
1629807856984,-36.11
1629807857000,-56.02
1629807857015,-76.87
1629807857031,-95.69
1629807857046,-109.45
1629807857062,-116.03
1629807857078,-114.78
1629807857093,-106.85
1629807857109,-94.91
1629807857125,-82.21
1629807857140,-71.57
1629807857156,-64.8
1629807857171,-62.68
1629807857187,-65.19
1629807857203,-71.42
1629807857218,-78.97
1629807857234,-83.61
1629807857250,-79.86
1629807857265,-62.99
1629807857281,-31.58
1629807857296,10.92
1629807857312,56.72
1629807857328,96.55
1629807857343,123.42
1629807857359,135.3
1629807857375,135.18
1629807857390,128.53
1629807857406,120.1
1629807857421,111.73
1629807857437,102.49
1629807857453,90.37
1629807857468,74.49
1629807857484,56.02
1629807857500,37.56
1629807857515,21.49
1629807857531,8.7
1629807857546,-1.69
1629807857562,-11.48
1629807857578,-21.98
1629807857593,-33.21
1629807857609,-43.7
1629807857625,-51.11
1629807857640,-53.45
1629807857656,-50.07
1629807857671,-42.19
1629807857687,-32.44
1629807857703,-23.98
1629807857718,-19.18
1629807857734,-18.8
1629807857750,-21.82
1629807857765,-26.08
1629807857781,-29.37
1629807857796,-30.36
1629807857812,-29.04
1629807857828,-26.38
1629807857843,-23.75
1629807857859,-22.1
1629807857875,-21.62
1629807857890,-21.74
1629807857906,-21.56
1629807857921,-20.32
1629807857937,-17.63
1629807857953,-13.66
1629807857968,-8.9
1629807857984,-4.02
1629807858000,0.4
1629807858015,3.96
1629807858031,6.51
1629807858046,8.0
1629807858062,8.51
1629807858078,8.26
1629807858093,7.53
1629807858109,6.7
1629807858125,6.12
1629807858140,6.06
1629807858156,6.6
1629807858171,7.72
1629807858187,9.44
1629807858203,11.79
1629807858218,14.96
1629807858234,19.1
1629807858250,24.17
1629807858265,29.78
1629807858281,35.07
1629807858296,38.98
1629807858312,40.33
1629807858328,38.39
1629807858343,33.0
1629807858359,24.79
1629807858375,14.93
1629807858390,4.8
1629807858406,-4.4
1629807858421,-11.95
1629807858437,-17.58
1629807858453,-21.35
1629807858468,-23.36
1629807858484,-23.71
1629807858500,-22.45
1629807858515,-19.8
1629807858531,-16.28
1629807858546,-12.68
1629807858562,-9.81
1629807858578,-8.19
1629807858593,-7.91
1629807858609,-8.69
1629807858625,-10.01
1629807858640,-11.37
1629807858656,-12.42
1629807858671,-13.06
1629807858687,-13.31
1629807858703,-13.21
1629807858718,-12.74
1629807858734,-11.79
1629807858750,-10.34
1629807858765,-8.37
1629807858781,-6.07
1629807858796,-3.69
1629807858812,-1.58
1629807858828,0.05
1629807858843,1.09
1629807858859,1.62
1629807858875,1.88
1629807858890,2.08
1629807858906,2.38
1629807858921,2.78
1629807858937,3.19
1629807858953,3.52
1629807858968,3.78
1629807858984,4.07
1629807859000,4.55
1629807859015,5.41
1629807859031,6.72
1629807859046,8.45
1629807859062,10.44
1629807859078,12.41
1629807859093,14.11
1629807859109,15.29
1629807859125,15.86
1629807859140,15.82
1629807859156,15.34
1629807859171,14.67
1629807859187,14.0
1629807859203,13.41
1629807859218,12.78
1629807859234,11.94
1629807859250,10.66
1629807859265,8.97
1629807859281,7.04
1629807859296,5.2
1629807859312,3.76
1629807859328,2.86
1629807859343,2.45
1629807859359,2.27
1629807859375,2.14
1629807859390,1.85
1629807859406,1.4
1629807859421,0.82
1629807859437,0.12
1629807859453,-0.77
1629807859468,-1.92
1629807859484,-3.39
1629807859500,-5.15
1629807859515,-6.99
1629807859531,-8.71
1629807859546,-10.06
1629807859562,-10.81
1629807859578,-10.83
1629807859593,-10.08
1629807859609,-8.66
1629807859625,-6.77
1629807859640,-4.68
1629807859656,-2.62
1629807859671,-0.83
1629807859687,0.57
1629807859703,1.54
1629807859718,2.06
1629807859734,2.16
1629807859750,1.94
1629807859765,1.54
1629807859781,1.13
1629807859796,0.83
1629807859812,0.68
1629807859828,0.71
1629807859843,0.88
1629807859859,1.16
1629807859875,1.62
1629807859890,2.35
1629807859906,3.37
1629807859921,4.65
1629807859937,6.04
1629807859953,7.31
1629807859968,8.32
1629807859984,8.93
1629807860000,9.03
1629807860015,8.61
1629807860031,7.67
1629807860046,6.31
1629807860062,4.72
1629807860078,3.16
1629807860093,1.89
1629807860109,1.06
1629807860125,0.69
1629807860140,0.63
1629807860156,0.72
1629807860171,0.73
1629807860187,0.53
1629807860203,0.07
1629807860218,-0.57
1629807860234,-1.29
1629807860250,-2.02
1629807860265,-2.66
1629807860281,-3.17
1629807860296,-3.46
1629807860312,-3.58
1629807860328,-3.53
1629807860343,-3.44
1629807860359,-3.44
1629807860375,-3.7
1629807860390,-4.32
1629807860406,-5.34
1629807860421,-6.6
1629807860437,-7.82
1629807860453,-8.8
1629807860468,-9.33
1629807860484,-9.35
1629807860500,-8.9
1629807860515,-8.06
1629807860531,-6.85
1629807860546,-5.32
1629807860562,-3.47
1629807860578,-1.41
1629807860593,0.65
1629807860609,2.47
1629807860625,3.78
1629807860640,4.42
1629807860656,4.34
1629807860671,3.66
1629807860687,2.55
1629807860703,1.25
1629807860718,-0.02
1629807860734,-1.1
1629807860750,-1.89
1629807860765,-2.4
1629807860781,-2.72
1629807860796,-2.96
1629807860812,-3.16
1629807860828,-3.27
1629807860843,-3.17
1629807860859,-2.78
1629807860875,-2.14
1629807860890,-1.42
1629807860906,-0.87
1629807860921,-0.68
1629807860937,-0.86
1629807860953,-1.32
1629807860968,-1.86
1629807860984,-2.31
1629807861000,-2.6
1629807861015,-2.78
1629807861031,-2.97
1629807861046,-3.22
1629807861062,-3.52
1629807861078,-3.8
1629807861093,-3.95
1629807861109,-3.91
1629807861125,-3.69
1629807861140,-3.41
1629807861156,-3.21
1629807861171,-3.19
1629807861187,-3.4
1629807861203,-3.74
1629807861218,-4.07
1629807861234,-4.22
1629807861250,-4.06
1629807861265,-3.53
1629807861281,-2.6
1629807861296,-1.29
1629807861312,0.35
1629807861328,2.12
1629807861343,3.76
1629807861359,4.9
1629807861375,5.24
1629807861390,4.65
1629807861406,3.21
1629807861421,1.2
1629807861437,-0.93
1629807861453,-2.74
1629807861468,-3.87
1629807861484,-4.06
1629807861500,-3.27
1629807861515,-1.57
1629807861531,0.85
1629807861546,3.62
1629807861562,6.4
1629807861578,8.83
1629807861593,10.65
1629807861609,11.75
1629807861625,12.13
1629807861640,11.9
1629807861656,11.18
1629807861671,10.08
1629807861687,8.61
1629807861703,6.75
1629807861718,4.44
1629807861734,1.73
1629807861750,-1.13
1629807861765,-3.77
1629807861781,-5.8
1629807861796,-6.95
1629807861812,-7.22
1629807861828,-6.77
1629807861843,-5.91
1629807861859,-4.83
1629807861875,-3.62
1629807861890,-2.29
1629807861906,-0.81
1629807861921,0.71
1629807861937,2.08
1629807861953,3.1
1629807861968,3.65
1629807861984,3.68
1629807862000,3.32
1629807862015,2.67
1629807862031,1.94
1629807862046,1.27
1629807862062,0.76
1629807862078,0.46
1629807862093,0.36
1629807862109,0.46
1629807862125,0.7
1629807862140,1.06
1629807862156,1.42
1629807862171,1.64
1629807862187,1.59
1629807862203,1.16
1629807862218,0.34
1629807862234,-0.78
1629807862250,-2.02
1629807862265,-3.15
1629807862281,-3.96
1629807862296,-4.33
1629807862312,-4.28
1629807862328,-3.9
1629807862343,-3.42
1629807862359,-3.06
1629807862375,-3.02
1629807862390,-3.41
1629807862406,-4.18
1629807862421,-5.25
1629807862437,-6.5
1629807862453,-7.81
1629807862468,-9.06
1629807862484,-10.15
1629807862500,-10.91
1629807862515,-11.17
1629807862531,-10.85
1629807862546,-9.98
1629807862562,-8.69
1629807862578,-7.17
1629807862593,-5.66
1629807862609,-4.29
1629807862625,-3.17
1629807862640,-2.28
1629807862656,-1.56
1629807862671,-0.95
1629807862687,-0.41
1629807862703,0.09
1629807862718,0.52
1629807862734,0.8
1629807862750,0.91
1629807862765,0.87
1629807862781,0.7
1629807862796,0.37
1629807862812,-0.24
1629807862828,-1.27
1629807862843,-2.81
1629807862859,-4.73
1629807862875,-6.71
1629807862890,-8.27
1629807862906,-9.01
1629807862921,-8.79
1629807862937,-7.76
1629807862953,-6.28
1629807862968,-4.8
1629807862984,-3.63
1629807863000,-2.95
1629807863015,-2.77
1629807863031,-2.99
1629807863046,-3.52
1629807863062,-4.27
1629807863078,-5.14
1629807863093,-6.05
1629807863109,-6.94
1629807863125,-7.76
1629807863140,-8.45
1629807863156,-8.96
1629807863171,-9.2
1629807863187,-9.17
1629807863203,-8.99
1629807863218,-8.85
1629807863234,-9.0
1629807863250,-9.57
1629807863265,-10.41
1629807863281,-11.11
1629807863296,-11.17
1629807863312,-10.19
1629807863328,-8.19
1629807863343,-5.56
1629807863359,-2.89
1629807863375,-0.73
1629807863390,0.71
1629807863406,1.58
1629807863421,2.2
1629807863437,2.8
1629807863453,3.37
1629807863468,3.62
1629807863484,3.32
1629807863500,2.47
1629807863515,1.49
1629807863531,1.08
1629807863546,1.91
1629807863562,4.25
1629807863578,7.9
1629807863593,12.23
1629807863609,16.45
1629807863625,19.98
1629807863640,22.56
1629807863656,24.33
1629807863671,25.59
1629807863687,26.66
1629807863703,27.67
1629807863718,28.66
1629807863734,29.52
1629807863750,30.03
1629807863765,30.09
1629807863781,29.64
1629807863796,28.74
1629807863812,27.56
1629807863828,26.26
1629807863843,24.83
1629807863859,23.19
1629807863875,21.19
1629807863890,18.98
1629807863906,17.04
1629807863921,16.14
1629807863937,16.92
1629807863953,19.59
1629807863968,23.6
1629807863984,27.92
1629807864000,31.37
1629807864015,33.17
1629807864031,33.34
1629807864046,32.47
1629807864062,31.43
1629807864078,30.83
1629807864093,30.87
1629807864109,31.29
1629807864125,31.58
1629807864140,31.09
1629807864156,29.16
1629807864171,25.06
1629807864187,18.28
1629807864203,8.64
1629807864218,-3.25
1629807864234,-16.02
1629807864250,-27.82
1629807864265,-36.92
1629807864281,-42.33
1629807864296,-44.1
1629807864312,-43.22
1629807864328,-40.95
1629807864343,-38.3
1629807864359,-35.72
1629807864375,-33.19
1629807864390,-30.6
1629807864406,-28.02
1629807864421,-25.74
1629807864437,-24.1
1629807864453,-23.28
1629807864468,-23.12
1629807864484,-23.18
1629807864500,-22.99
1629807864515,-22.15
1629807864531,-20.47
1629807864546,-18.04
1629807864562,-15.21
1629807864578,-12.48
1629807864593,-10.44
1629807864609,-9.54
1629807864625,-9.83
1629807864640,-10.92
1629807864656,-12.13
1629807864671,-12.82
1629807864687,-12.72
1629807864703,-12.07
1629807864718,-11.36
1629807864734,-11.05
1629807864750,-11.16
1629807864765,-11.33
1629807864781,-11.05
1629807864796,-9.99
1629807864812,-8.28
1629807864828,-6.39
1629807864843,-4.83
1629807864859,-3.85
1629807864875,-3.29
1629807864890,-2.71
1629807864906,-1.71
1629807864921,-0.24
1629807864937,1.5
1629807864953,3.1
1629807864968,4.21
1629807864984,4.73
1629807865000,4.79
1629807865015,4.66
1629807865031,4.62
1629807865046,4.78
1629807865062,5.0
1629807865078,5.12
1629807865093,4.96
1629807865109,4.43
1629807865125,3.61
1629807865140,2.69
1629807865156,1.84
1629807865171,1.23
1629807865187,0.87
1629807865203,0.64
1629807865218,0.4
1629807865234,-0.01
1629807865250,-0.69
1629807865265,-1.65
1629807865281,-2.78
1629807865296,-3.97
1629807865312,-5.05
1629807865328,-5.96
1629807865343,-6.71
1629807865359,-7.34
1629807865375,-8.0
1629807865390,-8.78
1629807865406,-9.71
1629807865421,-10.67
1629807865437,-11.49
1629807865453,-11.9
1629807865468,-11.71
1629807865484,-10.79
1629807865500,-9.17
1629807865515,-7.02
1629807865531,-4.64
1629807865546,-2.38
1629807865562,-0.55
1629807865578,0.6
1629807865593,1.1
1629807865609,1.14
1629807865625,1.1
1629807865640,1.3
1629807865656,1.92
1629807865671,2.89
1629807865687,4.03
1629807865703,5.14
1629807865718,6.16
1629807865734,7.18
1629807865750,8.31
1629807865765,9.5
1629807865781,10.61
1629807865796,11.38
1629807865812,11.63
1629807865828,11.34
1629807865843,10.63
1629807865859,9.68
1629807865875,8.67
1629807865890,7.62
1629807865906,6.51
1629807865921,5.31
1629807865937,4.1
1629807865953,3.02
1629807865968,2.3
1629807865984,2.09
1629807866000,2.39
1629807866015,3.07
1629807866031,3.82
1629807866046,4.34
1629807866062,4.41
1629807866078,3.96
1629807866093,3.12
1629807866109,2.09
1629807866125,1.1
1629807866140,0.25
1629807866156,-0.37
1629807866171,-0.79
1629807866187,-1.08
1629807866203,-1.38
1629807866218,-1.87
1629807866234,-2.74
1629807866250,-4.09
1629807866265,-5.89
1629807866281,-7.95
1629807866296,-10.04
1629807866312,-11.99
1629807866328,-13.8
1629807866343,-15.61
1629807866359,-17.59
1629807866375,-19.72
1629807866390,-21.82
1629807866406,-23.64
1629807866421,-24.96
1629807866437,-25.78
1629807866453,-26.32
1629807866468,-26.85
1629807866484,-27.52
1629807866500,-28.21
1629807866515,-28.5
1629807866531,-27.82
1629807866546,-25.76
1629807866562,-22.28
1629807866578,-17.89
1629807866593,-13.48
1629807866609,-10.03
1629807866625,-8.25
1629807866640,-8.18
1629807866656,-9.25
1629807866671,-10.43
1629807866687,-10.58
1629807866703,-9.03
1629807866718,-5.77
1629807866734,-1.45
1629807866750,2.86
1629807866765,6.0
1629807866781,7.19
1629807866796,6.24
1629807866812,3.82
1629807866828,1.53
1629807866843,1.6
1629807866859,6.38
1629807866875,17.49
1629807866890,34.97
1629807866906,56.87
1629807866921,79.52
1629807866937,98.56
1629807866953,110.19
1629807866968,112.49
1629807866984,105.76
1629807867000,92.36
1629807867015,75.65
1629807867031,58.84
1629807867046,44.13
1629807867062,32.47
1629807867078,23.79
1629807867093,17.54
1629807867109,13.07
1629807867125,9.85
1629807867140,7.37
1629807867156,5.09
1629807867171,2.36
1629807867187,-1.3
1629807867203,-5.93
1629807867218,-11.08
1629807867234,-15.88
1629807867250,-19.44
1629807867265,-21.25
1629807867281,-21.45
1629807867296,-20.69
1629807867312,-19.95
1629807867328,-20.05
1629807867343,-21.31
1629807867359,-23.51
1629807867375,-25.86
1629807867390,-27.3
1629807867406,-26.84
1629807867421,-23.83
1629807867437,-18.2
1629807867453,-10.53
1629807867468,-1.87
1629807867484,6.47
1629807867500,13.27
1629807867515,17.75
1629807867531,19.71
1629807867546,19.48
1629807867562,17.73
1629807867578,15.12
1629807867593,12.1
1629807867609,8.86
1629807867625,5.43
1629807867640,1.87
1629807867656,-1.66
1629807867671,-4.89
1629807867687,-7.69
1629807867703,-10.18
1629807867718,-12.63
1629807867734,-15.31
1629807867750,-18.26
1629807867765,-21.16
1629807867781,-23.52
1629807867796,-24.88
1629807867812,-25.0
1629807867828,-24.05
1629807867843,-22.42
1629807867859,-20.56
1629807867875,-18.77
1629807867890,-17.16
1629807867906,-15.67
1629807867921,-14.21
1629807867937,-12.68
1629807867953,-11.01
1629807867968,-9.26
1629807867984,-7.53
1629807868000,-6.0
1629807868015,-4.84
1629807868031,-4.1
1629807868046,-3.73
1629807868062,-3.46
1629807868078,-2.99
1629807868093,-2.15
1629807868109,-0.96
1629807868125,0.41
1629807868140,1.71
1629807868156,2.75
1629807868171,3.5
1629807868187,4.01
1629807868203,4.4
1629807868218,4.84
1629807868234,5.47
1629807868250,6.49
1629807868265,8.01
1629807868281,9.93
1629807868296,11.94
1629807868312,13.58
1629807868328,14.48
1629807868343,14.49
1629807868359,13.81
1629807868375,12.83
1629807868390,12.0
1629807868406,11.58
1629807868421,11.56
1629807868437,11.76
1629807868453,12.0
1629807868468,12.23
1629807868484,12.53
1629807868500,12.99
1629807868515,13.67
1629807868531,14.53
1629807868546,15.38
1629807868562,16.02
1629807868578,16.28
1629807868593,16.25
1629807868609,16.16
1629807868625,16.31
1629807868640,16.92
1629807868656,17.95
1629807868671,19.11
1629807868687,20.03
1629807868703,20.4
1629807868718,20.1
1629807868734,19.3
1629807868750,18.23
1629807868765,17.19
1629807868781,16.29
1629807868796,15.56
1629807868812,14.81
1629807868828,13.86
1629807868843,12.57
1629807868859,10.91
1629807868875,8.99
1629807868890,6.97
1629807868906,5.1
1629807868921,3.58
1629807868937,2.54
1629807868953,2.02
1629807868968,1.86
1629807868984,1.79
1629807869000,1.37
1629807869015,0.28
1629807869031,-1.74
1629807869046,-4.65
1629807869062,-8.16
1629807869078,-11.86
1629807869093,-15.38
1629807869109,-18.53
1629807869125,-21.33
1629807869140,-23.94
1629807869156,-26.28
1629807869171,-28.14
1629807869187,-29.2
1629807869203,-29.21
1629807869218,-28.31
1629807869234,-26.91
1629807869250,-25.65
1629807869265,-24.98
1629807869281,-25.06
1629807869296,-25.58
1629807869312,-25.99
1629807869328,-25.79
1629807869343,-24.63
1629807869359,-22.53
1629807869375,-19.68
1629807869390,-16.45
1629807869406,-13.13
1629807869421,-10.02
1629807869437,-7.29
1629807869453,-5.01
1629807869468,-3.23
1629807869484,-1.84
1629807869500,-0.8
1629807869515,0.0
1629807869531,0.61
1629807869546,1.08
1629807869562,1.38
1629807869578,1.51
1629807869593,1.48
1629807869609,1.38
1629807869625,1.51
1629807869640,2.29
1629807869656,4.16
1629807869671,7.4
1629807869687,11.77
1629807869703,16.58
1629807869718,20.77
1629807869734,23.37
1629807869750,23.77
1629807869765,22.05
1629807869781,18.79
1629807869796,14.87
1629807869812,11.16
1629807869828,8.11
1629807869843,5.83
1629807869859,4.01
1629807869875,2.34
1629807869890,0.54
1629807869906,-1.39
1629807869921,-3.32
1629807869937,-4.99
1629807869953,-6.26
1629807869968,-7.23
1629807869984,-8.06
1629807870000,-8.98
1629807870015,-10.05
1629807870031,-11.16
1629807870046,-12.13
1629807870062,-12.87
1629807870078,-13.5
1629807870093,-14.26
1629807870109,-15.42
1629807870125,-17.03
1629807870140,-18.89
1629807870156,-20.55
1629807870171,-21.54
1629807870187,-21.54
1629807870203,-20.47
1629807870218,-18.49
1629807870234,-15.89
1629807870250,-13.0
1629807870265,-10.06
1629807870281,-7.24
1629807870296,-4.55
1629807870312,-1.91
1629807870328,0.77
1629807870343,3.58
1629807870359,6.43
1629807870375,9.12
1629807870390,11.35
1629807870406,12.87
1629807870421,13.55
1629807870437,13.51
1629807870453,13.08
1629807870468,12.65
1629807870484,12.56
1629807870500,12.94
1629807870515,13.72
1629807870531,14.62
1629807870546,15.29
1629807870562,15.42
1629807870578,14.94
1629807870593,14.04
1629807870609,13.01
1629807870625,12.19
1629807870640,11.69
1629807870656,11.45
1629807870671,11.3
1629807870687,11.0
1629807870703,10.45
1629807870718,9.76
1629807870734,9.1
1629807870750,8.74
1629807870765,8.85
1629807870781,9.52
1629807870796,10.66
1629807870812,11.97
1629807870828,12.84
1629807870843,12.39
1629807870859,9.66
1629807870875,3.97
1629807870890,-4.63
1629807870906,-15.16
1629807870921,-25.87
1629807870937,-34.81
1629807870953,-40.49
1629807870968,-42.46
1629807870984,-41.34
1629807871000,-38.42
1629807871015,-35.12
1629807871031,-32.33
1629807871046,-30.25
1629807871062,-28.57
1629807871078,-26.92
1629807871093,-25.09
1629807871109,-23.18
1629807871125,-21.29
1629807871140,-19.4
1629807871156,-17.3
1629807871171,-14.63
1629807871187,-11.22
1629807871203,-7.21
1629807871218,-3.07
1629807871234,0.64
1629807871250,3.4
1629807871265,5.09
1629807871281,5.89
1629807871296,6.21
1629807871312,6.53
1629807871328,7.17
1629807871343,8.27
1629807871359,9.71
1629807871375,11.25
1629807871390,12.5
1629807871406,13.22
1629807871421,13.34
1629807871437,13.04
1629807871453,12.61
1629807871468,12.34
1629807871484,12.31
1629807871500,12.43
1629807871515,12.49
1629807871531,12.26
1629807871546,11.66
1629807871562,10.76
1629807871578,9.74
1629807871593,8.8
1629807871609,8.0
1629807871625,7.3
1629807871640,6.58
1629807871656,5.73
1629807871671,4.67
1629807871687,3.41
1629807871703,2.05
1629807871718,0.73
1629807871734,-0.41
1629807871750,-1.31
1629807871765,-1.98
1629807871781,-2.47
1629807871796,-2.88
1629807871812,-3.24
1629807871828,-3.6
1629807871843,-3.98
1629807871859,-4.45
1629807871875,-5.09
1629807871890,-5.95
1629807871906,-7.05
1629807871921,-8.33
1629807871937,-9.67
1629807871953,-10.94
1629807871968,-12.11
1629807871984,-13.15
1629807872000,-14.09
1629807872015,-14.82
1629807872031,-15.19
1629807872046,-14.96
1629807872062,-13.98
1629807872078,-12.21
1629807872093,-9.84
1629807872109,-7.18
1629807872125,-4.55
1629807872140,-2.27
1629807872156,-0.42
1629807872171,1.08
1629807872187,2.38
1629807872203,3.64
1629807872218,4.98
1629807872234,6.4
1629807872250,7.87
1629807872265,9.28
1629807872281,10.53
1629807872296,11.49
1629807872312,12.07
1629807872328,12.21
1629807872343,11.94
1629807872359,11.36
1629807872375,10.64
1629807872390,10.0
1629807872406,9.61
1629807872421,9.56
1629807872437,9.86
1629807872453,10.38
1629807872468,10.9
1629807872484,11.18
1629807872500,11.01
1629807872515,10.29
1629807872531,9.02
1629807872546,7.43
1629807872562,5.81
1629807872578,4.47
1629807872593,3.58
1629807872609,3.13
1629807872625,2.95
1629807872640,2.85
1629807872656,2.63
1629807872671,2.19
1629807872687,1.52
1629807872703,0.7
1629807872718,-0.21
1629807872734,-1.14
1629807872750,-1.97
1629807872765,-2.63
1629807872781,-3.08
1629807872796,-3.37
1629807872812,-3.62
1629807872828,-3.99
1629807872843,-4.63
1629807872859,-5.61
1629807872875,-6.9
1629807872890,-8.38
1629807872906,-9.81
1629807872921,-10.91
1629807872937,-11.43
1629807872953,-11.2
1629807872968,-10.22
1629807872984,-8.67
1629807873000,-6.86
1629807873015,-5.12
1629807873031,-3.63
1629807873046,-2.44
1629807873062,-1.49
1629807873078,-0.7
1629807873093,0.05
1629807873109,0.78
1629807873125,1.56
1629807873140,2.42
1629807873156,3.37
1629807873171,4.42
1629807873187,5.47
1629807873203,6.43
1629807873218,7.26
1629807873234,7.94
1629807873250,8.51
1629807873265,9.1
1629807873281,9.74
1629807873296,10.44
1629807873312,11.12
1629807873328,11.69
1629807873343,12.06
1629807873359,12.2
1629807873375,12.07
1629807873390,11.62
1629807873406,10.84
1629807873421,9.71
1629807873437,8.3
1629807873453,6.75
1629807873468,5.25
1629807873484,3.99
1629807873500,3.1
1629807873515,2.56
1629807873531,2.25
1629807873546,1.99
1629807873562,1.59
1629807873578,0.98
1629807873593,0.18
1629807873609,-0.79
1629807873625,-1.92
1629807873640,-3.22
1629807873656,-4.75
1629807873671,-6.48
1629807873687,-8.33
1629807873703,-10.24
1629807873718,-12.08
1629807873734,-13.71
1629807873750,-15.09
1629807873765,-16.17
1629807873781,-16.89
1629807873796,-17.18
1629807873812,-16.91
1629807873828,-15.93
1629807873843,-14.15
1629807873859,-11.55
1629807873875,-8.24
1629807873890,-4.59
1629807873906,-1.01
1629807873921,2.15
1629807873937,4.73
1629807873953,6.79
1629807873968,8.49
1629807873984,9.91
1629807874000,11.04
1629807874015,11.77
1629807874031,12.04
1629807874046,11.94
1629807874062,11.69
1629807874078,11.5
1629807874093,11.47
1629807874109,11.48
1629807874125,11.36
1629807874140,10.86
1629807874156,9.93
1629807874171,8.63
1629807874187,7.21
1629807874203,5.95
1629807874218,5.15
1629807874234,5.0
1629807874250,5.6
1629807874265,6.87
1629807874281,8.55
1629807874296,10.26
1629807874312,11.63
1629807874328,12.39
1629807874343,12.44
1629807874359,11.85
1629807874375,10.75
1629807874390,9.25
1629807874406,7.44
1629807874421,5.47
1629807874437,3.54
1629807874453,1.87
1629807874468,0.56
1629807874484,-0.4
1629807874500,-1.17
1629807874515,-1.99
1629807874531,-2.94
1629807874546,-4.04
1629807874562,-5.28
1629807874578,-6.75
1629807874593,-8.63
1629807874609,-11.14
1629807874625,-14.25
1629807874640,-17.73
1629807874656,-21.11
1629807874671,-23.89
1629807874687,-25.75
1629807874703,-26.71
1629807874718,-26.98
1629807874734,-26.85
1629807874750,-26.55
1629807874765,-26.07
1629807874781,-25.29
1629807874796,-24.12
1629807874812,-22.36
1629807874828,-19.93
1629807874843,-16.85
1629807874859,-13.19
1629807874875,-9.14
1629807874890,-4.95
1629807874906,-0.98
1629807874921,2.58
1629807874937,5.56
1629807874953,7.89
1629807874968,9.55
1629807874984,10.49
1629807875000,10.69
1629807875015,10.28
1629807875031,9.53
1629807875046,8.79
1629807875062,8.47
1629807875078,8.84
1629807875093,9.86
1629807875109,11.28
1629807875125,12.7
1629807875140,13.84
1629807875156,14.6
1629807875171,15.09
1629807875187,15.5
1629807875203,16.0
1629807875218,16.63
1629807875234,17.27
1629807875250,17.82
1629807875265,18.19
1629807875281,18.4
1629807875296,18.49
1629807875312,18.39
1629807875328,17.96
1629807875343,16.96
1629807875359,15.19
1629807875375,12.59
1629807875390,9.35
1629807875406,5.77
1629807875421,2.22
1629807875437,-0.97
1629807875453,-3.72
1629807875468,-5.99
1629807875484,-7.85
1629807875500,-9.37
1629807875515,-10.55
1629807875531,-11.3
1629807875546,-11.55
1629807875562,-11.28
1629807875578,-10.53
1629807875593,-9.39
1629807875609,-7.94
1629807875625,-6.26
1629807875640,-4.43
1629807875656,-2.63
1629807875671,-1.08
1629807875687,-0.01
1629807875703,0.42
1629807875718,0.19
1629807875734,-0.65
1629807875750,-2.0
1629807875765,-3.91
1629807875781,-6.44
1629807875796,-9.63
1629807875812,-13.34
1629807875828,-17.23
1629807875843,-20.81
1629807875859,-23.6
1629807875875,-25.33
1629807875890,-26.01
1629807875906,-25.82
1629807875921,-25.01
1629807875937,-23.72
1629807875953,-22.04
1629807875968,-20.01
1629807875984,-17.7
1629807876000,-15.28
1629807876015,-12.94
1629807876031,-10.88
1629807876046,-9.08
1629807876062,-7.34
1629807876078,-5.22
1629807876093,-2.12
1629807876109,2.59
1629807876125,9.23
1629807876140,17.59
1629807876156,26.91
1629807876171,35.92
1629807876187,43.36
1629807876203,48.32
1629807876218,50.52
1629807876234,50.16
1629807876250,47.68
1629807876265,43.37
1629807876281,37.34
1629807876296,29.85
1629807876312,21.62
1629807876328,13.91
1629807876343,8.2
1629807876359,5.52
1629807876375,5.86
1629807876390,8.17
1629807876406,10.71
1629807876421,11.93
1629807876437,11.07
1629807876453,8.36
1629807876468,4.79
1629807876484,1.47
1629807876500,-0.88
1629807876515,-2.14
1629807876531,-2.68
1629807876546,-3.0
1629807876562,-3.43
1629807876578,-3.95
1629807876593,-4.34
1629807876609,-4.33
1629807876625,-3.86
1629807876640,-3.13
1629807876656,-2.51
1629807876671,-2.36
1629807876687,-2.85
1629807876703,-3.85
1629807876718,-5.01
1629807876734,-5.92
1629807876750,-6.37
1629807876765,-6.41
1629807876781,-6.31
1629807876796,-6.43
1629807876812,-7.01
1629807876828,-8.05
1629807876843,-9.39
1629807876859,-10.79
1629807876875,-12.11
1629807876890,-13.37
1629807876906,-14.71
1629807876921,-16.29
1629807876937,-18.07
1629807876953,-19.86
1629807876968,-21.25
1629807876984,-21.87
1629807877000,-21.53
1629807877015,-20.29
1629807877031,-18.41
1629807877046,-16.31
1629807877062,-14.35
1629807877078,-12.77
1629807877093,-11.7
1629807877109,-11.1
1629807877125,-10.84
1629807877140,-10.78
1629807877156,-10.7
1629807877171,-10.42
1629807877187,-9.84
1629807877203,-9.0
1629807877218,-8.01
1629807877234,-6.99
1629807877250,-5.97
1629807877265,-4.91
1629807877281,-3.66
1629807877296,-2.04
1629807877312,-0.01
1629807877328,2.36
1629807877343,4.88
1629807877359,7.4
1629807877375,9.81
1629807877390,12.07
1629807877406,14.13
1629807877421,15.9
1629807877437,17.26
1629807877453,18.1
1629807877468,18.39
1629807877484,18.19
1629807877500,17.6
1629807877515,16.61
1629807877531,15.18
1629807877546,13.28
1629807877562,10.92
1629807877578,8.29
1629807877593,5.65
1629807877609,3.28
1629807877625,1.34
1629807877640,-0.16
1629807877656,-1.35
1629807877671,-2.34
1629807877687,-3.19
1629807877703,-3.97
1629807877718,-4.81
1629807877734,-5.82
1629807877750,-7.1
1629807877765,-8.69
1629807877781,-10.42
1629807877796,-12.03
1629807877812,-13.29
1629807877828,-14.09
1629807877843,-14.5
1629807877859,-14.77
1629807877875,-15.15
1629807877890,-15.79
1629807877906,-16.67
1629807877921,-17.6
1629807877937,-18.28
1629807877953,-18.46
1629807877968,-18.0
1629807877984,-16.88
1629807878000,-15.2
1629807878015,-13.13
1629807878031,-10.83
1629807878046,-8.38
1629807878062,-5.86
1629807878078,-3.31
1629807878093,-0.88
1629807878109,1.31
1629807878125,3.11
1629807878140,4.4
1629807878156,5.23
1629807878171,5.71
1629807878187,6.06
1629807878203,6.5
1629807878218,7.14
1629807878234,7.96
1629807878250,8.85
1629807878265,9.65
1629807878281,10.25
1629807878296,10.66
1629807878312,10.93
1629807878328,11.17
1629807878343,11.5
1629807878359,11.96
1629807878375,12.53
1629807878390,13.11
1629807878406,13.52
1629807878421,13.6
1629807878437,13.22
1629807878453,12.37
1629807878468,11.06
1629807878484,9.4
1629807878500,7.54
1629807878515,5.64
1629807878531,3.83
1629807878546,2.22
1629807878562,0.86
1629807878578,-0.24
1629807878593,-1.16
1629807878609,-2.03
1629807878625,-2.98
1629807878640,-4.11
1629807878656,-5.4
1629807878671,-6.76
1629807878687,-8.08
1629807878703,-9.25
1629807878718,-10.21
1629807878734,-10.94
1629807878750,-11.43
1629807878765,-11.74
1629807878781,-11.93
1629807878796,-12.07
1629807878812,-12.24
1629807878828,-12.48
1629807878843,-12.8
1629807878859,-13.16
1629807878875,-13.46
1629807878890,-13.63
1629807878906,-13.63
1629807878921,-13.39
1629807878937,-12.96
1629807878953,-12.31
1629807878968,-11.44
1629807878984,-10.23
1629807879000,-8.64
1629807879015,-6.61
1629807879031,-4.21
1629807879046,-1.7
1629807879062,0.69
1629807879078,2.74
1629807879093,4.37
1629807879109,5.66
1629807879125,6.77
1629807879140,7.87
1629807879156,8.99
1629807879171,10.1
1629807879187,11.08
1629807879203,11.87
1629807879218,12.42
1629807879234,12.77
1629807879250,12.87
1629807879265,12.66
1629807879281,12.06
1629807879296,10.99
1629807879312,9.59
1629807879328,8.11
1629807879343,6.94
1629807879359,6.33
1629807879375,6.42
1629807879390,7.08
1629807879406,7.95
1629807879421,8.6
1629807879437,8.68
1629807879453,8.04
1629807879468,6.81
1629807879484,5.29
1629807879500,3.8
1629807879515,2.58
1629807879531,1.74
1629807879546,1.19
1629807879562,0.75
1629807879578,0.2
1629807879593,-0.58
1629807879609,-1.67
1629807879625,-3.08
1629807879640,-4.69
1629807879656,-6.41
1629807879671,-8.12
1629807879687,-9.73
1629807879703,-11.28
1629807879718,-12.83
1629807879734,-14.46
1629807879750,-16.18
1629807879765,-17.96
1629807879781,-19.57
1629807879796,-20.72
1629807879812,-21.13
1629807879828,-20.52
1629807879843,-18.76
1629807879859,-15.89
1629807879875,-12.18
1629807879890,-8.01
1629807879906,-3.9
1629807879921,-0.32
1629807879937,2.44
1629807879953,4.27
1629807879968,5.32
1629807879984,5.91
1629807880000,6.45
1629807880015,7.21
1629807880031,8.33
1629807880046,9.76
1629807880062,11.3
1629807880078,12.62
1629807880093,13.49
1629807880109,13.78
1629807880125,13.49
1629807880140,12.81
1629807880156,11.97
1629807880171,11.22
1629807880187,10.74
1629807880203,10.61
1629807880218,10.77
1629807880234,11.03
1629807880250,11.21
1629807880265,11.08
1629807880281,10.52
1629807880296,9.57
1629807880312,8.41
1629807880328,7.27
1629807880343,6.31
1629807880359,5.52
1629807880375,4.75
1629807880390,3.7
1629807880406,2.16
1629807880421,0.12
1629807880437,-2.16
1629807880453,-4.25
1629807880468,-5.78
1629807880484,-6.57
1629807880500,-6.7
1629807880515,-6.41
1629807880531,-6.02
1629807880546,-5.73
1629807880562,-5.61
1629807880578,-5.72
1629807880593,-6.12
1629807880609,-6.98
1629807880625,-8.36
1629807880640,-10.14
1629807880656,-12.01
1629807880671,-13.51
1629807880687,-14.22
1629807880703,-14.0
1629807880718,-12.98
1629807880734,-11.55
1629807880750,-10.14
1629807880765,-8.97
1629807880781,-8.07
1629807880796,-7.31
1629807880812,-6.43
1629807880828,-5.24
1629807880843,-3.54
1629807880859,-1.29
1629807880875,1.51
1629807880890,4.67
1629807880906,7.92
1629807880921,10.86
1629807880937,13.13
1629807880953,14.54
1629807880968,15.12
1629807880984,15.13
1629807881000,14.93
1629807881015,14.86
1629807881031,15.15
1629807881046,15.89
1629807881062,17.01
1629807881078,18.35
1629807881093,19.74
1629807881109,20.88
1629807881125,21.47
1629807881140,21.24
1629807881156,20.04
1629807881171,17.9
1629807881187,15.1
1629807881203,11.96
1629807881218,8.89
1629807881234,6.21
1629807881250,3.99
1629807881265,2.14
1629807881281,0.51
1629807881296,-1.06
1629807881312,-2.61
1629807881328,-4.05
1629807881343,-5.29
1629807881359,-6.25
1629807881375,-6.87
1629807881390,-7.29
1629807881406,-7.6
1629807881421,-7.9
1629807881437,-8.22
1629807881453,-8.6
1629807881468,-9.08
1629807881484,-9.73
1629807881500,-10.64
1629807881515,-11.86
1629807881531,-13.39
1629807881546,-15.07
1629807881562,-16.76
1629807881578,-18.31
1629807881593,-19.64
1629807881609,-20.73
1629807881625,-21.64
1629807881640,-22.43
1629807881656,-23.13
1629807881671,-23.76
1629807881687,-24.22
1629807881703,-24.39
1629807881718,-24.07
1629807881734,-23.04
1629807881750,-21.14
1629807881765,-18.36
1629807881781,-14.83
1629807881796,-10.75
1629807881812,-6.41
1629807881828,-2.0
1629807881843,2.29
1629807881859,6.22
1629807881875,9.56
1629807881890,12.03
1629807881906,13.53
1629807881921,14.14
1629807881937,14.19
1629807881953,14.04
1629807881968,13.97
1629807881984,14.01
1629807882000,13.96
1629807882015,13.57
1629807882031,12.68
1629807882046,11.42
1629807882062,10.04
1629807882078,8.93
1629807882093,8.34
1629807882109,8.39
1629807882125,9.0
1629807882140,9.98
1629807882156,11.09
1629807882171,12.13
1629807882187,12.96
1629807882203,13.48
1629807882218,13.59
1629807882234,13.23
1629807882250,12.31
1629807882265,10.88
1629807882281,9.07
1629807882296,7.26
1629807882312,5.79
1629807882328,4.95
1629807882343,4.75
1629807882359,4.88
1629807882375,4.97
1629807882390,4.6
1629807882406,3.56
1629807882421,1.83
1629807882437,-0.54
1629807882453,-3.46
1629807882468,-6.84
1629807882484,-10.52
1629807882500,-14.18
1629807882515,-17.43
1629807882531,-19.89
1629807882546,-21.35
1629807882562,-21.93
1629807882578,-22.05
1629807882593,-22.29
1629807882609,-23.1
1629807882625,-24.64
1629807882640,-26.62
1629807882656,-28.35
1629807882671,-28.96
1629807882687,-27.59
1629807882703,-23.8
1629807882718,-17.75
1629807882734,-10.21
1629807882750,-2.33
1629807882765,4.7
1629807882781,9.99
1629807882796,13.25
1629807882812,14.76
1629807882828,15.27
1629807882843,15.68
1629807882859,16.76
1629807882875,18.77
1629807882890,21.33
1629807882906,23.32
1629807882921,23.22
1629807882937,19.7
1629807882953,12.16
1629807882968,1.3
1629807882984,-11.05
1629807883000,-22.32
1629807883015,-30.18
1629807883031,-33.12
1629807883046,-30.9
1629807883062,-24.35
1629807883078,-15.0
1629807883093,-4.46
1629807883109,5.94
1629807883125,15.1
1629807883140,22.36
1629807883156,27.37
1629807883171,30.1
1629807883187,30.84
1629807883203,30.17
1629807883218,28.85
1629807883234,27.53
1629807883250,26.58
1629807883265,25.9
1629807883281,25.05
1629807883296,23.46
1629807883312,20.63
1629807883328,16.49
1629807883343,11.27
1629807883359,5.56
1629807883375,-0.01
1629807883390,-4.95
1629807883406,-9.03
1629807883421,-12.35
1629807883437,-15.23
1629807883453,-18.18
1629807883468,-21.63
1629807883484,-25.85
1629807883500,-30.82
1629807883515,-36.21
1629807883531,-41.41
1629807883546,-45.77
1629807883562,-48.71
1629807883578,-49.96
1629807883593,-49.6
1629807883609,-47.91
1629807883625,-45.46
1629807883640,-42.78
1629807883656,-40.18
1629807883671,-37.67
1629807883687,-34.82
1629807883703,-31.02
1629807883718,-25.76
1629807883734,-18.89
1629807883750,-10.71
1629807883765,-1.97
1629807883781,6.53
1629807883796,14.37
1629807883812,21.52
1629807883828,28.44
1629807883843,35.63
1629807883859,43.48
1629807883875,52.04
1629807883890,61.24
1629807883906,70.84
1629807883921,80.55
1629807883937,90.03
1629807883953,98.71
1629807883968,105.98
1629807883984,111.33
1629807884000,114.63
1629807884015,116.1
1629807884031,116.0
1629807884046,114.37
1629807884062,110.81
1629807884078,104.78
1629807884093,96.04
1629807884109,85.25
1629807884125,73.76
1629807884140,63.1
1629807884156,54.18
1629807884171,46.74
1629807884187,39.47
1629807884203,30.66
1629807884218,19.09
1629807884234,4.54
1629807884250,-12.01
1629807884265,-28.98
1629807884281,-44.81
1629807884296,-58.49
1629807884312,-69.75
1629807884328,-78.83
1629807884343,-86.14
1629807884359,-91.9
1629807884375,-96.13
1629807884390,-98.65
1629807884406,-99.49
1629807884421,-98.97
1629807884437,-97.7
1629807884453,-96.21
1629807884468,-94.58
1629807884484,-92.42
1629807884500,-89.0
1629807884515,-83.8
1629807884531,-76.82
1629807884546,-68.72
1629807884562,-60.38
1629807884578,-52.55
1629807884593,-45.52
1629807884609,-39.18
1629807884625,-33.26
1629807884640,-27.6
1629807884656,-22.23
1629807884671,-17.18
1629807884687,-12.34
1629807884703,-7.34
1629807884718,-1.57
1629807884734,5.47
1629807884750,14.08
1629807884765,24.29
1629807884781,35.84
1629807884796,48.21
1629807884812,60.6
1629807884828,71.93
1629807884843,80.86
1629807884859,86.13
1629807884875,86.79
1629807884890,82.67
1629807884906,74.52
1629807884921,63.81
1629807884937,52.28
1629807884953,41.4
1629807884968,31.97
1629807884984,24.1
1629807885000,17.39
1629807885015,11.38
1629807885031,5.8
1629807885046,0.68
1629807885062,-3.8
1629807885078,-7.52
1629807885093,-10.6
1629807885109,-13.36
1629807885125,-16.02
1629807885140,-18.46
1629807885156,-20.14
1629807885171,-20.23
1629807885187,-17.88
1629807885203,-12.76
1629807885218,-5.13
1629807885234,4.07
1629807885250,13.59
1629807885265,22.24
1629807885281,29.16
1629807885296,33.78
1629807885312,35.72
1629807885328,34.7
1629807885343,30.46
1629807885359,23.16
1629807885375,13.51
1629807885390,2.74
1629807885406,-7.52
1629807885421,-15.78
1629807885437,-21.03
1629807885453,-23.15
1629807885468,-22.62
1629807885484,-20.38
1629807885500,-17.33
1629807885515,-14.09
1629807885531,-10.95
1629807885546,-8.12
1629807885562,-5.99
1629807885578,-5.04
1629807885593,-5.72
1629807885609,-8.0
1629807885625,-11.23
1629807885640,-14.25
1629807885656,-15.89
1629807885671,-15.6
1629807885687,-13.67
1629807885703,-11.12
1629807885718,-9.08
1629807885734,-8.33
1629807885750,-8.93
1629807885765,-10.37
1629807885781,-11.91
1629807885796,-13.02
1629807885812,-13.67
1629807885828,-14.2
1629807885843,-15.17
1629807885859,-17.01
1629807885875,-19.82
1629807885890,-23.37
1629807885906,-27.04
1629807885921,-30.03
1629807885937,-31.45
1629807885953,-30.64
1629807885968,-27.23
1629807885984,-21.32
1629807886000,-13.46
1629807886015,-4.52
1629807886031,4.52
1629807886046,12.7
1629807886062,19.25
1629807886078,23.7
1629807886093,25.83
1629807886109,25.74
1629807886125,23.74
1629807886140,20.34
1629807886156,16.18
1629807886171,11.92
1629807886187,8.07
1629807886203,4.9
1629807886218,2.39
1629807886234,0.36
1629807886250,-1.45
1629807886265,-3.3
1629807886281,-5.3
1629807886296,-7.46
1629807886312,-9.66
1629807886328,-11.7
1629807886343,-13.42
1629807886359,-14.69
1629807886375,-15.43
1629807886390,-15.59
1629807886406,-15.21
1629807886421,-14.32
1629807886437,-13.04
1629807886453,-11.53
1629807886468,-9.9
1629807886484,-8.18
1629807886500,-6.41
1629807886515,-4.61
1629807886531,-2.89
1629807886546,-1.49
1629807886562,-0.49
1629807886578,0.25
1629807886593,1.18
1629807886609,2.87
1629807886625,5.73
1629807886640,9.66
1629807886656,14.1
1629807886671,18.18
1629807886687,21.13
1629807886703,22.65
1629807886718,22.91
1629807886734,22.32
1629807886750,21.3
1629807886765,20.01
1629807886781,18.48
1629807886796,16.72
1629807886812,14.84
1629807886828,13.05
1629807886843,11.56
1629807886859,10.51
1629807886875,9.93
1629807886890,9.89
1629807886906,10.43
1629807886921,11.63
1629807886937,13.51
1629807886953,15.87
1629807886968,18.34
1629807886984,20.36
1629807887000,21.33
1629807887015,20.72
1629807887031,18.31
1629807887046,14.17
1629807887062,8.65
1629807887078,2.36
1629807887093,-3.96
1629807887109,-9.56
1629807887125,-13.85
1629807887140,-16.6
1629807887156,-17.94
1629807887171,-18.24
1629807887187,-17.98
1629807887203,-17.55
1629807887218,-17.14
1629807887234,-16.67
1629807887250,-15.9
1629807887265,-14.56
1629807887281,-12.54
1629807887296,-9.98
1629807887312,-7.35
1629807887328,-5.22
1629807887343,-4.27
1629807887359,-4.97
1629807887375,-7.55
1629807887390,-11.84
1629807887406,-17.42
1629807887421,-23.66
1629807887437,-29.87
1629807887453,-35.39
1629807887468,-39.76
1629807887484,-42.7
1629807887500,-44.17
1629807887515,-44.45
1629807887531,-43.93
1629807887546,-43.04
1629807887562,-42.02
1629807887578,-40.82
1629807887593,-39.17
1629807887609,-36.73
1629807887625,-33.33
1629807887640,-29.0
1629807887656,-24.1
1629807887671,-19.08
1629807887687,-14.37
1629807887703,-10.23
1629807887718,-6.78
1629807887734,-3.98
1629807887750,-1.81
1629807887765,-0.24
1629807887781,0.71
1629807887796,1.13
1629807887812,1.26
1629807887828,1.42
1629807887843,2.0
1629807887859,3.21
1629807887875,4.94
1629807887890,6.79
1629807887906,8.15
1629807887921,8.49
1629807887937,7.55
1629807887953,5.37
1629807887968,2.27
1629807887984,-1.4
1629807888000,-5.27
1629807888015,-9.13
1629807888031,-12.77
1629807888046,-16.05
1629807888062,-18.8
1629807888078,-20.97
1629807888093,-22.47
1629807888109,-23.24
1629807888125,-23.19
1629807888140,-22.16
1629807888156,-20.12
1629807888171,-17.13
1629807888187,-13.56
1629807888203,-9.96
1629807888218,-6.82
1629807888234,-4.34
1629807888250,-2.36
1629807888265,-0.46
1629807888281,1.81
1629807888296,4.56
1629807888312,7.61
1629807888328,10.54
1629807888343,12.92
1629807888359,14.61
1629807888375,15.72
1629807888390,16.6
1629807888406,17.57
1629807888421,18.81
1629807888437,20.28
1629807888453,21.84
1629807888468,23.25
1629807888484,24.31
1629807888500,24.92
1629807888515,25.0
1629807888531,24.68
1629807888546,24.13
1629807888562,23.58
1629807888578,23.24
1629807888593,23.17
1629807888609,23.33
1629807888625,23.53
1629807888640,23.48
1629807888656,22.87
1629807888671,21.48
1629807888687,19.25
1629807888703,16.39
1629807888718,13.35
1629807888734,10.7
1629807888750,8.93
1629807888765,8.23
1629807888781,8.38
1629807888796,8.76
1629807888812,8.58
1629807888828,7.17
1629807888843,4.26
1629807888859,0.12
1629807888875,-4.43
1629807888890,-8.39
1629807888906,-10.94
1629807888921,-11.79
1629807888937,-11.23
1629807888953,-9.91
1629807888968,-8.51
1629807888984,-7.32
1629807889000,-6.23
1629807889015,-4.88
1629807889031,-3.05
1629807889046,-0.8
1629807889062,1.49
1629807889078,3.48
1629807889093,5.0
1629807889109,6.11
1629807889125,6.98
1629807889140,7.71
1629807889156,8.23
1629807889171,8.5
1629807889187,8.56
1629807889203,8.55
1629807889218,8.61
1629807889234,8.76
1629807889250,8.92
1629807889265,8.97
1629807889281,9.01
1629807889296,9.27
1629807889312,10.08
1629807889328,11.56
1629807889343,13.59
1629807889359,15.83
1629807889375,17.99
1629807889390,19.97
1629807889406,21.87
1629807889421,23.72
1629807889437,25.4
1629807889453,26.53
1629807889468,26.7
1629807889484,25.64
1629807889500,23.48
1629807889515,20.61
1629807889531,17.56
1629807889546,14.7
1629807889562,12.12
1629807889578,9.73
1629807889593,7.39
1629807889609,5.13
1629807889625,3.13
1629807889640,1.55
1629807889656,0.36
1629807889671,-0.7
1629807889687,-1.99
1629807889703,-3.79
1629807889718,-6.03
1629807889734,-8.39
1629807889750,-10.36
1629807889765,-11.49
1629807889781,-11.65
1629807889796,-10.93
1629807889812,-9.53
1629807889828,-7.59
1629807889843,-5.08
1629807889859,-1.85
1629807889875,2.11
1629807889890,6.6
1629807889906,11.2
1629807889921,15.29
1629807889937,18.37
1629807889953,20.19
1629807889968,20.85
1629807889984,20.68
1629807890000,20.12
1629807890015,19.49
1629807890031,18.91
1629807890046,18.28
1629807890062,17.48
1629807890078,16.45
1629807890093,15.28
1629807890109,14.06
1629807890125,12.78
1629807890140,11.2
1629807890156,8.85
1629807890171,5.2
1629807890187,0.02
1629807890203,-6.5
1629807890218,-13.59
1629807890234,-20.18
1629807890250,-25.34
1629807890265,-28.47
1629807890281,-29.63
1629807890296,-29.35
1629807890312,-28.34
1629807890328,-27.16
1629807890343,-26.06
1629807890359,-25.03
1629807890375,-23.92
1629807890390,-22.71
1629807890406,-21.58
1629807890421,-20.69
1629807890437,-20.08
1629807890453,-19.37
1629807890468,-17.89
1629807890484,-14.93
1629807890500,-10.14
1629807890515,-3.82
1629807890531,3.09
1629807890546,9.33
1629807890562,13.88
1629807890578,16.21
1629807890593,16.45
1629807890609,15.1
1629807890625,12.63
1629807890640,9.32
1629807890656,5.19
1629807890671,0.36
1629807890687,-4.81
1629807890703,-9.65
1629807890718,-13.44
1629807890734,-15.71
1629807890750,-16.44
1629807890765,-16.08
1629807890781,-15.25
1629807890796,-14.44
1629807890812,-13.86
1629807890828,-13.34
1629807890843,-12.63
1629807890859,-11.53
1629807890875,-10.04
1629807890890,-8.29
1629807890906,-6.52
1629807890921,-4.91
1629807890937,-3.56
1629807890953,-2.48
1629807890968,-1.61
1629807890984,-0.9
1629807891000,-0.33
1629807891015,0.1
1629807891031,0.36
1629807891046,0.44
1629807891062,0.42
1629807891078,0.43
1629807891093,0.55
1629807891109,0.85
1629807891125,1.18
1629807891140,1.35
1629807891156,1.14
1629807891171,0.47
1629807891187,-0.52
1629807891203,-1.51
1629807891218,-2.24
1629807891234,-2.61
1629807891250,-2.78
1629807891265,-3.13
1629807891281,-4.01
1629807891296,-5.52
1629807891312,-7.51
1629807891328,-9.49
1629807891343,-10.92
1629807891359,-11.36
1629807891375,-10.66
1629807891390,-9.02
1629807891406,-7.02
1629807891421,-5.4
1629807891437,-4.78
1629807891453,-5.5
1629807891468,-7.41
1629807891484,-9.98
1629807891500,-12.47
1629807891515,-14.23
1629807891531,-14.96
1629807891546,-14.69
1629807891562,-13.66
1629807891578,-12.16
1629807891593,-10.51
1629807891609,-9.0
1629807891625,-7.9
1629807891640,-7.35
1629807891656,-7.2
1629807891671,-6.99
1629807891687,-6.02
1629807891703,-3.64
1629807891718,0.38
1629807891734,5.59
1629807891750,11.09
1629807891765,15.79
1629807891781,18.88
1629807891796,20.1
1629807891812,19.68
1629807891828,18.14
1629807891843,16.05
1629807891859,13.83
1629807891875,11.77
1629807891890,10.08
1629807891906,8.94
1629807891921,8.42
1629807891937,8.51
1629807891953,9.0
1629807891968,9.54
1629807891984,9.82
1629807892000,9.69
1629807892015,9.23
1629807892031,8.7
1629807892046,8.45
1629807892062,8.71
1629807892078,9.58
1629807892093,10.94
1629807892109,12.52
1629807892125,13.97
1629807892140,15.0
1629807892156,15.42
1629807892171,15.2
1629807892187,14.48
1629807892203,13.54
1629807892218,12.65
1629807892234,12.04
1629807892250,11.8
1629807892265,11.87
1629807892281,12.05
1629807892296,12.14
1629807892312,11.98
1629807892328,11.53
1629807892343,10.93
1629807892359,10.41
1629807892375,10.13
1629807892390,10.09
1629807892406,10.04
1629807892421,9.58
1629807892437,8.4
1629807892453,6.49
1629807892468,4.19
1629807892484,2.1
1629807892500,0.72
1629807892515,0.22
1629807892531,0.3
1629807892546,0.33
1629807892562,-0.34
1629807892578,-2.07
1629807892593,-4.84
1629807892609,-8.25
1629807892625,-11.76
1629807892640,-14.93
1629807892656,-17.43
1629807892671,-19.06
1629807892687,-19.68
1629807892703,-19.16
1629807892718,-17.52
1629807892734,-14.96
1629807892750,-11.9
1629807892765,-8.83
1629807892781,-6.18
1629807892796,-4.01
1629807892812,-2.06
1629807892828,0.09
1629807892843,2.81
1629807892859,6.11
1629807892875,9.66
1629807892890,12.86
1629807892906,15.22
1629807892921,16.49
1629807892937,16.78
1629807892953,16.38
1629807892968,15.61
1629807892984,14.67
1629807893000,13.65
1629807893015,12.63
1629807893031,11.74
1629807893046,11.22
1629807893062,11.28
1629807893078,12.05
1629807893093,13.44
1629807893109,15.14
1629807893125,16.68
1629807893140,17.6
1629807893156,17.46
1629807893171,16.0
1629807893187,13.16
1629807893203,9.03
1629807893218,3.82
1629807893234,-2.2
1629807893250,-8.76
1629807893265,-15.53
1629807893281,-22.07
1629807893296,-27.87
1629807893312,-32.4
1629807893328,-35.3
1629807893343,-36.47
1629807893359,-36.07
1629807893375,-34.53
1629807893390,-32.34
1629807893406,-29.97
1629807893421,-27.8
1629807893437,-26.04
1629807893453,-24.79
1629807893468,-23.97
1629807893484,-23.41
1629807893500,-22.88
1629807893515,-22.23
1629807893531,-21.5
1629807893546,-20.88
1629807893562,-20.7
1629807893578,-21.2
1629807893593,-22.42
1629807893609,-24.2
1629807893625,-26.27
1629807893640,-28.38
1629807893656,-30.35
1629807893671,-32.05
1629807893687,-33.34
1629807893703,-33.94
1629807893718,-33.49
1629807893734,-31.61
1629807893750,-28.08
1629807893765,-23.04
1629807893781,-16.86
1629807893796,-10.01
1629807893812,-2.74
1629807893828,4.95
1629807893843,13.17
1629807893859,21.94
1629807893875,30.91
1629807893890,39.34
1629807893906,46.29
1629807893921,51.02
1629807893937,53.16
1629807893953,52.84
1629807893968,50.62
1629807893984,47.14
1629807894000,43.02
1629807894015,38.7
1629807894031,34.52
1629807894046,30.83
1629807894062,27.98
1629807894078,26.23
1629807894093,25.61
1629807894109,25.86
1629807894125,26.47
1629807894140,26.86
1629807894156,26.55
1629807894171,25.37
1629807894187,23.5
1629807894203,21.34
1629807894218,19.26
1629807894234,17.55
1629807894250,16.31
1629807894265,15.43
1629807894281,14.74
1629807894296,14.02
1629807894312,13.18
1629807894328,12.16
1629807894343,11.05
1629807894359,9.99
1629807894375,9.06
1629807894390,8.25
1629807894406,7.32
1629807894421,6.0
1629807894437,4.11
1629807894453,1.82
1629807894468,-0.4
1629807894484,-2.05
1629807894500,-2.84
1629807894515,-3.0
1629807894531,-3.05
1629807894546,-3.51
1629807894562,-4.48
1629807894578,-5.56
1629807894593,-6.09
1629807894609,-5.53
1629807894625,-3.84
1629807894640,-1.51
1629807894656,0.6
1629807894671,1.68
1629807894687,1.26
1629807894703,-0.64
1629807894718,-3.58
1629807894734,-6.8
1629807894750,-9.42
1629807894765,-10.69
1629807894781,-10.13
1629807894796,-7.8
1629807894812,-4.25
1629807894828,-0.37
1629807894843,2.97
1629807894859,5.21
1629807894875,6.35
1629807894890,6.8
1629807894906,7.09
1629807894921,7.66
1629807894937,8.55
1629807894953,9.49
1629807894968,10.05
1629807894984,9.81
1629807895000,8.57
1629807895015,6.4
1629807895031,3.59
1629807895046,0.54
1629807895062,-2.32
1629807895078,-4.73
1629807895093,-6.54
1629807895109,-7.73
1629807895125,-8.47
1629807895140,-8.89
1629807895156,-9.13
1629807895171,-9.33
1629807895187,-9.59
1629807895203,-9.95
1629807895218,-10.34
1629807895234,-10.64
1629807895250,-10.57
1629807895265,-10.04
1629807895281,-9.08
1629807895296,-7.96
1629807895312,-7.0
1629807895328,-6.49
1629807895343,-6.46
1629807895359,-6.8
1629807895375,-7.43
1629807895390,-8.28
1629807895406,-9.44
1629807895421,-10.98
1629807895437,-12.86
1629807895453,-14.77
1629807895468,-16.26
1629807895484,-16.89
1629807895500,-16.48
1629807895515,-15.25
1629807895531,-13.64
1629807895546,-12.26
1629807895562,-11.46
1629807895578,-11.3
1629807895593,-11.56
1629807895609,-11.86
1629807895625,-11.97
1629807895640,-11.85
1629807895656,-11.72
1629807895671,-11.85
1629807895687,-12.46
1629807895703,-13.58
1629807895718,-15.04
1629807895734,-16.69
1629807895750,-18.41
1629807895765,-20.19
1629807895781,-21.98
1629807895796,-23.68
1629807895812,-25.01
1629807895828,-25.58
1629807895843,-25.09
1629807895859,-23.34
1629807895875,-20.47
1629807895890,-16.82
1629807895906,-12.96
1629807895921,-9.46
1629807895937,-6.8
1629807895953,-5.17
1629807895968,-4.49
1629807895984,-4.44
1629807896000,-4.62
1629807896015,-4.83
1629807896031,-5.03
1629807896046,-5.44
1629807896062,-6.24
1629807896078,-7.42
1629807896093,-8.7
1629807896109,-9.67
1629807896125,-9.96
1629807896140,-9.42
1629807896156,-8.27
1629807896171,-6.78
1629807896187,-5.28
1629807896203,-3.94
1629807896218,-2.7
1629807896234,-1.36
1629807896250,0.24
1629807896265,2.14
1629807896281,4.22
1629807896296,6.23
1629807896312,7.92
1629807896328,9.17
1629807896343,10.07
1629807896359,10.86
1629807896375,11.77
1629807896390,12.84
1629807896406,13.86
1629807896421,14.55
1629807896437,14.7
1629807896453,14.42
1629807896468,14.07
1629807896484,14.1
1629807896500,14.7
1629807896515,15.7
1629807896531,16.57
1629807896546,16.69
1629807896562,15.69
1629807896578,13.66
1629807896593,11.16
1629807896609,8.95
1629807896625,7.67
1629807896640,7.52
1629807896656,8.25
1629807896671,9.33
1629807896687,10.2
1629807896703,10.48
1629807896718,10.02
1629807896734,8.88
1629807896750,7.25
1629807896765,5.35
1629807896781,3.46
1629807896796,1.88
1629807896812,0.81
1629807896828,0.3
1629807896843,0.18
1629807896859,0.09
1629807896875,-0.37
1629807896890,-1.34
1629807896906,-2.73
1629807896921,-4.17
1629807896937,-5.21
1629807896953,-5.5
1629807896968,-4.88
1629807896984,-3.41
1629807897000,-1.33
1629807897015,1.0
1629807897031,3.21
1629807897046,4.94
1629807897062,5.98
1629807897078,6.31
1629807897093,6.09
1629807897109,5.56
1629807897125,4.95
1629807897140,4.42
1629807897156,4.06
1629807897171,3.8
1629807897187,3.59
1629807897203,3.33
1629807897218,3.01
1629807897234,2.67
1629807897250,2.49
1629807897265,2.67
1629807897281,3.42
1629807897296,4.76
1629807897312,6.41
1629807897328,7.87
1629807897343,8.57
1629807897359,8.16
1629807897375,6.66
1629807897390,4.5
1629807897406,2.27
1629807897421,0.52
1629807897437,-0.55
1629807897453,-1.12
1629807897468,-1.71
1629807897484,-2.79
1629807897500,-4.64
1629807897515,-7.13
1629807897531,-9.89
1629807897546,-12.43
1629807897562,-14.43
1629807897578,-15.81
1629807897593,-16.69
1629807897609,-17.15
1629807897625,-17.2
1629807897640,-16.74
1629807897656,-15.71
1629807897671,-14.34
1629807897687,-13.09
1629807897703,-12.65
1629807897718,-13.54
1629807897734,-15.8
1629807897750,-18.87
1629807897765,-21.88
1629807897781,-24.05
1629807897796,-25.12
1629807897812,-25.53
1629807897828,-26.14
1629807897843,-27.73
1629807897859,-30.57
1629807897875,-34.28
1629807897890,-37.96
1629807897906,-40.74
1629807897921,-42.16
1629807897937,-42.36
1629807897953,-41.9
1629807897968,-41.36
1629807897984,-41.05
1629807898000,-40.82
1629807898015,-40.29
1629807898031,-39.1
1629807898046,-37.07
1629807898062,-34.26
1629807898078,-30.78
1629807898093,-26.62
1629807898109,-21.61
1629807898125,-15.58
1629807898140,-8.63
1629807898156,-1.23
1629807898171,5.84
1629807898187,11.93
1629807898203,16.95
1629807898218,21.44
1629807898234,26.25
1629807898250,31.93
1629807898265,38.29
1629807898281,44.3
1629807898296,48.67
1629807898312,50.5
1629807898328,49.87
1629807898343,47.75
1629807898359,45.44
1629807898375,43.88
1629807898390,43.18
1629807898406,42.8
1629807898421,41.94
1629807898437,40.2
1629807898453,37.64
1629807898468,34.75
1629807898484,32.03
1629807898500,29.63
1629807898515,27.31
1629807898531,24.64
1629807898546,21.29
1629807898562,17.27
1629807898578,13.02
1629807898593,9.15
1629807898609,6.13
1629807898625,4.09
1629807898640,2.7
1629807898656,1.36
1629807898671,-0.53
1629807898687,-3.32
1629807898703,-6.98
1629807898718,-11.08
1629807898734,-14.91
1629807898750,-17.87
1629807898765,-19.56
1629807898781,-20.0
1629807898796,-19.59
1629807898812,-19.02
1629807898828,-18.92
1629807898843,-19.56
1629807898859,-20.67
1629807898875,-21.5
1629807898890,-21.29
1629807898906,-19.5
1629807898921,-16.21
1629807898937,-11.95
1629807898953,-7.53
1629807898968,-3.59
1629807898984,-0.46
1629807899000,1.91
1629807899015,3.73
1629807899031,5.19
1629807899046,6.39
1629807899062,7.25
1629807899078,7.71
1629807899093,7.79
1629807899109,7.66
1629807899125,7.58
1629807899140,7.74
1629807899156,8.31
1629807899171,9.25
1629807899187,10.45
1629807899203,11.71
1629807899218,12.82
1629807899234,13.72
1629807899250,14.39
1629807899265,14.92
1629807899281,15.35
1629807899296,15.59
1629807899312,15.41
1629807899328,14.5
1629807899343,12.67
1629807899359,9.95
1629807899375,6.66
1629807899390,3.33
1629807899406,0.52
1629807899421,-1.37
1629807899437,-2.3
1629807899453,-2.51
1629807899468,-2.46
1629807899484,-2.52
1629807899500,-2.94
1629807899515,-3.73
1629807899531,-4.72
1629807899546,-5.72
1629807899562,-6.61
1629807899578,-7.39
1629807899593,-8.1
1629807899609,-8.79
1629807899625,-9.36
1629807899640,-9.76
1629807899656,-9.96
1629807899671,-10.07
1629807899687,-10.33
1629807899703,-10.97
1629807899718,-12.04
1629807899734,-13.36
1629807899750,-14.57
1629807899765,-15.23
1629807899781,-15.05
1629807899796,-13.9
1629807899812,-11.86
1629807899828,-9.16
1629807899843,-6.1
1629807899859,-3.02
1629807899875,-0.18
1629807899890,2.2
1629807899906,4.11
1629807899921,5.64
1629807899937,7.01
1629807899953,8.37
1629807899968,9.85
1629807899984,11.35
1629807900000,12.77
1629807900015,14.03
1629807900031,15.1
1629807900046,16.06
1629807900062,17.04
1629807900078,18.03
1629807900093,18.94
1629807900109,19.57
1629807900125,19.69
1629807900140,19.2
1629807900156,18.23
1629807900171,17.06
1629807900187,16.06
1629807900203,15.53
1629807900218,15.5
1629807900234,15.77
1629807900250,15.92
1629807900265,15.49
1629807900281,14.16
1629807900296,11.91
1629807900312,8.94
1629807900328,5.66
1629807900343,2.52
1629807900359,-0.22
1629807900375,-2.41
1629807900390,-4.08
1629807900406,-5.39
1629807900421,-6.47
1629807900437,-7.41
1629807900453,-8.27
1629807900468,-9.08
1629807900484,-9.88
1629807900500,-10.72
1629807900515,-11.59
1629807900531,-12.44
1629807900546,-13.22
1629807900562,-13.89
1629807900578,-14.55
1629807900593,-15.43
1629807900609,-16.74
1629807900625,-18.59
1629807900640,-20.86
1629807900656,-23.18
1629807900671,-25.09
1629807900687,-26.2
1629807900703,-26.26
1629807900718,-25.16
1629807900734,-22.91
1629807900750,-19.55
1629807900765,-15.28
1629807900781,-10.46
1629807900796,-5.62
1629807900812,-1.31
1629807900828,2.03
1629807900843,4.26
1629807900859,5.51
1629807900875,6.1
1629807900890,6.33
1629807900906,6.35
1629807900921,6.15
1629807900937,5.7
1629807900953,5.1
1629807900968,4.54
1629807900984,4.2
1629807901000,4.15
1629807901015,4.36
1629807901031,4.64
1629807901046,4.81
1629807901062,4.75
1629807901078,4.44
1629807901093,3.94
1629807901109,3.35
1629807901125,2.73
1629807901140,2.12
1629807901156,1.59
1629807901171,1.24
1629807901187,1.35
1629807901203,2.27
1629807901218,4.44
1629807901234,8.15
1629807901250,13.49
1629807901265,20.15
1629807901281,27.47
1629807901296,34.54
1629807901312,40.37
1629807901328,44.16
1629807901343,45.46
1629807901359,44.23
1629807901375,40.76
1629807901390,35.65
1629807901406,29.61
1629807901421,23.38
1629807901437,17.63
1629807901453,12.73
1629807901468,8.82
1629807901484,5.81
1629807901500,3.44
1629807901515,1.54
1629807901531,0.0
1629807901546,-1.17
1629807901562,-2.09
1629807901578,-2.97
1629807901593,-4.24
1629807901609,-6.33
1629807901625,-9.43
1629807901640,-13.31
1629807901656,-17.26
1629807901671,-20.36
1629807901687,-21.9
1629807901703,-21.58
1629807901718,-19.63
1629807901734,-16.66
1629807901750,-13.33
1629807901765,-10.1
1629807901781,-7.21
1629807901796,-4.61
1629807901812,-2.17
1629807901828,0.09
1629807901843,2.11
1629807901859,3.75
1629807901875,5.0
1629807901890,6.02
1629807901906,7.14
1629807901921,8.61
1629807901937,10.43
1629807901953,12.33
1629807901968,13.82
1629807901984,14.51
1629807902000,14.28
1629807902015,13.36
1629807902031,12.12
1629807902046,10.93
1629807902062,9.95
1629807902078,9.19
1629807902093,8.63
1629807902109,8.3
1629807902125,8.3
1629807902140,8.62
1629807902156,9.02
1629807902171,9.13
1629807902187,8.57
1629807902203,7.24
1629807902218,5.43
1629807902234,3.73
1629807902250,2.68
1629807902265,2.52
1629807902281,3.01
1629807902296,3.59
1629807902312,3.65
1629807902328,2.85
1629807902343,1.27
1629807902359,-0.67
1629807902375,-2.47
1629807902390,-3.81
1629807902406,-4.69
1629807902421,-5.33
1629807902437,-6.1
1629807902453,-7.2
1629807902468,-8.62
1629807902484,-10.14
1629807902500,-11.55
1629807902515,-12.7
1629807902531,-13.58
1629807902546,-14.33
1629807902562,-15.18
1629807902578,-16.38
1629807902593,-18.06
1629807902609,-20.21
1629807902625,-22.65
1629807902640,-25.05
1629807902656,-27.08
1629807902671,-28.43
1629807902687,-28.83
1629807902703,-28.17
1629807902718,-26.41
1629807902734,-23.54
1629807902750,-19.74
1629807902765,-15.31
1629807902781,-10.78
1629807902796,-6.66
1629807902812,-3.32
1629807902828,-0.81
1629807902843,1.13
1629807902859,2.89
1629807902875,4.74
1629807902890,6.68
1629807902906,8.5
1629807902921,9.93
1629807902937,10.75
1629807902953,10.92
1629807902968,10.54
1629807902984,9.73
1629807903000,8.64
1629807903015,7.46
1629807903031,6.48
1629807903046,6.05
1629807903062,6.52
1629807903078,7.94
1629807903093,10.08
1629807903109,12.41
1629807903125,14.35
1629807903140,15.45
1629807903156,15.57
1629807903171,14.82
1629807903187,13.6
1629807903203,12.29
1629807903218,11.11
1629807903234,10.16
1629807903250,9.32
1629807903265,8.45
1629807903281,7.41
1629807903296,6.16
1629807903312,4.77
1629807903328,3.41
1629807903343,2.26
1629807903359,1.49
1629807903375,1.11
1629807903390,1.05
1629807903406,1.13
1629807903421,1.1
1629807903437,0.74
1629807903453,-0.14
1629807903468,-1.6
1629807903484,-3.55
1629807903500,-5.75
1629807903515,-7.9
1629807903531,-9.71
1629807903546,-10.97
1629807903562,-11.64
1629807903578,-11.94
1629807903593,-12.26
1629807903609,-12.94
1629807903625,-14.13
1629807903640,-15.68
1629807903656,-17.13
1629807903671,-17.94
1629807903687,-17.6
1629807903703,-15.89
1629807903718,-12.96
1629807903734,-9.22
1629807903750,-5.32
1629807903765,-1.87
1629807903781,0.71
1629807903796,2.3
1629807903812,3.04
1629807903828,3.33
1629807903843,3.51
1629807903859,3.82
1629807903875,4.35
1629807903890,5.04
1629807903906,5.84
1629807903921,6.75
1629807903937,7.84
1629807903953,9.08
1629807903968,10.4
1629807903984,11.63
1629807904000,12.6
1629807904015,13.23
1629807904031,13.54
1629807904046,13.69
1629807904062,13.76
1629807904078,13.75
1629807904093,13.44
1629807904109,12.62
1629807904125,11.19
1629807904140,9.29
1629807904156,7.29
1629807904171,5.6
1629807904187,4.5
1629807904203,4.0
1629807904218,3.87
1629807904234,3.78
1629807904250,3.51
1629807904265,3.03
1629807904281,2.45
1629807904296,1.9
1629807904312,1.39
1629807904328,0.87
1629807904343,0.23
1629807904359,-0.57
1629807904375,-1.49
1629807904390,-2.41
1629807904406,-3.26
1629807904421,-3.96
1629807904437,-4.5
1629807904453,-4.93
1629807904468,-5.36
1629807904484,-5.9
1629807904500,-6.68
1629807904515,-7.77
1629807904531,-9.1
1629807904546,-10.56
1629807904562,-11.97
1629807904578,-13.2
1629807904593,-14.19
1629807904609,-14.83
1629807904625,-14.96
1629807904640,-14.38
1629807904656,-12.94
1629807904671,-10.63
1629807904687,-7.65
1629807904703,-4.38
1629807904718,-1.23
1629807904734,1.46
1629807904750,3.59
1629807904765,5.22
1629807904781,6.51
1629807904796,7.6
1629807904812,8.58
1629807904828,9.41
1629807904843,10.08
1629807904859,10.53
1629807904875,10.74
1629807904890,10.72
1629807904906,10.46
1629807904921,10.0
1629807904937,9.38
1629807904953,8.71
1629807904968,8.14
1629807904984,7.86
1629807905000,7.96
1629807905015,8.47
1629807905031,9.28
1629807905046,10.14
1629807905062,10.85
1629807905078,11.23
1629807905093,11.17
1629807905109,10.66
1629807905125,9.79
1629807905140,8.69
1629807905156,7.5
1629807905171,6.34
1629807905187,5.26
1629807905203,4.18
1629807905218,3.05
1629807905234,1.78
1629807905250,0.34
1629807905265,-1.21
1629807905281,-2.81
1629807905296,-4.44
1629807905312,-6.11
1629807905328,-7.81
1629807905343,-9.46
1629807905359,-10.88
1629807905375,-11.83
1629807905390,-12.24
1629807905406,-12.18
1629807905421,-11.93
1629807905437,-11.85
1629807905453,-12.31
1629807905468,-13.45
1629807905484,-15.23
1629807905500,-17.4
1629807905515,-19.64
1629807905531,-21.59
1629807905546,-22.96
1629807905562,-23.57
1629807905578,-23.33
1629807905593,-22.26
1629807905609,-20.39
1629807905625,-17.79
1629807905640,-14.52
1629807905656,-10.73
1629807905671,-6.71
1629807905687,-2.86
1629807905703,0.36
1629807905718,2.52
1629807905734,3.4
1629807905750,3.01
1629807905765,1.61
1629807905781,-0.32
1629807905796,-2.21
1629807905812,-3.54
1629807905828,-3.98
1629807905843,-3.54
1629807905859,-2.59
1629807905875,-1.83
1629807905890,-1.99
1629807905906,-3.58
1629807905921,-6.5
1629807905937,-9.94
1629807905953,-12.53
1629807905968,-12.8
1629807905984,-9.76
1629807906000,-3.35
1629807906015,5.57
1629807906031,15.53
1629807906046,25.06
1629807906062,33.18
1629807906078,39.6
1629807906093,44.65
1629807906109,48.94
1629807906125,53.07
1629807906140,57.57
1629807906156,62.86
1629807906171,69.18
1629807906187,76.47
1629807906203,84.22
1629807906218,91.49
1629807906234,97.34
1629807906250,101.25
1629807906265,103.54
1629807906281,105.29
1629807906296,107.85
1629807906312,112.06
1629807906328,117.73
1629807906343,123.66
1629807906359,128.21
1629807906375,130.04
1629807906390,128.65
1629807906406,124.21
1629807906421,116.97
1629807906437,106.63
1629807906453,92.05
1629807906468,71.79
1629807906484,44.93
1629807906500,11.83
1629807906515,-25.76
1629807906531,-65.1
1629807906546,-103.72
1629807906562,-140.27
1629807906578,-174.83
1629807906593,-208.14
1629807906609,-240.43
1629807906625,-270.34
1629807906640,-294.83
1629807906656,-309.98
1629807906671,-312.43
1629807906687,-300.64
1629807906703,-275.39
1629807906718,-239.67
1629807906734,-197.74
1629807906750,-154.13
1629807906765,-112.89
1629807906781,-77.1
1629807906796,-48.86
1629807906812,-29.44
1629807906828,-19.64
1629807906843,-19.94
1629807906859,-30.51
1629807906875,-50.87
1629807906890,-79.53
1629807906906,-113.81
1629807906921,-150.11
1629807906937,-184.75
1629807906953,-214.98
1629807906968,-239.44
1629807906984,-257.81
1629807907000,-269.86
1629807907015,-274.63
1629807907031,-270.22
1629807907046,-254.84
1629807907062,-228.19
1629807907078,-192.61
1629807907093,-152.9
1629807907109,-114.87
1629807907125,-83.24
1629807907140,-59.97
1629807907156,-43.88
1629807907171,-31.61
1629807907187,-19.37
1629807907203,-4.37
1629807907218,14.35
1629807907234,35.83
1629807907250,57.82
1629807907265,77.52
1629807907281,92.52
1629807907296,101.71
1629807907312,105.76
1629807907328,107.07
1629807907343,108.62
1629807907359,112.54
1629807907375,118.88
1629807907390,125.43
1629807907406,128.67
1629807907421,125.68
1629807907437,115.67
1629807907453,100.68
1629807907468,85.03
1629807907484,73.75
1629807907500,70.92
1629807907515,78.6
1629807907531,96.43
1629807907546,122.04
1629807907562,152.1
1629807907578,183.39
1629807907593,213.87
1629807907609,243.15
1629807907625,272.07
1629807907640,301.72
1629807907656,331.95
1629807907671,360.74
1629807907687,384.38
1629807907703,398.83
1629807907718,401.49
1629807907734,392.22
1629807907750,373.4
1629807907765,348.72
1629807907781,321.6
1629807907796,293.84
1629807907812,265.59
1629807907828,236.22
1629807907843,205.49
1629807907859,174.17
1629807907875,143.7
1629807907890,115.09
1629807907906,88.07
1629807907921,61.18
1629807907937,32.64
1629807907953,1.62
1629807907968,-31.17
1629807907984,-63.5
1629807908000,-92.43
1629807908015,-115.23
1629807908031,-130.17
1629807908046,-137.02
1629807908062,-137.06
1629807908078,-132.9
1629807908093,-127.66
1629807908109,-123.95
1629807908125,-122.78
1629807908140,-123.07
1629807908156,-122.16
1629807908171,-117.11
1629807908187,-106.37
1629807908203,-90.72
1629807908218,-73.04
1629807908234,-56.91
1629807908250,-44.99
1629807908265,-38.02
1629807908281,-34.73
1629807908296,-32.81
1629807908312,-30.17
1629807908328,-25.85
1629807908343,-20.38
1629807908359,-15.28
1629807908375,-12.21
1629807908390,-12.03
1629807908406,-14.43
1629807908421,-18.13
1629807908437,-21.51
1629807908453,-23.41
1629807908468,-23.48
1629807908484,-21.92
1629807908500,-18.79
1629807908515,-13.66
1629807908531,-5.72
1629807908546,5.46
1629807908562,19.09
1629807908578,32.82
1629807908593,43.23
1629807908609,47.05
1629807908625,42.51
1629807908640,30.19
1629807908656,12.72
1629807908671,-6.15
1629807908687,-23.19
1629807908703,-36.76
1629807908718,-47.22
1629807908734,-56.32
1629807908750,-66.01
1629807908765,-77.21
1629807908781,-89.34
1629807908796,-100.66
1629807908812,-109.13
1629807908828,-113.31
1629807908843,-112.79
1629807908859,-108.06
1629807908875,-100.06
1629807908890,-89.71
1629807908906,-77.78
1629807908921,-65.09
1629807908937,-52.62
1629807908953,-41.46
1629807908968,-32.63
1629807908984,-26.69
1629807909000,-23.43
1629807909015,-21.97
1629807909031,-21.13
1629807909046,-19.79
1629807909062,-17.35
1629807909078,-13.77
1629807909093,-9.53
1629807909109,-5.31
1629807909125,-1.78
1629807909140,0.63
1629807909156,1.83
1629807909171,1.91
1629807909187,1.14
1629807909203,-0.22
1629807909218,-1.79
1629807909234,-3.24
1629807909250,-4.22
1629807909265,-4.5
1629807909281,-4.07
1629807909296,-3.12
1629807909312,-1.93
1629807909328,-0.88
1629807909343,-0.25
1629807909359,-0.2
1629807909375,-0.75
1629807909390,-1.79
1629807909406,-3.06
1629807909421,-4.31
1629807909437,-5.35
1629807909453,-6.09
1629807909468,-6.61
1629807909484,-7.05
1629807909500,-7.5
1629807909515,-7.96
1629807909531,-8.41
1629807909546,-8.82
1629807909562,-9.3
1629807909578,-10.02
1629807909593,-11.18
1629807909609,-12.83
1629807909625,-14.8
1629807909640,-16.74
1629807909656,-18.2
1629807909671,-18.83
1629807909687,-18.42
1629807909703,-17.06
1629807909718,-14.97
1629807909734,-12.58
1629807909750,-10.23
1629807909765,-8.17
1629807909781,-6.41
1629807909796,-4.81
1629807909812,-3.22
1629807909828,-1.54
1629807909843,0.14
1629807909859,1.67
1629807909875,2.88
1629807909890,3.56
1629807909906,3.57
1629807909921,2.82
1629807909937,1.39
1629807909953,-0.4
1629807909968,-2.02
1629807909984,-2.97
1629807910000,-2.87
1629807910015,-1.69
1629807910031,0.24
1629807910046,2.41
1629807910062,4.37
1629807910078,5.84
1629807910093,6.8
1629807910109,7.35
1629807910125,7.56
1629807910140,7.47
1629807910156,7.13
1629807910171,6.6
1629807910187,5.96
1629807910203,5.32
1629807910218,4.76
1629807910234,4.32
1629807910250,3.99
1629807910265,3.69
1629807910281,3.34
1629807910296,2.86
1629807910312,2.21
1629807910328,1.51
1629807910343,0.87
1629807910359,0.48
1629807910375,0.4
1629807910390,0.57
1629807910406,0.75
1629807910421,0.73
1629807910437,0.34
1629807910453,-0.47
1629807910468,-1.59
1629807910484,-2.91
1629807910500,-4.3
1629807910515,-5.67
1629807910531,-6.94
1629807910546,-8.07
1629807910562,-8.97
1629807910578,-9.6
1629807910593,-9.96
1629807910609,-10.07
1629807910625,-9.91
1629807910640,-9.49
1629807910656,-8.69
1629807910671,-7.44
1629807910687,-5.72
1629807910703,-3.6
1629807910718,-1.38
1629807910734,0.65
1629807910750,2.29
1629807910765,3.47
1629807910781,4.37
1629807910796,5.27
1629807910812,6.37
1629807910828,7.69
1629807910843,9.01
1629807910859,9.89
1629807910875,9.94
1629807910890,9.0
1629807910906,7.11
1629807910921,4.61
1629807910937,2.01
1629807910953,-0.21
1629807910968,-1.63
1629807910984,-1.96
1629807911000,-1.15
1629807911015,0.69
1629807911031,3.31
1629807911046,6.25
1629807911062,9.05
1629807911078,11.34
1629807911093,12.86
1629807911109,13.57
1629807911125,13.6
1629807911140,13.09
1629807911156,12.2
1629807911171,11.06
1629807911187,9.72
1629807911203,8.38
1629807911218,7.17
1629807911234,6.24
1629807911250,5.63
1629807911265,5.26
1629807911281,4.96
1629807911296,4.55
1629807911312,4.01
1629807911328,3.38
1629807911343,2.86
1629807911359,2.56
1629807911375,2.49
1629807911390,2.61
1629807911406,2.82
1629807911421,2.98
1629807911437,2.97
1629807911453,2.75
1629807911468,2.19
1629807911484,1.22
1629807911500,-0.26
1629807911515,-2.32
1629807911531,-4.85
1629807911546,-7.61
1629807911562,-10.19
1629807911578,-12.2
1629807911593,-13.34
1629807911609,-13.59
1629807911625,-13.15
1629807911640,-12.34
1629807911656,-11.44
1629807911671,-10.44
1629807911687,-9.22
1629807911703,-7.6
1629807911718,-5.54
1629807911734,-3.19
1629807911750,-0.9
1629807911765,1.03
1629807911781,2.44
1629807911796,3.37
1629807911812,4.02
1629807911828,4.63
1629807911843,5.42
1629807911859,6.46
1629807911875,7.79
1629807911890,9.27
1629807911906,10.76
1629807911921,12.1
1629807911937,13.11
1629807911953,13.76
1629807911968,14.07
1629807911984,14.17
1629807912000,14.18
1629807912015,14.2
1629807912031,14.22
1629807912046,14.22
1629807912062,14.16
1629807912078,14.06
1629807912093,13.9
1629807912109,13.69
1629807912125,13.36
1629807912140,12.84
1629807912156,12.12
1629807912171,11.21
1629807912187,10.2
1629807912203,9.17
1629807912218,8.18
1629807912234,7.28
1629807912250,6.47
1629807912265,5.8
1629807912281,5.3
1629807912296,4.98
1629807912312,4.75
1629807912328,4.47
1629807912343,3.96
1629807912359,3.09
1629807912375,1.84
1629807912390,0.32
1629807912406,-1.31
1629807912421,-2.88
1629807912437,-4.31
1629807912453,-5.58
1629807912468,-6.78
1629807912484,-7.99
1629807912500,-9.25
1629807912515,-10.56
1629807912531,-11.82
1629807912546,-12.92
1629807912562,-13.79
1629807912578,-14.42
1629807912593,-14.86
1629807912609,-15.2
1629807912625,-15.56
1629807912640,-15.95
1629807912656,-16.34
1629807912671,-16.68
1629807912687,-16.93
1629807912703,-17.05
1629807912718,-16.97
1629807912734,-16.54
1629807912750,-15.47
1629807912765,-13.53
1629807912781,-10.6
1629807912796,-6.89
1629807912812,-2.89
1629807912828,0.77
1629807912843,3.61
1629807912859,5.49
1629807912875,6.64
1629807912890,7.46
1629807912906,8.3
1629807912921,9.22
1629807912937,10.07
1629807912953,10.59
1629807912968,10.65
1629807912984,10.35
1629807913000,9.91
1629807913015,9.57
1629807913031,9.44
1629807913046,9.44
1629807913062,9.39
1629807913078,9.06
1629807913093,8.35
1629807913109,7.34
1629807913125,6.22
1629807913140,5.28
1629807913156,4.74
1629807913171,4.69
1629807913187,5.1
1629807913203,5.75
1629807913218,6.39
1629807913234,6.81
1629807913250,6.93
1629807913265,6.74
1629807913281,6.34
1629807913296,5.84
1629807913312,5.31
1629807913328,4.75
1629807913343,4.12
1629807913359,3.39
1629807913375,2.53
1629807913390,1.58
1629807913406,0.56
1629807913421,-0.43
1629807913437,-1.39
1629807913453,-2.27
1629807913468,-3.17
1629807913484,-4.16
1629807913500,-5.31
1629807913515,-6.6
1629807913531,-7.97
1629807913546,-9.35
1629807913562,-10.65
1629807913578,-11.83
1629807913593,-12.92
1629807913609,-13.88
1629807913625,-14.65
1629807913640,-15.16
1629807913656,-15.41
1629807913671,-15.51
1629807913687,-15.68
1629807913703,-16.1
1629807913718,-16.84
1629807913734,-17.76
1629807913750,-18.56
1629807913765,-18.86
1629807913781,-18.35
1629807913796,-16.96
1629807913812,-14.84
1629807913828,-12.35
1629807913843,-9.92
1629807913859,-7.79
1629807913875,-6.03
1629807913890,-4.5
1629807913906,-2.9
1629807913921,-1.04
1629807913937,1.13
1629807913953,3.46
1629807913968,5.68
1629807913984,7.5
1629807914000,8.84
1629807914015,9.68
1629807914031,10.11
1629807914046,10.22
1629807914062,10.06
1629807914078,9.7
1629807914093,9.22
1629807914109,8.8
1629807914125,8.56
1629807914140,8.65
1629807914156,9.06
1629807914171,9.66
1629807914187,10.34
1629807914203,10.89
1629807914218,11.15
1629807914234,11.0
1629807914250,10.38
1629807914265,9.38
1629807914281,8.2
1629807914296,7.05
1629807914312,6.12
1629807914328,5.51
1629807914343,5.04
1629807914359,4.51
1629807914375,3.73
1629807914390,2.61
1629807914406,1.25
1629807914421,-0.2
1629807914437,-1.57
1629807914453,-2.77
1629807914468,-3.83
1629807914484,-4.86
1629807914500,-5.94
1629807914515,-7.08
1629807914531,-8.24
1629807914546,-9.34
1629807914562,-10.3
1629807914578,-10.98
1629807914593,-11.4
1629807914609,-11.61
1629807914625,-11.79
1629807914640,-12.09
1629807914656,-12.55
1629807914671,-13.09
1629807914687,-13.5
1629807914703,-13.49
1629807914718,-12.74
1629807914734,-11.13
1629807914750,-8.72
1629807914765,-5.86
1629807914781,-2.9
1629807914796,-0.21
1629807914812,1.98
1629807914828,3.63
1629807914843,4.85
1629807914859,5.79
1629807914875,6.56
1629807914890,7.22
1629807914906,7.7
1629807914921,7.9
1629807914937,7.76
1629807914953,7.35
1629807914968,6.84
1629807914984,6.45
1629807915000,6.38
1629807915015,6.7
1629807915031,7.34
1629807915046,8.13
1629807915062,8.81
1629807915078,9.16
1629807915093,9.13
1629807915109,8.8
1629807915125,8.33
1629807915140,7.86
1629807915156,7.43
1629807915171,6.98
1629807915187,6.4
1629807915203,5.57
1629807915218,4.41
1629807915234,2.92
1629807915250,1.2
1629807915265,-0.57
1629807915281,-2.17
1629807915296,-3.32
1629807915312,-3.85
1629807915328,-3.71
1629807915343,-3.09
1629807915359,-2.29
1629807915375,-1.68
1629807915390,-1.49
1629807915406,-1.8
1629807915421,-2.52
1629807915437,-3.55
1629807915453,-4.72
1629807915468,-5.93
1629807915484,-7.09
1629807915500,-8.15
1629807915515,-9.14
1629807915531,-10.13
1629807915546,-11.22
1629807915562,-12.42
1629807915578,-13.62
1629807915593,-14.48
1629807915609,-14.57
1629807915625,-13.56
1629807915640,-11.34
1629807915656,-8.2
1629807915671,-4.63
1629807915687,-1.25
1629807915703,1.54
1629807915718,3.53
1629807915734,4.79
1629807915750,5.56
1629807915765,6.14
1629807915781,6.74
1629807915796,7.42
1629807915812,8.12
1629807915828,8.65
1629807915843,8.86
1629807915859,8.66
1629807915875,8.11
1629807915890,7.39
1629807915906,6.68
1629807915921,6.13
1629807915937,5.74
1629807915953,5.46
1629807915968,5.27
1629807915984,5.18
1629807916000,5.22
1629807916015,5.41
1629807916031,5.7
1629807916046,5.97
1629807916062,6.09
1629807916078,5.97
1629807916093,5.56
1629807916109,4.89
1629807916125,3.99
1629807916140,2.94
1629807916156,1.8
1629807916171,0.61
1629807916187,-0.57
1629807916203,-1.7
1629807916218,-2.75
1629807916234,-3.71
1629807916250,-4.53
1629807916265,-5.17
1629807916281,-5.66
1629807916296,-6.03
1629807916312,-6.33
1629807916328,-6.6
1629807916343,-6.87
1629807916359,-7.17
1629807916375,-7.56
1629807916390,-8.08
1629807916406,-8.7
1629807916421,-9.29
1629807916437,-9.55
1629807916453,-9.15
1629807916468,-7.97
1629807916484,-6.14
1629807916500,-4.05
1629807916515,-2.12
1629807916531,-0.62
1629807916546,0.51
1629807916562,1.5
1629807916578,2.67
1629807916593,4.13
1629807916609,5.77
1629807916625,7.28
1629807916640,8.38
1629807916656,8.9
1629807916671,8.91
1629807916687,8.67
1629807916703,8.45
1629807916718,8.47
1629807916734,8.73
1629807916750,9.11
1629807916765,9.35
1629807916781,9.22
1629807916796,8.65
1629807916812,7.73
1629807916828,6.66
1629807916843,5.64
1629807916859,4.73
1629807916875,3.82
1629807916890,2.87
1629807916906,1.86
1629807916921,0.94
1629807916937,0.31
1629807916953,0.09
1629807916968,0.17
1629807916984,0.23
1629807917000,-0.1
1629807917015,-1.09
1629807917031,-2.7
1629807917046,-4.65
1629807917062,-6.55
1629807917078,-8.07
1629807917093,-9.07
1629807917109,-9.66
1629807917125,-10.03
1629807917140,-10.36
1629807917156,-10.74
1629807917171,-11.15
1629807917187,-11.54
1629807917203,-11.89
1629807917218,-12.21
1629807917234,-12.56
1629807917250,-12.86
1629807917265,-12.93
1629807917281,-12.45
1629807917296,-11.15
1629807917312,-8.93
1629807917328,-5.97
1629807917343,-2.7
1629807917359,0.39
1629807917375,2.89
1629807917390,4.7
1629807917406,5.91
1629807917421,6.79
1629807917437,7.59
1629807917453,8.43
1629807917468,9.23
1629807917484,9.9
1629807917500,10.31
1629807917515,10.4
1629807917531,10.23
1629807917546,9.93
1629807917562,9.64
1629807917578,9.47
1629807917593,9.48
1629807917609,9.61
1629807917625,9.81
1629807917640,10.06
1629807917656,10.34
1629807917671,10.75
1629807917687,11.35
1629807917703,12.13
1629807917718,12.87
1629807917734,13.31
1629807917750,13.13
1629807917765,12.22
1629807917781,10.7
1629807917796,8.85
1629807917812,7.04
1629807917828,5.57
1629807917843,4.54
1629807917859,3.86
1629807917875,3.28
1629807917890,2.57
1629807917906,1.6
1629807917921,0.36
1629807917937,-1.02
1629807917953,-2.38
1629807917968,-3.67
1629807917984,-4.95
1629807918000,-6.27
1629807918015,-7.76
1629807918031,-9.35
1629807918046,-10.9
1629807918062,-12.22
1629807918078,-13.24
1629807918093,-13.89
1629807918109,-14.29
1629807918125,-14.57
1629807918140,-14.76
1629807918156,-14.92
1629807918171,-15.03
1629807918187,-15.03
1629807918203,-14.81
1629807918218,-14.26
1629807918234,-13.16
1629807918250,-11.42
1629807918265,-9.01
1629807918281,-5.99
1629807918296,-2.58
1629807918312,0.98
1629807918328,4.41
1629807918343,7.45
1629807918359,9.91
1629807918375,11.72
1629807918390,12.93
1629807918406,13.75
1629807918421,14.36
1629807918437,14.91
1629807918453,15.4
1629807918468,15.67
1629807918484,15.52
1629807918500,14.85
1629807918515,13.77
1629807918531,12.61
1629807918546,11.72
1629807918562,11.28
1629807918578,11.21
1629807918593,11.31
1629807918609,11.29
1629807918625,10.99
1629807918640,10.45
1629807918656,9.81
1629807918671,9.24
1629807918687,8.79
1629807918703,8.42
1629807918718,7.97
1629807918734,7.4
1629807918750,6.71
1629807918765,6.06
1629807918781,5.62
1629807918796,5.53
1629807918812,5.66
1629807918828,5.79
1629807918843,5.62
1629807918859,4.95
1629807918875,3.8
1629807918890,2.39
1629807918906,1.1
1629807918921,0.26
1629807918937,-0.08
1629807918953,-0.14
1629807918968,-0.28
1629807918984,-0.81
1629807919000,-1.82
1629807919015,-3.13
1629807919031,-4.41
1629807919046,-5.36
1629807919062,-5.88
1629807919078,-6.06
1629807919093,-6.12
1629807919109,-6.24
1629807919125,-6.48
1629807919140,-6.81
1629807919156,-7.21
1629807919171,-7.67
1629807919187,-8.23
1629807919203,-8.94
1629807919218,-9.77
1629807919234,-10.6
1629807919250,-11.3
1629807919265,-11.82
1629807919281,-12.19
1629807919296,-12.46
1629807919312,-12.62
1629807919328,-12.54
1629807919343,-12.04
1629807919359,-10.95
1629807919375,-9.23
1629807919390,-7.06
1629807919406,-4.77
1629807919421,-2.63
1629807919437,-0.81
1629807919453,0.65
1629807919468,1.86
1629807919484,2.91
1629807919500,3.82
1629807919515,4.58
1629807919531,5.17
1629807919546,5.61
1629807919562,5.98
1629807919578,6.29
1629807919593,6.5
1629807919609,6.52
1629807919625,6.31
1629807919640,5.94
1629807919656,5.6
1629807919671,5.5
1629807919687,5.79
1629807919703,6.5
1629807919718,7.44
1629807919734,8.38
1629807919750,9.13
1629807919765,9.55
1629807919781,9.62
1629807919796,9.35
1629807919812,8.75
1629807919828,7.91
1629807919843,6.89
1629807919859,5.75
1629807919875,4.58
1629807919890,3.46
1629807919906,2.42
1629807919921,1.53
1629807919937,0.8
1629807919953,0.22
1629807919968,-0.3
1629807919984,-0.87
1629807920000,-1.65
1629807920015,-2.79
1629807920031,-4.23
1629807920046,-5.86
1629807920062,-7.37
1629807920078,-8.55
1629807920093,-9.3
1629807920109,-9.75
1629807920125,-10.1
1629807920140,-10.56
1629807920156,-11.26
1629807920171,-12.07
1629807920187,-12.83
1629807920203,-13.33
1629807920218,-13.53
1629807920234,-13.56
1629807920250,-13.67
1629807920265,-14.1
1629807920281,-14.95
1629807920296,-16.15
1629807920312,-17.46
1629807920328,-18.61
1629807920343,-19.39
1629807920359,-19.72
1629807920375,-19.74
1629807920390,-19.56
1629807920406,-19.26
1629807920421,-18.72
1629807920437,-17.7
1629807920453,-15.94
1629807920468,-13.36
1629807920484,-10.13
1629807920500,-6.67
1629807920515,-3.5
1629807920531,-0.95
1629807920546,0.84
1629807920562,2.05
1629807920578,3.0
1629807920593,3.97
1629807920609,5.03
1629807920625,6.08
1629807920640,6.91
1629807920656,7.29
1629807920671,7.13
1629807920687,6.41
1629807920703,5.29
1629807920718,3.98
1629807920734,2.73
1629807920750,1.72
1629807920765,1.04
1629807920781,0.71
1629807920796,0.68
1629807920812,0.88
1629807920828,1.31
1629807920843,1.98
1629807920859,2.88
1629807920875,3.89
1629807920890,4.75
1629807920906,5.25
1629807920921,5.26
1629807920937,4.82
1629807920953,4.13
1629807920968,3.37
1629807920984,2.61
1629807921000,1.81
1629807921015,0.88
1629807921031,-0.18
1629807921046,-1.18
1629807921062,-1.92
1629807921078,-2.25
1629807921093,-2.18
1629807921109,-1.92
1629807921125,-1.66
1629807921140,-1.47
1629807921156,-1.26
1629807921171,-0.82
1629807921187,-0.03
1629807921203,1.0
1629807921218,1.91
1629807921234,2.3
1629807921250,1.89
1629807921265,0.64
1629807921281,-1.16
1629807921296,-3.14
1629807921312,-4.94
1629807921328,-6.37
1629807921343,-7.37
1629807921359,-8.08
1629807921375,-8.64
1629807921390,-9.16
1629807921406,-9.71
1629807921421,-10.25
1629807921437,-10.76
1629807921453,-11.09
1629807921468,-11.14
1629807921484,-10.81
1629807921500,-10.12
1629807921515,-9.12
1629807921531,-7.94
1629807921546,-6.68
1629807921562,-5.35
1629807921578,-3.98
1629807921593,-2.58
1629807921609,-1.25
1629807921625,-0.14
1629807921640,0.6
1629807921656,0.91
1629807921671,0.87
1629807921687,0.63
1629807921703,0.35
1629807921718,0.11
1629807921734,-0.15
1629807921750,-0.49
1629807921765,-0.91
1629807921781,-1.29
1629807921796,-1.36
1629807921812,-0.89
1629807921828,0.18
1629807921843,1.71
1629807921859,3.32
1629807921875,4.65
1629807921890,5.43
1629807921906,5.61
1629807921921,5.37
1629807921937,4.95
1629807921953,4.61
1629807921968,4.45
1629807921984,4.48
1629807922000,4.63
1629807922015,4.85
1629807922031,5.08
1629807922046,5.21
1629807922062,5.12
1629807922078,4.69
1629807922093,3.9
1629807922109,2.81
1629807922125,1.6
1629807922140,0.5
1629807922156,-0.32
1629807922171,-0.73
1629807922187,-0.78
1629807922203,-0.57
1629807922218,-0.31
1629807922234,-0.27
1629807922250,-0.7
1629807922265,-1.75
1629807922281,-3.46
1629807922296,-5.63
1629807922312,-7.89
1629807922328,-9.99
1629807922343,-11.78
1629807922359,-13.51
1629807922375,-15.53
1629807922390,-18.17
1629807922406,-21.36
1629807922421,-24.62
1629807922437,-27.2
1629807922453,-28.41
1629807922468,-28.23
1629807922484,-27.28
1629807922500,-26.75
1629807922515,-27.71
1629807922531,-30.63
1629807922546,-34.98
1629807922562,-39.54
1629807922578,-42.82
1629807922593,-43.47
1629807922609,-40.54
1629807922625,-33.43
1629807922640,-21.82
1629807922656,-5.71
1629807922671,14.12
1629807922687,35.92
1629807922703,56.94
1629807922718,73.99
1629807922734,84.48
1629807922750,87.29
1629807922765,83.11
1629807922781,74.16
1629807922796,63.18
1629807922812,52.51
1629807922828,43.55
1629807922843,36.75
1629807922859,31.82
1629807922875,28.3
1629807922890,25.73
1629807922906,23.77
1629807922921,22.16
1629807922937,20.63
1629807922953,18.84
1629807922968,16.52
1629807922984,13.61
1629807923000,10.25
1629807923015,6.89
1629807923031,4.04
1629807923046,2.12
1629807923062,1.29
1629807923078,1.31
1629807923093,1.65
1629807923109,1.77
1629807923125,1.3
1629807923140,0.18
1629807923156,-1.25
1629807923171,-2.64
1629807923187,-3.73
1629807923203,-4.55
1629807923218,-5.42
1629807923234,-6.76
1629807923250,-8.84
1629807923265,-11.64
1629807923281,-14.77
1629807923296,-17.46
1629807923312,-19.05
1629807923328,-19.07
1629807923343,-17.48
1629807923359,-14.74
1629807923375,-11.53
1629807923390,-8.44
1629807923406,-5.83
1629807923421,-3.75
1629807923437,-1.96
1629807923453,-0.3
1629807923468,1.3
1629807923484,2.8
1629807923500,4.12
1629807923515,5.19
1629807923531,6.03
1629807923546,6.6
1629807923562,6.88
1629807923578,6.82
1629807923593,6.39
1629807923609,5.65
1629807923625,4.82
1629807923640,4.12
1629807923656,3.72
1629807923671,3.65
1629807923687,3.9
1629807923703,4.43
1629807923718,5.24
1629807923734,6.3
1629807923750,7.5
1629807923765,8.6
1629807923781,9.3
1629807923796,9.34
1629807923812,8.66
1629807923828,7.44
1629807923843,5.98
1629807923859,4.55
1629807923875,3.19
1629807923890,1.8
1629807923906,0.15
1629807923921,-1.82
1629807923937,-4.02
1629807923953,-6.18
1629807923968,-8.05
1629807923984,-9.54
1629807924000,-10.74
1629807924015,-11.8
1629807924031,-12.79
1629807924046,-13.68
1629807924062,-14.35
1629807924078,-14.69
1629807924093,-14.7
1629807924109,-14.51
1629807924125,-14.19
1629807924140,-13.7
1629807924156,-12.82
1629807924171,-11.31
1629807924187,-9.01
1629807924203,-6.0
1629807924218,-2.62
1629807924234,0.72
1629807924250,3.55
1629807924265,5.62
1629807924281,6.9
1629807924296,7.61
1629807924312,8.01
1629807924328,8.44
1629807924343,9.04
1629807924359,9.8
1629807924375,10.52
1629807924390,10.94
1629807924406,10.9
1629807924421,10.4
1629807924437,9.65
1629807924453,8.94
1629807924468,8.51
1629807924484,8.41
1629807924500,8.59
1629807924515,8.91
1629807924531,9.28
1629807924546,9.66
1629807924562,10.08
1629807924578,10.49
1629807924593,10.8
1629807924609,10.88
1629807924625,10.58
1629807924640,9.87
1629807924656,8.76
1629807924671,7.35
1629807924687,5.74
1629807924703,3.99
1629807924718,2.11
1629807924734,0.17
1629807924750,-1.71
1629807924765,-3.41
1629807924781,-4.79
1629807924796,-5.81
1629807924812,-6.53
1629807924828,-7.01
1629807924843,-7.29
1629807924859,-7.3
1629807924875,-6.87
1629807924890,-5.88
1629807924906,-4.37
1629807924921,-2.58
1629807924937,-0.8
1629807924953,0.81
1629807924968,2.47
1629807924984,4.7
1629807925000,8.1
1629807925015,13.0
1629807925031,19.24
1629807925046,26.04
1629807925062,32.41
1629807925078,37.48
1629807925093,40.89
1629807925109,42.95
1629807925125,44.39
1629807925140,46.0
1629807925156,48.33
1629807925171,51.32
1629807925187,54.36
1629807925203,56.44
1629807925218,56.5
1629807925234,53.72
1629807925250,47.82
1629807925265,39.11
1629807925281,28.63
1629807925296,18.02
1629807925312,9.27
1629807925328,4.19
1629807925343,3.69
1629807925359,7.11
1629807925375,11.85
1629807925390,14.03
1629807925406,9.75
1629807925421,-3.21
1629807925437,-24.19
1629807925453,-49.6
1629807925468,-74.32
1629807925484,-93.7
1629807925500,-105.24
1629807925515,-108.99
1629807925531,-106.76
1629807925546,-100.68
1629807925562,-92.13
1629807925578,-81.85
1629807925593,-70.69
1629807925609,-60.06
1629807925625,-51.9
1629807925640,-47.67
1629807925656,-47.37
1629807925671,-49.55
1629807925687,-52.44
1629807925703,-55.26
1629807925718,-58.91
1629807925734,-65.39
1629807925750,-76.05
1629807925765,-90.33
1629807925781,-105.44
1629807925796,-117.55
1629807925812,-123.53
1629807925828,-122.39
1629807925843,-115.21
1629807925859,-104.03
1629807925875,-90.52
1629807925890,-75.21
1629807925906,-57.82
1629807925921,-38.16
1629807925937,-17.0
1629807925953,3.82
1629807925968,21.94
1629807925984,35.65
1629807926000,44.65
1629807926015,50.22
1629807926031,54.61
1629807926046,59.87
1629807926062,66.83
1629807926078,74.62
1629807926093,81.21
1629807926109,84.33
1629807926125,82.59
1629807926140,75.79
1629807926156,64.75
1629807926171,50.85
1629807926187,35.51
1629807926203,20.07
1629807926218,5.93
1629807926234,-5.51
1629807926250,-13.1
1629807926265,-16.32
1629807926281,-15.59
1629807926296,-12.01
1629807926312,-6.74
1629807926328,-0.59
1629807926343,6.14
1629807926359,13.39
1629807926375,20.84
1629807926390,27.81
1629807926406,33.52
1629807926421,37.53
1629807926437,39.97
1629807926453,41.43
1629807926468,42.44
1629807926484,43.06
1629807926500,42.99
1629807926515,41.95
1629807926531,40.24
1629807926546,38.84
1629807926562,39.0
1629807926578,41.42
1629807926593,45.69
1629807926609,50.14
1629807926625,52.54
1629807926640,51.11
1629807926656,45.31
1629807926671,36.07
1629807926687,25.19
1629807926703,14.5
1629807926718,5.07
1629807926734,-2.9
1629807926750,-9.91
1629807926765,-16.47
1629807926781,-22.68
1629807926796,-28.12
1629807926812,-32.09
1629807926828,-34.05
1629807926843,-33.91
1629807926859,-32.14
1629807926875,-29.52
1629807926890,-26.87
1629807926906,-24.67
1629807926921,-23.0
1629807926937,-21.64
1629807926953,-20.32
1629807926968,-18.9
1629807926984,-17.52
1629807927000,-16.49
1629807927015,-16.14
1629807927031,-16.63
1629807927046,-17.96
1629807927062,-20.01
1629807927078,-22.61
1629807927093,-25.54
1629807927109,-28.55
1629807927125,-31.28
1629807927140,-33.41
1629807927156,-34.74
1629807927171,-35.35
1629807927187,-35.49
1629807927203,-35.46
1629807927218,-35.41
1629807927234,-35.15
1629807927250,-34.24
1629807927265,-32.17
1629807927281,-28.46
1629807927296,-22.84
1629807927312,-15.23
1629807927328,-5.93
1629807927343,4.43
1629807927359,14.75
1629807927375,23.59
1629807927390,29.51
1629807927406,31.6
1629807927421,29.86
1629807927437,25.15
1629807927453,19.0
1629807927468,12.85
1629807927484,7.67
1629807927500,3.82
1629807927515,1.31
1629807927531,0.12
1629807927546,0.5
1629807927562,2.81
1629807927578,7.18
1629807927593,13.29
1629807927609,20.4
1629807927625,27.57
1629807927640,34.05
1629807927656,39.42
1629807927671,43.62
1629807927687,46.62
1629807927703,48.42
1629807927718,48.94
1629807927734,48.15
1629807927750,46.16
1629807927765,43.22
1629807927781,39.74
1629807927796,36.08
1629807927812,32.59
1629807927828,29.43
1629807927843,26.61
1629807927859,24.0
1629807927875,21.44
1629807927890,18.81
1629807927906,16.11
1629807927921,13.51
1629807927937,11.18
1629807927953,9.22
1629807927968,7.51
1629807927984,5.88
1629807928000,4.32
1629807928015,3.15
1629807928031,3.13
1629807928046,5.04
1629807928062,9.35
1629807928078,15.71
1629807928093,22.89
1629807928109,29.11
1629807928125,32.76
1629807928140,33.07
1629807928156,30.39
1629807928171,26.05
1629807928187,21.68
1629807928203,18.51
1629807928218,16.91
1629807928234,16.36
1629807928250,15.92
1629807928265,14.84
1629807928281,13.0
1629807928296,11.11
1629807928312,10.37
1629807928328,11.95
1629807928343,16.42
1629807928359,23.58
1629807928375,32.48
1629807928390,41.83
1629807928406,50.32
1629807928421,56.94
1629807928437,61.11
1629807928453,62.83
1629807928468,62.61
1629807928484,61.41
1629807928500,60.48
1629807928515,61.04
1629807928531,63.98
1629807928546,69.56
1629807928562,77.41
1629807928578,86.7
1629807928593,96.52
1629807928609,106.11
1629807928625,115.06
1629807928640,123.22
1629807928656,130.5
1629807928671,136.76
1629807928687,141.67
1629807928703,144.72
1629807928718,145.36
1629807928734,143.08
1629807928750,137.45
1629807928765,128.33
1629807928781,115.83
1629807928796,100.47
1629807928812,83.34
1629807928828,66.05
1629807928843,50.5
1629807928859,38.28
1629807928875,29.94
1629807928890,24.71
1629807928906,20.82
1629807928921,16.29
1629807928937,9.91
1629807928953,1.9
1629807928968,-6.29
1629807928984,-12.91
1629807929000,-17.14
1629807929015,-19.85
1629807929031,-23.6
1629807929046,-31.63
1629807929062,-46.54
1629807929078,-69.11
1629807929093,-98.03
1629807929109,-130.34
1629807929125,-162.54
1629807929140,-191.65
1629807929156,-216.02
1629807929171,-235.48
1629807929187,-251.17
1629807929203,-265.07
1629807929218,-279.73
1629807929234,-298.05
1629807929250,-322.77
1629807929265,-355.22
1629807929281,-393.86
1629807929296,-433.47
1629807929312,-465.59
1629807929328,-481.02
1629807929343,-473.17
1629807929359,-440.98
1629807929375,-389.77
1629807929390,-329.37
1629807929406,-270.29
1629807929421,-219.76
1629807929437,-179.85
1629807929453,-148.1
1629807929468,-119.94
1629807929484,-91.49
1629807929500,-60.98
1629807929515,-28.57
1629807929531,4.64
1629807929546,37.44
1629807929562,68.57
1629807929578,96.28
1629807929593,118.21
1629807929609,132.05
1629807929625,136.58
1629807929640,132.77
1629807929656,123.83
1629807929671,114.13
1629807929687,107.7
1629807929703,106.7
1629807929718,111.21
1629807929734,119.56
1629807929750,129.26
1629807929765,137.86
1629807929781,143.43
1629807929796,144.82
1629807929812,141.85
1629807929828,135.32
1629807929843,126.85
1629807929859,118.27
1629807929875,110.97
1629807929890,105.35
1629807929906,100.74
1629807929921,95.96
1629807929937,90.16
1629807929953,83.36
1629807929968,76.58
1629807929984,71.37
1629807930000,68.98
1629807930015,69.8
1629807930031,73.03
1629807930046,77.09
1629807930062,79.97
1629807930078,79.62
1629807930093,74.36
1629807930109,63.27
1629807930125,46.56
1629807930140,25.68
1629807930156,3.04
1629807930171,-18.88
1629807930187,-38.39
1629807930203,-55.06
1629807930218,-69.46
1629807930234,-82.09
1629807930250,-92.57
1629807930265,-99.36
1629807930281,-100.54
1629807930296,-95.08
1629807930312,-83.89
1629807930328,-69.92
1629807930343,-56.97
1629807930359,-48.19
1629807930375,-44.58
1629807930390,-44.75
1629807930406,-45.63
1629807930421,-43.79
1629807930437,-36.95
1629807930453,-24.88
1629807930468,-9.5
1629807930484,5.99
1629807930500,18.5
1629807930515,26.38
1629807930531,29.88
1629807930546,30.73
1629807930562,31.0
1629807930578,31.85
1629807930593,33.03
1629807930609,33.4
1629807930625,32.0
1629807930640,28.95
1629807930656,25.52
1629807930671,23.56
1629807930687,24.41
1629807930703,28.43
1629807930718,35.12
1629807930734,43.67
1629807930750,53.52
1629807930765,64.34
1629807930781,75.69
1629807930796,86.53
1629807930812,95.35
1629807930828,100.48
1629807930843,100.83
1629807930859,96.44
1629807930875,88.5
1629807930890,78.92
1629807930906,69.64
1629807930921,62.07
1629807930937,56.64
1629807930953,52.97
1629807930968,50.17
1629807930984,47.33
1629807931000,43.87
1629807931015,39.86
1629807931031,35.82
1629807931046,32.56
1629807931062,30.85
1629807931078,31.05
1629807931093,33.25
1629807931109,37.15
1629807931125,42.33
1629807931140,48.18
1629807931156,54.03
1629807931171,59.18
1629807931187,62.89
1629807931203,64.66
1629807931218,64.24
1629807931234,61.86
1629807931250,57.95
1629807931265,53.06
1629807931281,47.49
1629807931296,41.21
1629807931312,33.85
1629807931328,25.04
1629807931343,14.75
1629807931359,3.47
1629807931375,-7.64
1629807931390,-17.24
1629807931406,-24.2
1629807931421,-28.02
1629807931437,-28.99
1629807931453,-28.14
1629807931468,-26.81
1629807931484,-26.25
1629807931500,-27.27
1629807931515,-30.03
1629807931531,-34.19
1629807931546,-39.18
1629807931562,-44.45
1629807931578,-49.8
1629807931593,-55.37
1629807931609,-61.55
1629807931625,-68.42
1629807931640,-75.65
1629807931656,-82.28
1629807931671,-87.07
1629807931687,-88.89
1629807931703,-87.09
1629807931718,-81.67
1629807931734,-73.06
1629807931750,-61.96
1629807931765,-49.11
1629807931781,-35.41
1629807931796,-21.76
1629807931812,-9.22
1629807931828,1.3
1629807931843,9.3
1629807931859,14.76
1629807931875,18.06
1629807931890,19.75
1629807931906,20.22
1629807931921,19.51
1629807931937,17.45
1629807931953,13.74
1629807931968,8.25
1629807931984,1.09
1629807932000,-7.4
1629807932015,-16.92
1629807932031,-27.49
1629807932046,-39.66
1629807932062,-54.33
1629807932078,-71.95
1629807932093,-91.8
1629807932109,-111.74
1629807932125,-128.45
1629807932140,-138.71
1629807932156,-140.65
1629807932171,-134.61
1629807932187,-122.92
1629807932203,-108.9
1629807932218,-95.35
1629807932234,-83.54
1629807932250,-73.05
1629807932265,-62.4
1629807932281,-50.28
1629807932296,-36.44
1629807932312,-22.04
1629807932328,-9.21
1629807932343,0.14
1629807932359,5.29
1629807932375,7.13
1629807932390,7.64
1629807932406,8.73
1629807932421,11.16
1629807932437,14.34
1629807932453,17.13
1629807932468,19.14
1629807932484,21.51
1629807932500,26.44
1629807932515,35.74
1629807932531,49.35
1629807932546,64.95
1629807932562,78.98
1629807932578,88.54
1629807932593,93.09
1629807932609,94.34
1629807932625,95.06
1629807932640,97.18
1629807932656,100.46
1629807932671,102.71
1629807932687,101.24
1629807932703,94.64
1629807932718,83.79
1629807932734,71.59
1629807932750,61.43
1629807932765,55.65
1629807932781,54.46
1629807932796,56.27
1629807932812,58.69
1629807932828,59.86
1629807932843,59.19
1629807932859,57.16
1629807932875,54.59
1629807932890,51.89
1629807932906,48.72
1629807932921,44.33
1629807932937,38.2
1629807932953,30.51
1629807932968,22.19
1629807932984,14.51
1629807933000,8.49
1629807933015,4.46
1629807933031,1.94
1629807933046,-0.03
1629807933062,-2.43
1629807933078,-5.76
1629807933093,-9.77
1629807933109,-13.61
1629807933125,-16.2
1629807933140,-16.93
1629807933156,-15.88
1629807933171,-13.89
1629807933187,-12.06
1629807933203,-11.19
1629807933218,-11.5
1629807933234,-12.62
1629807933250,-13.83
1629807933265,-14.42
1629807933281,-13.9
1629807933296,-11.96
1629807933312,-8.51
1629807933328,-3.78
1629807933343,1.7
1629807933359,7.08
1629807933375,11.52
1629807933390,14.71
1629807933406,17.03
1629807933421,19.58
1629807933437,23.59
1629807933453,29.77
1629807933468,37.82
1629807933484,46.58
1629807933500,54.46
1629807933515,60.07
1629807933531,62.77
1629807933546,62.73
1629807933562,60.77
1629807933578,58.04
1629807933593,55.68
1629807933609,54.47
1629807933625,54.84
1629807933640,56.69
1629807933656,59.63
1629807933671,63.07
1629807933687,66.49
1629807933703,69.71
1629807933718,72.88
1629807933734,76.43
1629807933750,80.7
1629807933765,85.62
1629807933781,90.37
1629807933796,93.39
1629807933812,92.57
1629807933828,85.69
1629807933843,71.23
1629807933859,48.83
1629807933875,19.72
1629807933890,-13.41
1629807933906,-46.91
1629807933921,-77.08
1629807933937,-100.9
1629807933953,-116.64
1629807933968,-124.15
1629807933984,-124.59
1629807934000,-120.04
1629807934015,-112.75
1629807934031,-104.68
1629807934046,-97.06
1629807934062,-90.42
1629807934078,-84.75
1629807934093,-79.7
1629807934109,-74.93
1629807934125,-70.05
1629807934140,-64.88
1629807934156,-59.33
1629807934171,-53.57
1629807934187,-48.03
1629807934203,-43.32
1629807934218,-40.06
1629807934234,-38.57
1629807934250,-38.74
1629807934265,-39.89
1629807934281,-41.14
1629807934296,-41.57
1629807934312,-40.55
1629807934328,-37.93
1629807934343,-33.97
1629807934359,-29.2
1629807934375,-24.32
1629807934390,-20.01
1629807934406,-16.71
1629807934421,-14.59
1629807934437,-13.56
1629807934453,-13.23
1629807934468,-13.23
1629807934484,-13.24
1629807934500,-13.19
1629807934515,-13.19
1629807934531,-13.36
1629807934546,-13.64
1629807934562,-13.79
1629807934578,-13.43
1629807934593,-12.26
1629807934609,-10.29
1629807934625,-7.77
1629807934640,-5.24
1629807934656,-3.2
1629807934671,-1.89
1629807934687,-1.29
1629807934703,-1.15
1629807934718,-1.19
1629807934734,-1.2
1629807934750,-1.18
1629807934765,-1.17
1629807934781,-1.27
1629807934796,-1.59
1629807934812,-2.21
1629807934828,-3.21
1629807934843,-4.61
1629807934859,-6.28
1629807934875,-7.93
1629807934890,-9.24
1629807934906,-9.93
1629807934921,-9.89
1629807934937,-9.25
1629807934953,-8.22
1629807934968,-7.06
1629807934984,-5.89
1629807935000,-4.73
1629807935015,-3.55
1629807935031,-2.36
1629807935046,-1.21
1629807935062,-0.17
1629807935078,0.71
1629807935093,1.45
1629807935109,2.01
1629807935125,2.37
1629807935140,2.42
1629807935156,2.01
1629807935171,1.15
1629807935187,-0.03
1629807935203,-1.27
1629807935218,-2.36
1629807935234,-3.16
1629807935250,-3.78
1629807935265,-4.44
1629807935281,-5.31
1629807935296,-6.45
1629807935312,-7.64
1629807935328,-8.56
1629807935343,-8.91
1629807935359,-8.62
1629807935375,-7.77
1629807935390,-6.6
1629807935406,-5.34
1629807935421,-4.12
1629807935437,-3.01
1629807935453,-2.02
1629807935468,-1.26
1629807935484,-0.8
1629807935500,-0.75
1629807935515,-1.13
1629807935531,-1.83
1629807935546,-2.65
1629807935562,-3.4
1629807935578,-3.92
1629807935593,-4.13
1629807935609,-4.09
1629807935625,-3.9
1629807935640,-3.67
1629807935656,-3.57
1629807935671,-3.68
1629807935687,-3.98
1629807935703,-4.39
1629807935718,-4.76
1629807935734,-4.99
1629807935750,-5.08
1629807935765,-5.16
1629807935781,-5.36
1629807935796,-5.83
1629807935812,-6.65
1629807935828,-7.74
1629807935843,-9.0
1629807935859,-10.26
1629807935875,-11.32
1629807935890,-12.07
1629807935906,-12.43
1629807935921,-12.43
1629807935937,-12.23
1629807935953,-12.02
1629807935968,-11.92
1629807935984,-11.95
1629807936000,-11.98
1629807936015,-11.89
1629807936031,-11.66
1629807936046,-11.33
1629807936062,-11.1
1629807936078,-11.16
1629807936093,-11.65
1629807936109,-12.56
1629807936125,-13.87
1629807936140,-15.45
1629807936156,-17.23
1629807936171,-19.2
1629807936187,-21.29
1629807936203,-23.44
1629807936218,-25.52
1629807936234,-27.44
1629807936250,-29.1
1629807936265,-30.5
1629807936281,-31.75
1629807936296,-32.96
1629807936312,-34.16
1629807936328,-35.1
1629807936343,-35.17
1629807936359,-33.51
1629807936375,-29.41
1629807936390,-22.56
1629807936406,-13.28
1629807936421,-2.28
1629807936437,9.61
1629807936453,21.73
1629807936468,33.73
1629807936484,45.29
1629807936500,55.98
1629807936515,65.11
1629807936531,71.94
1629807936546,75.96
1629807936562,77.29
1629807936578,76.58
1629807936593,74.67
1629807936609,72.32
1629807936625,69.78
1629807936640,66.86
1629807936656,63.23
1629807936671,58.64
1629807936687,53.16
1629807936703,47.21
1629807936718,41.35
1629807936734,35.99
1629807936750,31.34
1629807936765,27.21
1629807936781,23.22
1629807936796,19.04
1629807936812,14.56
1629807936828,9.98
1629807936843,5.76
1629807936859,2.34
1629807936875,-0.1
1629807936890,-1.7
1629807936906,-2.87
1629807936921,-3.98
1629807936937,-5.15
1629807936953,-6.28
1629807936968,-7.11
1629807936984,-7.44
1629807937000,-7.28
1629807937015,-6.76
1629807937031,-6.06
1629807937046,-5.26
1629807937062,-4.31
1629807937078,-3.12
1629807937093,-1.72
1629807937109,-0.31
1629807937125,0.82
1629807937140,1.4
1629807937156,1.38
1629807937171,0.9
1629807937187,0.25
1629807937203,-0.24
1629807937218,-0.37
1629807937234,-0.11
1629807937250,0.34
1629807937265,0.74
1629807937281,0.85
1629807937296,0.56
1629807937312,-0.03
1629807937328,-0.71
1629807937343,-1.27
1629807937359,-1.57
1629807937375,-1.54
1629807937390,-1.23
1629807937406,-0.71
1629807937421,-0.09
1629807937437,0.58
1629807937453,1.21
1629807937468,1.64
1629807937484,1.61
1629807937500,0.82
1629807937515,-0.88
1629807937531,-3.44
1629807937546,-6.57
1629807937562,-9.82
1629807937578,-12.72
1629807937593,-15.02
1629807937609,-16.67
1629807937625,-17.83
1629807937640,-18.65
1629807937656,-19.19
1629807937671,-19.44
1629807937687,-19.32
1629807937703,-18.82
1629807937718,-18.02
1629807937734,-17.06
1629807937750,-16.12
1629807937765,-15.33
1629807937781,-14.76
1629807937796,-14.45
1629807937812,-14.36
1629807937828,-14.46
1629807937843,-14.65
1629807937859,-14.86
1629807937875,-15.03
1629807937890,-15.21
1629807937906,-15.53
1629807937921,-16.09
1629807937937,-16.87
1629807937953,-17.71
1629807937968,-18.29
1629807937984,-18.27
1629807938000,-17.48
1629807938015,-15.86
1629807938031,-13.55
1629807938046,-10.77
1629807938062,-7.77
1629807938078,-4.72
1629807938093,-1.76
1629807938109,0.96
1629807938125,3.35
1629807938140,5.24
1629807938156,6.56
1629807938171,7.29
1629807938187,7.51
1629807938203,7.33
1629807938218,6.97
1629807938234,6.56
1629807938250,6.25
1629807938265,6.13
1629807938281,6.21
1629807938296,6.44
1629807938312,6.76
1629807938328,7.07
1629807938343,7.28
1629807938359,7.29
1629807938375,6.98
1629807938390,6.39
1629807938406,5.69
1629807938421,5.13
1629807938437,5.03
1629807938453,5.52
1629807938468,6.45
1629807938484,7.53
1629807938500,8.31
1629807938515,8.47
1629807938531,7.89
1629807938546,6.72
1629807938562,5.18
1629807938578,3.6
1629807938593,2.2
1629807938609,1.1
1629807938625,0.33
1629807938640,-0.16
1629807938656,-0.49
1629807938671,-0.79
1629807938687,-1.22
1629807938703,-1.87
1629807938718,-2.74
1629807938734,-3.7
1629807938750,-4.6
1629807938765,-5.29
1629807938781,-5.65
1629807938796,-5.68
1629807938812,-5.54
1629807938828,-5.61
1629807938843,-6.51
1629807938859,-8.75
1629807938875,-12.46
1629807938890,-17.18
1629807938906,-21.84
1629807938921,-25.23
1629807938937,-26.41
1629807938953,-25.18
1629807938968,-22.12
1629807938984,-18.23
1629807939000,-14.49
1629807939015,-11.35
1629807939031,-8.78
1629807939046,-6.41
1629807939062,-3.99
1629807939078,-1.56
1629807939093,0.56
1629807939109,1.93
1629807939125,2.33
1629807939140,1.83
1629807939156,0.8
1629807939171,-0.27
1629807939187,-0.88
1629807939203,-0.72
1629807939218,0.23
1629807939234,1.75
1629807939250,3.48
1629807939265,5.13
1629807939281,6.57
1629807939296,7.87
1629807939312,9.17
1629807939328,10.59
1629807939343,12.05
1629807939359,13.27
1629807939375,13.86
1629807939390,13.55
1629807939406,12.32
1629807939421,10.44
1629807939437,8.38
1629807939453,6.54
1629807939468,5.15
1629807939484,4.21
1629807939500,3.47
1629807939515,2.65
1629807939531,1.55
1629807939546,0.19
1629807939562,-1.38
1629807939578,-2.96
1629807939593,-4.4
1629807939609,-5.64
1629807939625,-6.61
1629807939640,-7.27
1629807939656,-7.59
1629807939671,-7.59
1629807939687,-7.36
1629807939703,-7.13
1629807939718,-7.08
1629807939734,-7.26
1629807939750,-7.53
1629807939765,-7.51
1629807939781,-6.83
1629807939796,-5.25
1629807939812,-2.88
1629807939828,-0.13
1629807939843,2.44
1629807939859,4.39
1629807939875,5.61
1629807939890,6.33
1629807939906,6.97
1629807939921,7.85
1629807939937,9.04
1629807939953,10.37
1629807939968,11.5
1629807939984,12.22
1629807940000,12.51
1629807940015,12.51
1629807940031,12.4
1629807940046,12.27
1629807940062,12.06
1629807940078,11.65
1629807940093,11.04
1629807940109,10.35
1629807940125,9.86
1629807940140,9.78
1629807940156,10.13
1629807940171,10.64
1629807940187,10.99
1629807940203,10.91
1629807940218,10.39
1629807940234,9.65
1629807940250,8.98
1629807940265,8.54
1629807940281,8.36
1629807940296,8.28
1629807940312,8.15
1629807940328,7.92
1629807940343,7.65
1629807940359,7.4
1629807940375,7.17
1629807940390,6.82
1629807940406,6.13
1629807940421,4.99
1629807940437,3.4
1629807940453,1.57
1629807940468,-0.19
1629807940484,-1.65
1629807940500,-2.66
1629807940515,-3.26
1629807940531,-3.64
1629807940546,-4.07
1629807940562,-4.65
1629807940578,-5.31
1629807940593,-5.77
1629807940609,-5.68
1629807940625,-4.78
1629807940640,-3.08
1629807940656,-0.79
1629807940671,1.72
1629807940687,4.07
1629807940703,5.96
1629807940718,7.19
1629807940734,7.69
1629807940750,7.54
1629807940765,6.92
1629807940781,6.11
1629807940796,5.39
1629807940812,4.97
1629807940828,4.85
1629807940843,4.89
1629807940859,4.86
1629807940875,4.56
1629807940890,3.91
1629807940906,3.0
1629807940921,1.94
1629807940937,0.89
1629807940953,-0.07
1629807940968,-0.88
1629807940984,-1.57
1629807941000,-2.16
1629807941015,-2.69
1629807941031,-3.18
1629807941046,-3.62
1629807941062,-3.99
1629807941078,-4.28
1629807941093,-4.57
1629807941109,-4.93
1629807941125,-5.42
1629807941140,-6.0
1629807941156,-6.41
1629807941171,-6.43
1629807941187,-5.82
1629807941203,-4.59
1629807941218,-2.86
1629807941234,-0.87
1629807941250,1.22
1629807941265,3.34
1629807941281,5.52
1629807941296,7.76
1629807941312,9.96
1629807941328,11.97
1629807941343,13.59
1629807941359,14.66
1629807941375,15.04
1629807941390,14.67
1629807941406,13.65
1629807941421,12.14
1629807941437,10.52
1629807941453,9.22
1629807941468,8.7
1629807941484,9.22
1629807941500,10.79
1629807941515,13.24
1629807941531,16.34
1629807941546,19.83
1629807941562,23.42
1629807941578,26.77
1629807941593,29.46
1629807941609,31.07
1629807941625,31.42
1629807941640,30.55
1629807941656,28.82
1629807941671,26.71
1629807941687,24.65
1629807941703,22.94
1629807941718,21.78
1629807941734,21.27
1629807941750,21.4
1629807941765,21.91
1629807941781,22.21
1629807941796,21.52
1629807941812,19.11
1629807941828,14.67
1629807941843,8.66
1629807941859,2.12
1629807941875,-3.73
1629807941890,-8.02
1629807941906,-10.6
1629807941921,-11.95
1629807941937,-12.9
1629807941953,-14.06
1629807941968,-15.62
1629807941984,-17.2
1629807942000,-18.22
1629807942015,-18.27
1629807942031,-17.33
1629807942046,-15.74
1629807942062,-13.97
1629807942078,-12.44
1629807942093,-11.26
1629807942109,-10.41
1629807942125,-9.78
1629807942140,-9.4
1629807942156,-9.43
1629807942171,-10.06
1629807942187,-11.21
1629807942203,-12.64
1629807942218,-13.95
1629807942234,-14.81
1629807942250,-15.14
1629807942265,-15.08
1629807942281,-14.91
1629807942296,-14.77
1629807942312,-14.6
1629807942328,-14.21
1629807942343,-13.42
1629807942359,-12.11
1629807942375,-10.33
1629807942390,-8.1
1629807942406,-5.4
1629807942421,-2.13
1629807942437,1.81
1629807942453,6.46
1629807942468,11.62
1629807942484,16.9
1629807942500,21.78
1629807942515,25.85
1629807942531,28.86
1629807942546,30.91
1629807942562,32.31
1629807942578,33.46
1629807942593,34.67
1629807942609,36.1
1629807942625,37.73
1629807942640,39.59
1629807942656,41.86
1629807942671,44.72
1629807942687,48.32
1629807942703,52.43
1629807942718,56.37
1629807942734,59.08
1629807942750,59.42
1629807942765,56.55
1629807942781,50.18
1629807942796,40.73
1629807942812,29.14
1629807942828,16.58
1629807942843,4.16
1629807942859,-7.24
1629807942875,-17.09
1629807942890,-25.21
1629807942906,-31.63
1629807942921,-36.7
1629807942937,-41.05
1629807942953,-45.55
1629807942968,-51.02
1629807942984,-57.97
1629807943000,-66.26
1629807943015,-75.19
1629807943031,-83.66
1629807943046,-90.53
1629807943062,-95.09
1629807943078,-97.18
1629807943093,-97.13
1629807943109,-95.46
1629807943125,-92.5
1629807943140,-88.26
1629807943156,-82.53
1629807943171,-75.03
1629807943187,-65.75
1629807943203,-55.0
1629807943218,-43.38
1629807943234,-31.56
1629807943250,-20.19
1629807943265,-9.8
1629807943281,-0.91
1629807943296,5.85
1629807943312,9.86
1629807943328,10.51
1629807943343,7.64
1629807943359,1.65
1629807943375,-6.47
1629807943390,-15.52
1629807943406,-24.49
1629807943421,-32.9
1629807943437,-40.8
1629807943453,-48.41
1629807943468,-55.79
1629807943484,-62.53
1629807943500,-67.84
1629807943515,-70.82
1629807943531,-70.9
1629807943546,-68.01
1629807943562,-62.67
1629807943578,-55.64
1629807943593,-47.55
1629807943609,-38.72
1629807943625,-29.05
1629807943640,-18.33
1629807943656,-6.44
1629807943671,6.36
1629807943687,19.43
1629807943703,31.87
1629807943718,42.78
1629807943734,51.62
1629807943750,58.25
1629807943765,62.93
1629807943781,66.07
1629807943796,67.97
1629807943812,68.6
1629807943828,67.82
1629807943843,65.56
1629807943859,62.11
1629807943875,58.05
1629807943890,54.08
1629807943906,50.69
1629807943921,48.01
1629807943937,45.88
1629807943953,44.1
1629807943968,42.62
1629807943984,41.56
1629807944000,40.94
1629807944015,40.6
1629807944031,40.08
1629807944046,38.83
1629807944062,36.4
1629807944078,32.55
1629807944093,27.37
1629807944109,21.14
1629807944125,14.33
1629807944140,7.49
1629807944156,1.15
1629807944171,-4.31
1629807944187,-8.81
1629807944203,-12.44
1629807944218,-15.41
1629807944234,-17.79
1629807944250,-19.57
1629807944265,-20.7
1629807944281,-21.32
1629807944296,-21.66
1629807944312,-21.97
1629807944328,-22.28
1629807944343,-22.32
1629807944359,-21.71
1629807944375,-20.17
1629807944390,-17.87
1629807944406,-15.36
1629807944421,-13.29
1629807944437,-12.03
1629807944453,-11.43
1629807944468,-10.98
1629807944484,-9.95
1629807944500,-7.87
1629807944515,-4.66
1629807944531,-0.81
1629807944546,2.92
1629807944562,5.73
1629807944578,7.12
1629807944593,7.09
1629807944609,6.06
1629807944625,4.67
1629807944640,3.44
1629807944656,2.64
1629807944671,2.21
1629807944687,1.9
1629807944703,1.53
1629807944718,0.99
1629807944734,0.27
1629807944750,-0.66
1629807944765,-1.89
1629807944781,-3.62
1629807944796,-5.97
1629807944812,-8.89
1629807944828,-12.1
1629807944843,-15.06
1629807944859,-17.22
1629807944875,-18.12
1629807944890,-17.6
1629807944906,-15.82
1629807944921,-13.22
1629807944937,-10.35
1629807944953,-7.74
1629807944968,-5.8
1629807944984,-4.73
1629807945000,-4.57
1629807945015,-5.01
1629807945031,-5.68
1629807945046,-6.07
1629807945062,-5.87
1629807945078,-5.01
1629807945093,-3.78
1629807945109,-2.67
1629807945125,-2.09
1629807945140,-2.23
1629807945156,-2.82
1629807945171,-3.41
1629807945187,-3.46
1629807945203,-2.64
1629807945218,-0.86
1629807945234,1.67
1629807945250,4.56
1629807945265,7.48
1629807945281,10.02
1629807945296,11.99
1629807945312,13.39
1629807945328,14.44
1629807945343,15.47
1629807945359,16.89
1629807945375,19.08
1629807945390,22.39
1629807945406,27.07
1629807945421,33.02
1629807945437,39.62
1629807945453,45.71
1629807945468,49.69
1629807945484,50.2
1629807945500,46.73
1629807945515,39.87
1629807945531,31.14
1629807945546,22.29
1629807945562,14.59
1629807945578,8.45
1629807945593,3.59
1629807945609,-0.55
1629807945625,-4.29
1629807945640,-7.67
1629807945656,-10.67
1629807945671,-13.4
1629807945687,-16.22
1629807945703,-19.5
1629807945718,-23.28
1629807945734,-27.25
1629807945750,-30.98
1629807945765,-34.06
1629807945781,-36.49
1629807945796,-38.5
1629807945812,-40.37
1629807945828,-42.3
1629807945843,-44.33
1629807945859,-46.37
1629807945875,-48.12
1629807945890,-49.03
1629807945906,-48.23
1629807945921,-44.78
1629807945937,-38.11
1629807945953,-28.45
1629807945968,-16.97
1629807945984,-5.34
1629807946000,4.93
1629807946015,13.16
1629807946031,19.64
1629807946046,25.11
1629807946062,30.22
1629807946078,35.02
1629807946093,38.99
1629807946109,41.51
1629807946125,42.36
1629807946140,41.87
1629807946156,40.83
1629807946171,39.95
1629807946187,39.6
1629807946203,39.67
1629807946218,39.81
1629807946234,39.66
1629807946250,38.97
1629807946265,37.73
1629807946281,36.01
1629807946296,33.97
1629807946312,31.75
1629807946328,29.41
1629807946343,26.97
1629807946359,24.39
1629807946375,21.62
1629807946390,18.67
1629807946406,15.65
1629807946421,12.78
1629807946437,10.33
1629807946453,8.55
1629807946468,7.48
1629807946484,6.99
1629807946500,6.73
1629807946515,6.25
1629807946531,5.17
1629807946546,3.27
1629807946562,0.59
1629807946578,-2.56
1629807946593,-5.77
1629807946609,-8.66
1629807946625,-10.97
1629807946640,-12.69
1629807946656,-13.97
1629807946671,-14.96
1629807946687,-15.81
1629807946703,-16.53
1629807946718,-17.14
1629807946734,-17.69
1629807946750,-18.3
1629807946765,-19.01
1629807946781,-19.84
1629807946796,-20.7
1629807946812,-21.54
1629807946828,-22.33
1629807946843,-23.09
1629807946859,-23.79
1629807946875,-24.29
1629807946890,-24.38
1629807946906,-23.82
1629807946921,-22.54
1629807946937,-20.61
1629807946953,-18.11
1629807946968,-15.15
1629807946984,-11.71
1629807947000,-7.75
1629807947015,-3.34
1629807947031,1.18
1629807947046,5.39
1629807947062,8.83
1629807947078,11.29
