timestamp,bvp
1629800379781,-46.97
1629800379796,-51.68
1629800379812,-53.18
1629800379828,-50.57
1629800379843,-43.66
1629800379859,-33.17
1629800379875,-20.67
1629800379890,-8.02
1629800379906,3.07
1629800379921,11.39
1629800379937,16.37
1629800379953,17.97
1629800379968,16.47
1629800379984,12.37
1629800380000,6.28
1629800380015,-1.0
1629800380031,-8.55
1629800380046,-15.36
1629800380062,-20.49
1629800380078,-23.22
1629800380093,-23.19
1629800380109,-20.55
1629800380125,-15.94
1629800380140,-10.4
1629800380156,-5.02
1629800380171,-0.62
1629800380187,2.49
1629800380203,4.45
1629800380218,5.62
1629800380234,6.28
1629800380250,6.39
1629800380265,5.65
1629800380281,3.75
1629800380296,0.61
1629800380312,-3.4
1629800380328,-7.68
1629800380343,-11.62
1629800380359,-14.83
1629800380375,-17.29
1629800380390,-19.31
1629800380406,-21.33
1629800380421,-23.72
1629800380437,-26.74
1629800380453,-30.49
1629800380468,-34.87
1629800380484,-39.6
1629800380500,-44.03
1629800380515,-47.16
1629800380531,-47.72
1629800380546,-44.61
1629800380562,-37.28
1629800380578,-26.13
1629800380593,-12.47
1629800380609,1.75
1629800380625,14.69
1629800380640,25.02
1629800380656,32.19
1629800380671,36.36
1629800380687,37.97
1629800380703,37.53
1629800380718,35.37
1629800380734,31.79
1629800380750,27.17
1629800380765,22.08
1629800380781,17.22
1629800380796,13.21
1629800380812,10.44
1629800380828,8.97
1629800380843,8.56
1629800380859,8.83
1629800380875,9.41
1629800380890,10.05
1629800380906,10.6
1629800380921,10.92
1629800380937,10.81
1629800380953,9.92
1629800380968,7.85
1629800380984,4.33
1629800381000,-0.58
1629800381015,-6.37
1629800381031,-12.26
1629800381046,-17.42
1629800381062,-21.33
1629800381078,-23.96
1629800381093,-25.8
1629800381109,-27.56
1629800381125,-29.97
1629800381140,-33.5
1629800381156,-38.19
1629800381171,-43.62
1629800381187,-48.82
1629800381203,-52.39
1629800381218,-52.73
1629800381234,-48.61
1629800381250,-39.58
1629800381265,-26.34
1629800381281,-10.69
1629800381296,5.03
1629800381312,18.67
1629800381328,28.82
1629800381343,35.1
1629800381359,37.95
1629800381375,38.15
1629800381390,36.47
1629800381406,33.5
1629800381421,29.65
1629800381437,25.36
1629800381453,21.12
1629800381468,17.42
1629800381484,14.64
1629800381500,12.91
1629800381515,12.17
1629800381531,12.15
1629800381546,12.53
1629800381562,13.03
1629800381578,13.38
1629800381593,13.35
1629800381609,12.74
1629800381625,11.31
1629800381640,8.97
1629800381656,5.74
1629800381671,1.83
1629800381687,-2.47
1629800381703,-6.83
1629800381718,-11.05
1629800381734,-15.05
1629800381750,-18.9
1629800381765,-22.76
1629800381781,-26.9
1629800381796,-31.51
1629800381812,-36.67
1629800381828,-42.18
1629800381843,-47.35
1629800381859,-51.03
1629800381875,-51.78
1629800381890,-48.46
1629800381906,-40.65
1629800381921,-29.03
1629800381937,-15.17
1629800381953,-1.08
1629800381968,11.5
1629800381984,21.54
1629800382000,28.85
1629800382015,33.71
1629800382031,36.47
1629800382046,37.32
1629800382062,36.33
1629800382078,33.64
1629800382093,29.72
1629800382109,25.36
1629800382125,21.4
1629800382140,18.47
1629800382156,16.76
1629800382171,15.98
1629800382187,15.64
1629800382203,15.35
1629800382218,14.93
1629800382234,14.46
1629800382250,14.12
1629800382265,13.94
1629800382281,13.68
1629800382296,12.8
1629800382312,10.76
1629800382328,7.2
1629800382343,2.17
1629800382359,-3.84
1629800382375,-10.09
1629800382390,-15.85
1629800382406,-20.66
1629800382421,-24.5
1629800382437,-27.69
1629800382453,-30.79
1629800382468,-34.38
1629800382484,-38.88
1629800382500,-44.39
1629800382515,-50.5
1629800382531,-56.25
1629800382546,-60.22
1629800382562,-60.85
1629800382578,-56.92
1629800382593,-48.08
1629800382609,-35.11
1629800382625,-19.75
1629800382640,-4.17
1629800382656,9.67
1629800382671,20.59
1629800382687,28.29
1629800382703,33.14
1629800382718,35.71
1629800382734,36.48
1629800382750,35.64
1629800382765,33.35
1629800382781,29.91
1629800382796,25.91
1629800382812,22.13
1629800382828,19.3
1629800382843,17.84
1629800382859,17.67
1629800382875,18.31
1629800382890,19.08
1629800382906,19.38
1629800382921,18.93
1629800382937,17.73
1629800382953,16.05
1629800382968,14.19
1629800382984,12.41
1629800383000,10.79
1629800383015,9.3
1629800383031,7.84
1629800383046,6.37
1629800383062,4.86
1629800383078,3.38
1629800383093,1.99
1629800383109,0.72
1629800383125,-0.42
1629800383140,-1.61
1629800383156,-3.33
1629800383171,-6.24
1629800383187,-10.97
1629800383203,-17.85
1629800383218,-26.54
1629800383234,-35.94
1629800383250,-44.26
1629800383265,-49.23
1629800383281,-48.96
1629800383296,-42.63
1629800383312,-30.81
1629800383328,-15.28
1629800383343,1.56
1629800383359,17.29
1629800383375,30.13
1629800383390,39.07
1629800383406,44.16
1629800383421,45.92
1629800383437,44.97
1629800383453,42.03
1629800383468,38.0
1629800383484,33.85
1629800383500,30.27
1629800383515,27.35
1629800383531,24.7
1629800383546,22.57
1629800383562,21.22
1629800383578,20.64
1629800383593,20.68
1629800383609,21.18
1629800383625,21.81
1629800383640,21.93
1629800383656,20.7
1629800383671,17.55
1629800383687,14.2
1629800383703,12.32
1629800383718,12.09
1629800383734,12.17
1629800383750,10.89
1629800383765,7.07
1629800383781,0.17
1629800383796,-9.62
1629800383812,-21.5
1629800383828,-31.66
1629800383843,-37.17
1629800383859,-37.48
1629800383875,-33.73
1629800383890,-26.44
1629800383906,-14.79
1629800383921,2.33
1629800383937,25.21
1629800383953,52.96
1629800383968,87.21
1629800383984,128.13
1629800384000,173.06
1629800384015,217.29
1629800384031,256.58
1629800384046,288.31
1629800384062,311.1
1629800384078,325.2
1629800384093,311.67
1629800384109,264.87
1629800384125,197.76
1629800384140,132.32
1629800384156,81.44
1629800384171,44.79
1629800384187,16.53
1629800384203,-7.76
1629800384218,-28.29
1629800384234,-42.49
1629800384250,-44.76
1629800384265,-33.37
1629800384281,-12.42
1629800384296,10.13
1629800384312,27.6
1629800384328,36.75
1629800384343,36.87
1629800384359,29.23
1629800384375,15.73
1629800384390,0.98
1629800384406,-11.72
1629800384421,-22.21
1629800384437,-33.06
1629800384453,-47.37
1629800384468,-63.36
1629800384484,-79.35
1629800384500,-93.69
1629800384515,-105.37
1629800384531,-112.53
1629800384546,-114.72
1629800384562,-113.69
1629800384578,-112.48
1629800384593,-113.28
1629800384609,-116.31
1629800384625,-120.61
1629800384640,-124.18
1629800384656,-125.37
1629800384671,-122.2
1629800384687,-113.78
1629800384703,-100.82
1629800384718,-85.25
1629800384734,-68.91
1629800384750,-52.78
1629800384765,-37.3
1629800384781,-22.31
1629800384796,-8.38
1629800384812,4.45
1629800384828,16.17
1629800384843,26.3
1629800384859,34.01
1629800384875,39.08
1629800384890,42.29
1629800384906,45.13
1629800384921,49.07
1629800384937,52.77
1629800384953,54.72
1629800384968,53.48
1629800384984,47.47
1629800385000,34.82
1629800385015,14.27
1629800385031,-14.45
1629800385046,-50.26
1629800385062,-91.2
1629800385078,-137.75
1629800385093,-188.03
1629800385109,-237.93
1629800385125,-282.92
1629800385140,-320.01
1629800385156,-347.87
1629800385171,-366.76
1629800385187,-377.37
1629800385203,-380.75
1629800385218,-381.54
1629800385234,-380.81
1629800385250,-375.73
1629800385265,-362.13
1629800385281,-337.61
1629800385296,-302.3
1629800385312,-259.01
1629800385328,-211.51
1629800385343,-141.92
1629800385359,-53.98
1629800385375,33.12
1629800385390,100.84
1629800385406,144.0
1629800385421,167.09
1629800385437,180.8
1629800385453,191.2
1629800385468,201.77
1629800385484,214.85
1629800385500,225.74
1629800385515,232.51
1629800385531,235.8
1629800385546,236.82
1629800385562,235.61
1629800385578,231.78
1629800385593,225.07
1629800385609,216.57
1629800385625,207.75
1629800385640,196.81
1629800385656,183.54
1629800385671,169.39
1629800385687,156.25
1629800385703,145.06
1629800385718,135.95
1629800385734,128.31
1629800385750,121.47
1629800385765,114.39
1629800385781,104.01
1629800385796,89.1
1629800385812,70.66
1629800385828,50.93
1629800385843,31.96
1629800385859,14.9
1629800385875,-0.42
1629800385890,-14.91
1629800385906,-29.91
1629800385921,-47.53
1629800385937,-68.34
1629800385953,-91.26
1629800385968,-114.18
1629800385984,-134.8
1629800386000,-151.04
1629800386015,-161.3
1629800386031,-164.38
1629800386046,-160.01
1629800386062,-149.37
1629800386078,-134.54
1629800386093,-118.01
1629800386109,-102.15
1629800386125,-88.65
1629800386140,-78.1
1629800386156,-70.28
1629800386171,-64.44
1629800386187,-60.04
1629800386203,-57.01
1629800386218,-55.81
1629800386234,-57.02
1629800386250,-60.98
1629800386265,-67.44
1629800386281,-75.38
1629800386296,-82.91
1629800386312,-87.6
1629800386328,-86.87
1629800386343,-78.71
1629800386359,-62.36
1629800386375,-38.61
1629800386390,-9.57
1629800386406,21.88
1629800386421,52.86
1629800386437,80.86
1629800386453,103.79
1629800386468,119.73
1629800386484,127.01
1629800386500,124.48
1629800386515,112.24
1629800386531,92.15
1629800386546,67.82
1629800386562,43.83
1629800386578,24.43
1629800386593,12.36
1629800386609,8.27
1629800386625,10.89
1629800386640,17.77
1629800386656,26.13
1629800386671,33.39
1629800386687,37.64
1629800386703,37.76
1629800386718,33.55
1629800386734,25.69
1629800386750,15.51
1629800386765,4.58
1629800386781,-5.83
1629800386796,-14.93
1629800386812,-22.35
1629800386828,-27.8
1629800386843,-30.8
1629800386859,-30.81
1629800386875,-27.67
1629800386890,-22.0
1629800386906,-15.14
1629800386921,-8.55
1629800386937,-3.13
1629800386953,1.31
1629800386968,5.77
1629800386984,11.34
1629800387000,18.41
1629800387015,26.43
1629800387031,34.19
1629800387046,40.67
1629800387062,45.56
1629800387078,49.33
1629800387093,52.78
1629800387109,56.42
1629800387125,60.09
1629800387140,63.11
1629800387156,64.72
1629800387171,64.59
1629800387187,63.06
1629800387203,61.06
1629800387218,59.59
1629800387234,59.23
1629800387250,59.78
1629800387265,60.33
1629800387281,59.58
1629800387296,56.42
1629800387312,50.37
1629800387328,41.68
1629800387343,31.17
1629800387359,19.86
1629800387375,8.66
1629800387390,-1.83
1629800387406,-11.28
1629800387421,-19.54
1629800387437,-26.49
1629800387453,-32.09
1629800387468,-36.26
1629800387484,-38.88
1629800387500,-39.69
1629800387515,-38.28
1629800387531,-34.21
1629800387546,-27.19
1629800387562,-17.37
1629800387578,-5.36
1629800387593,7.83
1629800387609,21.08
1629800387625,33.43
1629800387640,44.2
1629800387656,52.98
1629800387671,59.52
1629800387687,63.64
1629800387703,65.29
1629800387718,64.64
1629800387734,62.16
1629800387750,58.58
1629800387765,54.7
1629800387781,51.2
1629800387796,48.46
1629800387812,46.53
1629800387828,45.24
1629800387843,44.31
1629800387859,43.52
1629800387875,42.69
1629800387890,41.77
1629800387906,40.69
1629800387921,39.4
1629800387937,37.79
1629800387953,35.71
1629800387968,33.02
1629800387984,29.66
1629800388000,25.67
1629800388015,21.22
1629800388031,16.58
1629800388046,12.05
1629800388062,7.87
1629800388078,4.09
1629800388093,0.51
1629800388109,-3.22
1629800388125,-7.53
1629800388140,-12.72
1629800388156,-18.79
1629800388171,-25.33
1629800388187,-31.59
1629800388203,-36.6
1629800388218,-39.37
1629800388234,-39.19
1629800388250,-35.74
1629800388265,-29.24
1629800388281,-20.38
1629800388296,-10.22
1629800388312,0.11
1629800388328,9.64
1629800388343,17.78
1629800388359,24.37
1629800388375,29.47
1629800388390,33.27
1629800388406,35.85
1629800388421,37.19
1629800388437,37.27
1629800388453,36.19
1629800388468,34.29
1629800388484,32.03
1629800388500,29.87
1629800388515,28.11
1629800388531,26.79
1629800388546,25.74
1629800388562,24.74
1629800388578,23.68
1629800388593,22.55
1629800388609,21.44
1629800388625,20.34
1629800388640,19.05
1629800388656,17.29
1629800388671,14.76
1629800388687,11.37
1629800388703,7.3
1629800388718,2.98
1629800388734,-1.05
1629800388750,-4.43
1629800388765,-7.1
1629800388781,-9.3
1629800388796,-11.42
1629800388812,-13.85
1629800388828,-16.83
1629800388843,-20.48
1629800388859,-24.78
1629800388875,-29.64
1629800388890,-34.82
1629800388906,-39.84
1629800388921,-43.91
1629800388937,-46.02
1629800388953,-45.24
1629800388968,-41.03
1629800388984,-33.57
1629800389000,-23.69
1629800389015,-12.69
1629800389031,-1.95
1629800389046,7.47
1629800389062,15.03
1629800389078,20.64
1629800389093,24.55
1629800389109,27.05
1629800389125,28.4
1629800389140,28.74
1629800389156,28.25
1629800389171,27.14
1629800389187,25.67
1629800389203,24.14
1629800389218,22.71
1629800389234,21.47
1629800389250,20.38
1629800389265,19.44
1629800389281,18.66
1629800389296,18.08
1629800389312,17.67
1629800389328,17.35
1629800389343,16.94
1629800389359,16.27
1629800389375,15.24
1629800389390,13.83
1629800389406,12.1
1629800389421,10.08
1629800389437,7.78
1629800389453,5.16
1629800389468,2.21
1629800389484,-0.96
1629800389500,-4.21
1629800389515,-7.34
1629800389531,-10.22
1629800389546,-12.82
1629800389562,-15.23
1629800389578,-17.59
1629800389593,-20.07
1629800389609,-22.8
1629800389625,-25.83
1629800389640,-29.24
1629800389656,-33.03
1629800389671,-37.19
1629800389687,-41.52
1629800389703,-45.53
1629800389718,-48.48
1629800389734,-49.46
1629800389750,-47.7
1629800389765,-42.81
1629800389781,-35.08
1629800389796,-25.34
1629800389812,-14.81
1629800389828,-4.69
1629800389843,4.15
1629800389859,11.31
1629800389875,16.69
1629800389890,20.35
1629800389906,22.34
1629800389921,22.65
1629800389937,21.39
1629800389953,18.93
1629800389968,15.88
1629800389984,13.02
1629800390000,10.94
1629800390015,9.89
1629800390031,9.66
1629800390046,9.73
1629800390062,9.56
1629800390078,8.85
1629800390093,7.66
1629800390109,6.33
1629800390125,5.26
1629800390140,4.67
1629800390156,4.41
1629800390171,4.03
1629800390187,2.97
1629800390203,0.86
1629800390218,-2.28
1629800390234,-6.0
1629800390250,-9.68
1629800390265,-12.8
1629800390281,-15.21
1629800390296,-17.19
1629800390312,-19.16
1629800390328,-21.41
1629800390343,-23.91
1629800390359,-26.23
1629800390375,-27.79
1629800390390,-28.21
1629800390406,-27.44
1629800390421,-25.86
1629800390437,-24.06
1629800390453,-22.73
1629800390468,-22.43
1629800390484,-23.54
1629800390500,-26.12
1629800390515,-29.74
1629800390531,-33.56
1629800390546,-36.35
1629800390562,-36.85
1629800390578,-34.17
1629800390593,-28.14
1629800390609,-19.42
1629800390625,-9.28
1629800390640,0.84
1629800390656,9.74
1629800390671,16.69
1629800390687,21.46
1629800390703,24.15
1629800390718,25.0
1629800390734,24.27
1629800390750,22.22
1629800390765,19.16
1629800390781,15.48
1629800390796,11.66
1629800390812,8.2
1629800390828,5.52
1629800390843,3.83
1629800390859,3.07
1629800390875,3.0
1629800390890,3.24
1629800390906,3.47
1629800390921,3.52
1629800390937,3.41
1629800390953,3.23
1629800390968,3.07
1629800390984,2.84
1629800391000,2.36
1629800391015,1.41
1629800391031,-0.16
1629800391046,-2.31
1629800391062,-4.84
1629800391078,-7.48
1629800391093,-9.98
1629800391109,-12.2
1629800391125,-14.16
1629800391140,-15.99
1629800391156,-17.83
1629800391171,-19.87
1629800391187,-22.21
1629800391203,-24.91
1629800391218,-27.91
1629800391234,-30.98
1629800391250,-33.69
1629800391265,-35.46
1629800391281,-35.62
1629800391296,-33.64
1629800391312,-29.3
1629800391328,-22.76
1629800391343,-14.62
1629800391359,-5.79
1629800391375,2.76
1629800391390,10.19
1629800391406,15.95
1629800391421,19.83
1629800391437,21.87
1629800391453,22.3
1629800391468,21.41
1629800391484,19.54
1629800391500,17.08
1629800391515,14.44
1629800391531,12.06
1629800391546,10.27
1629800391562,9.2
1629800391578,8.72
1629800391593,8.56
1629800391609,8.42
1629800391625,8.13
1629800391640,7.74
1629800391656,7.39
1629800391671,7.18
1629800391687,7.06
1629800391703,6.79
1629800391718,6.07
1629800391734,4.66
1629800391750,2.54
1629800391765,-0.15
1629800391781,-3.15
1629800391796,-6.2
1629800391812,-9.16
1629800391828,-11.95
1629800391843,-14.56
1629800391859,-17.04
1629800391875,-19.49
1629800391890,-22.11
1629800391906,-25.1
1629800391921,-28.54
1629800391937,-32.29
1629800391953,-35.95
1629800391968,-38.84
1629800391984,-40.2
1629800392000,-39.38
1629800392015,-36.04
1629800392031,-30.25
1629800392046,-22.52
1629800392062,-13.7
1629800392078,-4.79
1629800392093,3.28
1629800392109,9.87
1629800392125,14.69
1629800392140,17.82
1629800392156,19.54
1629800392171,20.17
1629800392187,19.96
1629800392203,19.11
1629800392218,17.8
1629800392234,16.32
1629800392250,15.02
1629800392265,14.21
1629800392281,13.98
1629800392296,14.2
1629800392312,14.61
1629800392328,14.92
1629800392343,15.01
1629800392359,14.89
1629800392375,14.67
1629800392390,14.37
1629800392406,13.9
1629800392421,13.07
1629800392437,11.63
1629800392453,9.53
1629800392468,6.93
1629800392484,4.24
1629800392500,1.94
1629800392515,0.35
1629800392531,-0.54
1629800392546,-1.07
1629800392562,-1.8
1629800392578,-3.17
1629800392593,-5.31
1629800392609,-7.91
1629800392625,-10.4
1629800392640,-12.17
1629800392656,-12.84
1629800392671,-12.41
1629800392687,-11.05
1629800392703,-9.11
1629800392718,-6.72
1629800392734,-3.6
1629800392750,1.01
1629800392765,8.05
1629800392781,18.17
1629800392796,31.46
1629800392812,46.74
1629800392828,61.93
1629800392843,73.95
1629800392859,79.75
1629800392875,77.6
1629800392890,68.27
1629800392906,55.26
1629800392921,43.71
1629800392937,38.72
1629800392953,42.22
1629800392968,52.24
1629800392984,62.35
1629800393000,64.03
1629800393015,49.96
1629800393031,16.89
1629800393046,-32.89
1629800393062,-92.07
1629800393078,-149.91
1629800393093,-196.31
1629800393109,-223.22
1629800393125,-227.61
1629800393140,-211.51
1629800393156,-181.42
1629800393171,-146.39
1629800393187,-115.71
1629800393203,-96.74
1629800393218,-93.03
1629800393234,-105.67
1629800393250,-124.94
1629800393265,-138.48
1629800393281,-136.46
1629800393296,-119.05
1629800393312,-94.47
1629800393328,-71.48
1629800393343,-58.62
1629800393359,-51.36
1629800393375,-44.39
1629800393390,-32.86
1629800393406,-14.55
1629800393421,10.56
1629800393437,42.75
1629800393453,80.01
1629800393468,114.37
1629800393484,136.25
1629800393500,141.66
1629800393515,133.01
1629800393531,117.23
1629800393546,99.74
1629800393562,82.58
1629800393578,65.12
1629800393593,46.33
1629800393609,27.12
1629800393625,11.78
1629800393640,4.67
1629800393656,7.8
1629800393671,20.45
1629800393687,38.05
1629800393703,54.19
1629800393718,62.99
1629800393734,61.35
1629800393750,50.14
1629800393765,33.92
1629800393781,19.21
1629800393796,8.74
1629800393812,4.52
1629800393828,5.7
1629800393843,9.44
1629800393859,12.45
1629800393875,12.45
1629800393890,9.07
1629800393906,3.85
1629800393921,-0.9
1629800393937,-3.73
1629800393953,-4.21
1629800393968,-3.38
1629800393984,-2.73
1629800394000,-3.24
1629800394015,-5.1
1629800394031,-7.79
1629800394046,-10.46
1629800394062,-12.61
1629800394078,-14.38
1629800394093,-16.05
1629800394109,-18.03
1629800394125,-20.32
1629800394140,-22.36
1629800394156,-23.54
1629800394171,-23.6
1629800394187,-22.81
1629800394203,-21.95
1629800394218,-21.85
1629800394234,-22.9
1629800394250,-25.13
1629800394265,-28.25
1629800394281,-31.74
1629800394296,-35.08
1629800394312,-37.73
1629800394328,-38.98
1629800394343,-38.07
1629800394359,-34.3
1629800394375,-27.34
1629800394390,-17.58
1629800394406,-6.18
1629800394421,5.23
1629800394437,15.06
1629800394453,22.24
1629800394468,26.53
1629800394484,28.41
1629800394500,28.83
1629800394515,28.86
1629800394531,29.19
1629800394546,29.99
1629800394562,30.92
1629800394578,31.42
1629800394593,31.02
1629800394609,29.63
1629800394625,27.58
1629800394640,25.46
1629800394656,23.89
1629800394671,23.27
1629800394687,23.76
1629800394703,25.24
1629800394718,27.41
1629800394734,29.75
1629800394750,31.59
1629800394765,32.07
1629800394781,30.42
1629800394796,26.25
1629800394812,19.91
1629800394828,12.52
1629800394843,5.67
1629800394859,0.66
1629800394875,-2.25
1629800394890,-4.19
1629800394906,-7.35
1629800394921,-13.91
1629800394937,-24.75
1629800394953,-38.69
1629800394968,-52.71
1629800394984,-63.12
1629800395000,-67.2
1629800395015,-64.29
1629800395031,-55.85
1629800395046,-44.42
1629800395062,-32.25
1629800395078,-20.49
1629800395093,-9.17
1629800395109,2.03
1629800395125,13.01
1629800395140,23.09
1629800395156,31.56
1629800395171,38.39
1629800395187,44.52
1629800395203,51.43
1629800395218,60.18
1629800395234,70.6
1629800395250,81.27
1629800395265,90.25
1629800395281,96.07
1629800395296,98.43
1629800395312,98.16
1629800395328,96.55
1629800395343,94.59
1629800395359,92.55
1629800395375,89.98
1629800395390,86.08
1629800395406,80.04
1629800395421,71.24
1629800395437,59.38
1629800395453,44.53
1629800395468,27.4
1629800395484,9.4
1629800395500,-7.37
1629800395515,-20.65
1629800395531,-28.74
1629800395546,-31.19
1629800395562,-29.1
1629800395578,-24.68
1629800395593,-20.46
1629800395609,-18.3
1629800395625,-18.83
1629800395640,-21.51
1629800395656,-25.23
1629800395671,-29.07
1629800395687,-32.71
1629800395703,-36.39
1629800395718,-40.4
1629800395734,-44.6
1629800395750,-48.26
1629800395765,-50.4
1629800395781,-50.47
1629800395796,-48.9
1629800395812,-47.02
1629800395828,-46.39
1629800395843,-47.93
1629800395859,-51.22
1629800395875,-54.61
1629800395890,-55.93
1629800395906,-53.48
1629800395921,-46.93
1629800395937,-37.31
1629800395953,-26.46
1629800395968,-16.08
1629800395984,-7.17
1629800396000,0.19
1629800396015,6.41
1629800396031,11.96
1629800396046,17.06
1629800396062,21.45
1629800396078,24.79
1629800396093,26.89
1629800396109,27.91
1629800396125,28.28
1629800396140,28.53
1629800396156,29.07
1629800396171,30.1
1629800396187,31.6
1629800396203,33.13
1629800396218,34.13
1629800396234,34.31
1629800396250,33.91
1629800396265,33.59
1629800396281,34.11
1629800396296,35.93
1629800396312,38.97
1629800396328,42.72
1629800396343,46.09
1629800396359,47.96
1629800396375,47.92
1629800396390,46.59
1629800396406,45.14
1629800396421,44.71
1629800396437,45.91
1629800396453,48.72
1629800396468,52.71
1629800396484,56.58
1629800396500,58.71
1629800396515,58.18
1629800396531,55.25
1629800396546,51.04
1629800396562,46.91
1629800396578,43.96
1629800396593,42.78
1629800396609,43.55
1629800396625,45.08
1629800396640,45.13
1629800396656,41.55
1629800396671,32.65
1629800396687,17.14
1629800396703,-5.92
1629800396718,-36.76
1629800396734,-75.34
1629800396750,-114.98
1629800396765,-145.94
1629800396781,-161.9
1629800396796,-162.79
1629800396812,-152.55
1629800396828,-135.75
1629800396843,-115.9
1629800396859,-95.39
1629800396875,-75.62
1629800396890,-57.29
1629800396906,-41.79
1629800396921,-30.87
1629800396937,-24.95
1629800396953,-22.83
1629800396968,-22.69
1629800396984,-21.83
1629800397000,-18.28
1629800397015,-11.09
1629800397031,-0.06
1629800397046,13.81
1629800397062,29.13
1629800397078,45.62
1629800397093,63.59
1629800397109,83.13
1629800397125,103.43
1629800397140,122.41
1629800397156,137.52
1629800397171,146.84
1629800397187,149.49
1629800397203,142.56
1629800397218,126.51
1629800397234,103.48
1629800397250,76.17
1629800397265,47.28
1629800397281,19.35
1629800397296,-4.94
1629800397312,-22.8
1629800397328,-32.04
1629800397343,-31.82
1629800397359,-22.59
1629800397375,-6.8
1629800397390,11.82
1629800397406,29.48
1629800397421,43.32
1629800397437,51.87
1629800397453,54.98
1629800397468,53.03
1629800397484,46.46
1629800397500,36.23
1629800397515,23.38
1629800397531,9.35
1629800397546,-4.07
1629800397562,-15.21
1629800397578,-23.04
1629800397593,-27.51
1629800397609,-29.5
1629800397625,-30.3
1629800397640,-30.73
1629800397656,-31.08
1629800397671,-31.05
1629800397687,-30.06
1629800397703,-27.72
1629800397718,-24.14
1629800397734,-19.88
1629800397750,-15.85
1629800397765,-13.04
1629800397781,-12.07
1629800397796,-13.31
1629800397812,-16.76
1629800397828,-22.15
1629800397843,-28.95
1629800397859,-36.48
1629800397875,-43.98
1629800397890,-50.75
1629800397906,-56.34
1629800397921,-60.76
1629800397937,-64.61
1629800397953,-69.11
1629800397968,-75.72
1629800397984,-85.63
1629800398000,-99.27
1629800398015,-115.87
1629800398031,-133.53
1629800398046,-149.65
1629800398062,-161.62
1629800398078,-167.52
1629800398093,-166.53
1629800398109,-159.04
1629800398125,-146.32
1629800398140,-130.05
1629800398156,-111.94
1629800398171,-93.42
1629800398187,-75.57
1629800398203,-59.09
1629800398218,-44.35
1629800398234,-31.45
1629800398250,-20.23
1629800398265,-10.44
1629800398281,-1.78
1629800398296,5.99
1629800398312,13.05
1629800398328,19.45
1629800398343,25.18
1629800398359,30.17
1629800398375,34.3
1629800398390,37.47
1629800398406,39.55
1629800398421,40.48
1629800398437,40.23
1629800398453,38.74
1629800398468,35.98
1629800398484,31.99
1629800398500,27.02
1629800398515,21.65
1629800398531,16.86
1629800398546,13.84
1629800398562,13.69
1629800398578,17.03
1629800398593,23.66
1629800398609,32.61
1629800398625,42.35
1629800398640,51.29
1629800398656,58.23
1629800398671,62.62
1629800398687,64.55
1629800398703,64.57
1629800398718,63.31
1629800398734,61.26
1629800398750,58.68
1629800398765,55.72
1629800398781,52.49
1629800398796,49.18
1629800398812,46.08
1629800398828,43.44
1629800398843,41.44
1629800398859,40.02
1629800398875,38.99
1629800398890,38.01
1629800398906,36.73
1629800398921,34.88
1629800398937,32.39
1629800398953,29.33
1629800398968,25.88
1629800398984,22.27
1629800399000,18.6
1629800399015,14.86
1629800399031,10.98
1629800399046,6.94
1629800399062,2.82
1629800399078,-1.09
1629800399093,-4.49
1629800399109,-7.15
1629800399125,-9.08
1629800399140,-10.53
1629800399156,-11.88
1629800399171,-13.46
1629800399187,-15.38
1629800399203,-17.51
1629800399218,-19.49
1629800399234,-21.01
1629800399250,-21.91
1629800399265,-22.22
1629800399281,-22.24
1629800399296,-22.38
1629800399312,-23.06
1629800399328,-24.64
1629800399343,-27.39
1629800399359,-31.37
1629800399375,-36.32
1629800399390,-41.55
1629800399406,-45.9
1629800399421,-48.03
1629800399437,-46.75
1629800399453,-41.51
1629800399468,-32.7
1629800399484,-21.54
1629800399500,-9.68
1629800399515,1.27
1629800399531,10.2
1629800399546,16.73
1629800399562,20.98
1629800399578,23.35
1629800399593,24.2
1629800399609,23.78
1629800399625,22.29
1629800399640,19.97
1629800399656,17.26
1629800399671,14.65
1629800399687,12.63
1629800399703,11.45
1629800399718,11.08
1629800399734,11.23
1629800399750,11.54
1629800399765,11.69
1629800399781,11.54
1629800399796,11.13
1629800399812,10.54
1629800399828,9.84
1629800399843,9.0
1629800399859,7.94
1629800399875,6.56
1629800399890,4.81
1629800399906,2.67
1629800399921,0.15
1629800399937,-2.76
1629800399953,-5.99
1629800399968,-9.39
1629800399984,-12.68
1629800400000,-15.54
1629800400015,-17.74
1629800400031,-19.24
1629800400046,-20.24
1629800400062,-21.1
1629800400078,-22.21
1629800400093,-23.93
1629800400109,-26.49
1629800400125,-29.99
1629800400140,-34.32
1629800400156,-39.06
1629800400171,-43.45
1629800400187,-46.37
1629800400203,-46.62
1629800400218,-43.31
1629800400234,-36.22
1629800400250,-25.98
1629800400265,-13.95
1629800400281,-1.79
1629800400296,9.0
1629800400312,17.44
1629800400328,23.21
1629800400343,26.54
1629800400359,27.94
1629800400375,27.97
1629800400390,27.04
1629800400406,25.44
1629800400421,23.42
1629800400437,21.23
1629800400453,19.25
1629800400468,17.79
1629800400484,17.06
1629800400500,16.97
1629800400515,17.24
1629800400531,17.46
1629800400546,17.33
1629800400562,16.78
1629800400578,15.94
1629800400593,15.07
1629800400609,14.32
1629800400625,13.67
1629800400640,12.93
1629800400656,11.76
1629800400671,9.94
1629800400687,7.38
1629800400703,4.25
1629800400718,0.9
1629800400734,-2.25
1629800400750,-4.8
1629800400765,-6.6
1629800400781,-7.74
1629800400796,-8.64
1629800400812,-9.76
1629800400828,-11.53
1629800400843,-14.04
1629800400859,-17.1
1629800400875,-20.28
1629800400890,-23.16
1629800400906,-25.5
1629800400921,-27.31
1629800400937,-28.85
1629800400953,-30.48
1629800400968,-32.56
1629800400984,-35.42
1629800401000,-39.25
1629800401015,-44.02
1629800401031,-49.35
1629800401046,-54.32
1629800401062,-57.59
1629800401078,-57.64
1629800401093,-53.3
1629800401109,-44.34
1629800401125,-31.57
1629800401140,-16.77
1629800401156,-2.12
1629800401171,10.5
1629800401187,19.97
1629800401203,26.14
1629800401218,29.53
1629800401234,30.96
1629800401250,31.11
1629800401265,30.36
1629800401281,28.89
1629800401296,26.95
1629800401312,24.88
1629800401328,23.19
1629800401343,22.34
1629800401359,22.48
1629800401375,23.41
1629800401390,24.6
1629800401406,25.47
1629800401421,25.64
1629800401437,25.08
1629800401453,24.07
1629800401468,22.91
1629800401484,21.86
1629800401500,20.96
1629800401515,20.12
1629800401531,19.19
1629800401546,18.03
1629800401562,16.55
1629800401578,14.66
1629800401593,12.34
1629800401609,9.61
1629800401625,6.64
1629800401640,3.69
1629800401656,1.02
1629800401671,-1.21
1629800401687,-3.02
1629800401703,-4.58
1629800401718,-6.17
1629800401734,-8.01
1629800401750,-10.23
1629800401765,-12.78
1629800401781,-15.48
1629800401796,-18.1
1629800401812,-20.49
1629800401828,-22.65
1629800401843,-24.81
1629800401859,-27.33
1629800401875,-30.59
1629800401890,-34.89
1629800401906,-40.27
1629800401921,-46.35
1629800401937,-52.31
1629800401953,-56.93
1629800401968,-58.75
1629800401984,-56.57
1629800402000,-49.82
1629800402015,-38.89
1629800402031,-25.14
1629800402046,-10.51
1629800402062,3.01
1629800402078,13.95
1629800402093,21.63
1629800402109,26.16
1629800402125,28.13
1629800402140,28.33
1629800402156,27.48
1629800402171,26.17
1629800402187,24.85
1629800402203,23.8
1629800402218,23.17
1629800402234,22.98
1629800402250,23.21
1629800402265,23.82
1629800402281,24.78
1629800402296,26.03
1629800402312,27.37
1629800402328,28.54
1629800402343,29.25
1629800402359,29.38
1629800402375,28.92
1629800402390,27.98
1629800402406,26.61
1629800402421,24.75
1629800402437,22.21
1629800402453,18.91
1629800402468,14.89
1629800402484,10.52
1629800402500,6.33
1629800402515,2.85
1629800402531,0.35
1629800402546,-1.23
1629800402562,-2.32
1629800402578,-3.54
1629800402593,-5.49
1629800402609,-8.49
1629800402625,-12.43
1629800402640,-16.81
1629800402656,-20.87
1629800402671,-24.02
1629800402687,-26.0
1629800402703,-27.08
1629800402718,-27.94
1629800402734,-29.37
1629800402750,-32.02
1629800402765,-36.21
1629800402781,-41.87
1629800402796,-48.47
1629800402812,-55.05
1629800402828,-60.25
1629800402843,-62.49
1629800402859,-60.43
1629800402875,-53.35
1629800402890,-41.63
1629800402906,-26.71
1629800402921,-10.76
1629800402937,4.04
1629800402953,16.01
1629800402968,24.39
1629800402984,29.28
1629800403000,31.36
1629800403015,31.56
1629800403031,30.74
1629800403046,29.54
1629800403062,28.36
1629800403078,27.39
1629800403093,26.69
1629800403109,26.28
1629800403125,26.17
1629800403140,26.35
1629800403156,26.76
1629800403171,27.3
1629800403187,27.77
1629800403203,27.96
1629800403218,27.67
1629800403234,26.77
1629800403250,25.2
1629800403265,22.92
1629800403281,19.98
1629800403296,16.51
1629800403312,12.73
1629800403328,8.98
1629800403343,5.49
1629800403359,2.36
1629800403375,-0.54
1629800403390,-3.48
1629800403406,-6.7
1629800403421,-10.3
1629800403437,-14.15
1629800403453,-17.97
1629800403468,-21.43
1629800403484,-24.31
1629800403500,-26.57
1629800403515,-28.38
1629800403531,-30.08
1629800403546,-32.14
1629800403562,-35.02
1629800403578,-39.06
1629800403593,-44.24
1629800403609,-49.97
1629800403625,-55.01
1629800403640,-57.73
1629800403656,-56.54
1629800403671,-50.51
1629800403687,-39.77
1629800403703,-25.58
1629800403718,-9.99
1629800403734,4.86
1629800403750,17.37
1629800403765,26.81
1629800403781,33.24
1629800403796,37.2
1629800403812,39.22
1629800403828,39.67
1629800403843,38.72
1629800403859,36.61
1629800403875,33.84
1629800403890,31.11
1629800403906,29.16
1629800403921,28.42
1629800403937,28.86
1629800403953,30.04
1629800403968,31.33
1629800403984,32.23
1629800404000,32.62
1629800404015,32.68
1629800404031,32.73
1629800404046,32.99
1629800404062,33.31
1629800404078,33.33
1629800404093,32.55
1629800404109,30.73
1629800404125,27.94
1629800404140,24.61
1629800404156,21.29
1629800404171,18.38
1629800404187,15.96
1629800404203,13.84
1629800404218,11.65
1629800404234,9.12
1629800404250,6.16
1629800404265,2.92
1629800404281,-0.31
1629800404296,-3.23
1629800404312,-5.63
1629800404328,-7.53
1629800404343,-9.18
1629800404359,-11.02
1629800404375,-13.57
1629800404390,-17.15
1629800404406,-21.75
1629800404421,-26.89
1629800404437,-31.9
1629800404453,-36.21
1629800404468,-39.6
1629800404484,-42.34
1629800404500,-44.99
1629800404515,-48.19
1629800404531,-52.34
1629800404546,-57.56
1629800404562,-63.49
1629800404578,-69.38
1629800404593,-73.94
1629800404609,-75.55
1629800404625,-72.6
1629800404640,-64.14
1629800404656,-50.36
1629800404671,-32.78
1629800404687,-13.9
1629800404703,3.61
1629800404718,17.74
1629800404734,27.65
1629800404750,33.62
1629800404765,36.61
1629800404781,37.68
1629800404796,37.62
1629800404812,36.86
1629800404828,35.62
1629800404843,34.14
1629800404859,32.73
1629800404875,31.71
1629800404890,31.27
1629800404906,31.37
1629800404921,31.73
1629800404937,31.97
1629800404953,31.84
1629800404968,31.31
1629800404984,30.55
1629800405000,29.86
1629800405015,29.44
1629800405031,29.32
1629800405046,29.28
1629800405062,29.07
1629800405078,28.35
1629800405093,26.92
1629800405109,24.73
1629800405125,21.89
1629800405140,18.71
1629800405156,15.63
1629800405171,13.11
1629800405187,11.44
1629800405203,10.67
1629800405218,10.52
1629800405234,10.54
1629800405250,10.23
1629800405265,9.31
1629800405281,7.8
1629800405296,5.96
1629800405312,4.18
1629800405328,2.67
1629800405343,1.39
1629800405359,0.06
1629800405375,-1.75
1629800405390,-4.37
1629800405406,-7.92
1629800405421,-12.16
1629800405437,-16.72
1629800405453,-21.17
1629800405468,-25.25
1629800405484,-28.93
1629800405500,-32.37
1629800405515,-35.8
1629800405531,-39.44
1629800405546,-43.52
1629800405562,-48.25
1629800405578,-53.68
1629800405593,-59.5
1629800405609,-64.84
1629800405625,-68.23
1629800405640,-67.92
1629800405656,-62.6
1629800405671,-51.9
1629800405687,-36.8
1629800405703,-19.38
1629800405718,-2.18
1629800405734,12.61
1629800405750,23.74
1629800405765,31.02
1629800405781,35.09
1629800405796,36.86
1629800405812,37.24
1629800405828,36.83
1629800405843,36.03
1629800405859,35.05
1629800405875,34.06
1629800405890,33.18
1629800405906,32.53
1629800405921,32.19
1629800405937,32.17
1629800405953,32.48
1629800405968,33.04
1629800405984,33.73
1629800406000,34.4
1629800406015,34.89
1629800406031,34.99
1629800406046,34.55
1629800406062,33.39
1629800406078,31.48
1629800406093,28.87
1629800406109,25.76
1629800406125,22.43
1629800406140,19.12
1629800406156,16.0
1629800406171,13.07
1629800406187,10.29
1629800406203,7.63
1629800406218,5.16
1629800406234,2.97
1629800406250,1.1
1629800406265,-0.56
1629800406281,-2.25
1629800406296,-4.32
1629800406312,-7.05
1629800406328,-10.48
1629800406343,-14.4
1629800406359,-18.41
1629800406375,-22.07
1629800406390,-25.11
1629800406406,-27.51
1629800406421,-29.54
1629800406437,-31.65
1629800406453,-34.33
1629800406468,-37.94
1629800406484,-42.67
1629800406500,-48.32
1629800406515,-54.34
1629800406531,-59.66
1629800406546,-62.79
1629800406562,-62.21
1629800406578,-56.78
1629800406593,-46.33
1629800406609,-31.86
1629800406625,-15.35
1629800406640,0.84
1629800406656,14.65
1629800406671,24.89
1629800406687,31.38
1629800406703,34.65
1629800406718,35.48
1629800406734,34.59
1629800406750,32.52
1629800406765,29.75
1629800406781,26.84
1629800406796,24.39
1629800406812,22.94
1629800406828,22.74
1629800406843,23.63
1629800406859,25.11
1629800406875,26.56
1629800406890,27.5
1629800406906,27.8
1629800406921,27.63
1629800406937,27.36
1629800406953,27.22
1629800406968,27.13
1629800406984,26.73
1629800407000,25.5
1629800407015,23.05
1629800407031,19.37
1629800407046,14.88
1629800407062,10.32
1629800407078,6.47
1629800407093,3.78
1629800407109,2.26
1629800407125,1.47
1629800407140,0.69
1629800407156,-0.72
1629800407171,-3.14
1629800407187,-6.53
1629800407203,-10.43
1629800407218,-14.05
1629800407234,-16.67
1629800407250,-18.07
1629800407265,-18.65
1629800407281,-19.24
1629800407296,-20.72
1629800407312,-23.64
1629800407328,-27.98
1629800407343,-32.92
1629800407359,-37.0
1629800407375,-38.6
1629800407390,-36.41
1629800407406,-29.92
1629800407421,-19.48
1629800407437,-6.05
1629800407453,9.09
1629800407468,24.47
1629800407484,39.23
1629800407500,53.16
1629800407515,66.39
1629800407531,78.75
1629800407546,89.52
1629800407562,97.71
1629800407578,102.52
1629800407593,103.81
1629800407609,101.66
1629800407625,97.71
1629800407640,95.04
1629800407656,97.08
1629800407671,105.86
1629800407687,121.13
1629800407703,139.96
1629800407718,157.27
1629800407734,167.06
1629800407750,162.63
1629800407765,141.17
1629800407781,105.32
1629800407796,61.72
1629800407812,17.22
1629800407828,-23.81
1629800407843,-60.66
1629800407859,-95.87
1629800407875,-133.54
1629800407890,-179.56
1629800407906,-235.14
1629800407921,-294.79
1629800407937,-348.52
1629800407953,-386.84
1629800407968,-403.81
1629800407984,-398.09
1629800408000,-372.77
1629800408015,-334.54
1629800408031,-295.44
1629800408046,-265.26
1629800408062,-247.8
1629800408078,-241.17
1629800408093,-241.05
1629800408109,-242.19
1629800408125,-239.09
1629800408140,-227.28
1629800408156,-183.78
1629800408171,-105.79
1629800408187,-14.29
1629800408203,63.16
1629800408218,113.97
1629800408234,140.91
1629800408250,152.47
1629800408265,155.68
1629800408281,153.79
1629800408296,147.29
1629800408312,132.76
1629800408328,110.15
1629800408343,84.54
1629800408359,63.65
1629800408375,52.15
1629800408390,50.52
1629800408406,55.58
1629800408421,63.11
1629800408437,69.62
1629800408453,70.72
1629800408468,65.41
1629800408484,56.81
1629800408500,50.36
1629800408515,49.46
1629800408531,54.66
1629800408546,64.72
1629800408562,77.91
1629800408578,92.7
1629800408593,106.38
1629800408609,118.02
1629800408625,123.98
1629800408640,123.72
1629800408656,117.02
1629800408671,104.15
1629800408687,86.45
1629800408703,66.39
1629800408718,46.72
1629800408734,28.78
1629800408750,13.15
1629800408765,0.13
1629800408781,-9.43
1629800408796,-15.44
1629800408812,-18.39
1629800408828,-19.18
1629800408843,-18.91
1629800408859,-18.78
1629800408875,-20.03
1629800408890,-23.29
1629800408906,-28.32
1629800408921,-33.71
1629800408937,-38.18
1629800408953,-41.04
1629800408968,-42.21
1629800408984,-42.05
1629800409000,-41.04
1629800409015,-39.4
1629800409031,-37.01
1629800409046,-33.52
1629800409062,-28.37
1629800409078,-21.44
1629800409093,-13.27
1629800409109,-4.84
1629800409125,2.72
1629800409140,8.53
1629800409156,12.18
1629800409171,13.88
1629800409187,14.17
1629800409203,13.91
1629800409218,13.79
1629800409234,14.15
1629800409250,15.03
1629800409265,16.24
1629800409281,17.5
1629800409296,18.57
1629800409312,19.23
1629800409328,19.34
1629800409343,18.84
1629800409359,17.79
1629800409375,16.38
1629800409390,14.94
1629800409406,13.87
1629800409421,13.44
1629800409437,13.78
1629800409453,14.71
1629800409468,15.91
1629800409484,16.96
1629800409500,17.5
1629800409515,17.32
1629800409531,16.44
1629800409546,15.11
1629800409562,13.71
1629800409578,12.66
1629800409593,12.22
1629800409609,12.37
1629800409625,12.84
1629800409640,13.09
1629800409656,12.5
1629800409671,10.65
1629800409687,7.52
1629800409703,3.53
1629800409718,-0.63
1629800409734,-4.26
1629800409750,-6.85
1629800409765,-8.02
1629800409781,-7.64
1629800409796,-5.75
1629800409812,-2.52
1629800409828,1.88
1629800409843,7.2
1629800409859,13.15
1629800409875,19.38
1629800409890,25.56
1629800409906,31.65
1629800409921,37.58
1629800409937,43.17
1629800409953,48.06
1629800409968,51.88
1629800409984,54.41
1629800410000,55.64
1629800410015,55.86
1629800410031,55.52
1629800410046,55.51
1629800410062,56.27
1629800410078,57.44
1629800410093,58.11
1629800410109,57.5
1629800410125,55.43
1629800410140,52.39
1629800410156,49.35
1629800410171,47.33
1629800410187,48.06
1629800410203,52.22
1629800410218,59.03
1629800410234,66.7
1629800410250,73.62
1629800410265,79.03
1629800410281,83.14
1629800410296,86.72
1629800410312,90.75
1629800410328,97.55
1629800410343,108.14
1629800410359,121.56
1629800410375,135.33
1629800410390,146.94
1629800410406,154.8
1629800410421,158.09
1629800410437,156.49
1629800410453,150.06
1629800410468,141.4
1629800410484,132.77
1629800410500,125.18
1629800410515,118.48
1629800410531,112.16
1629800410546,105.55
1629800410562,97.18
1629800410578,84.76
1629800410593,53.52
1629800410609,-0.98
1629800410625,-70.29
1629800410640,-137.72
1629800410656,-189.55
1629800410671,-220.41
1629800410687,-231.21
1629800410703,-225.96
1629800410718,-209.58
1629800410734,-187.18
1629800410750,-161.63
1629800410765,-136.42
1629800410781,-115.69
1629800410796,-102.82
1629800410812,-98.2
1629800410828,-98.62
1629800410843,-99.22
1629800410859,-95.83
1629800410875,-86.68
1629800410890,-71.42
1629800410906,-52.38
1629800410921,-33.59
1629800410937,-18.93
1629800410953,-10.59
1629800410968,-8.26
1629800410984,-10.08
1629800411000,-13.65
1629800411015,-16.99
1629800411031,-17.95
1629800411046,-15.47
1629800411062,-9.77
1629800411078,-2.01
1629800411093,6.32
1629800411109,13.82
1629800411125,18.95
1629800411140,20.53
1629800411156,18.42
1629800411171,14.26
1629800411187,10.62
1629800411203,9.69
1629800411218,12.02
1629800411234,15.92
1629800411250,18.9
1629800411265,17.03
1629800411281,7.02
1629800411296,-12.21
1629800411312,-38.79
1629800411328,-68.72
1629800411343,-97.41
1629800411359,-121.11
1629800411375,-137.52
1629800411390,-145.79
1629800411406,-146.21
1629800411421,-139.52
1629800411437,-126.76
1629800411453,-109.33
1629800411468,-89.03
1629800411484,-67.92
1629800411500,-48.01
1629800411515,-30.78
1629800411531,-16.92
1629800411546,-6.37
1629800411562,1.65
1629800411578,8.29
1629800411593,14.59
1629800411609,21.1
1629800411625,27.83
1629800411640,34.25
1629800411656,39.67
1629800411671,43.52
1629800411687,45.59
1629800411703,46.16
1629800411718,45.85
1629800411734,45.29
1629800411750,44.83
1629800411765,44.45
1629800411781,43.8
1629800411796,42.49
1629800411812,40.37
1629800411828,37.55
1629800411843,34.41
1629800411859,31.38
1629800411875,28.73
1629800411890,26.47
1629800411906,24.4
1629800411921,22.26
1629800411937,19.94
1629800411953,17.48
1629800411968,15.04
1629800411984,12.72
1629800412000,10.53
1629800412015,8.33
1629800412031,5.99
1629800412046,3.41
1629800412062,0.69
1629800412078,-1.99
1629800412093,-4.41
1629800412109,-6.41
1629800412125,-8.03
1629800412140,-9.44
1629800412156,-10.95
1629800412171,-12.95
1629800412187,-15.72
1629800412203,-19.41
1629800412218,-23.83
1629800412234,-28.44
1629800412250,-32.32
1629800412265,-34.41
1629800412281,-33.73
1629800412296,-29.82
1629800412312,-22.85
1629800412328,-13.7
1629800412343,-3.68
1629800412359,5.81
1629800412375,13.74
1629800412390,19.66
1629800412406,23.63
1629800412421,26.07
1629800412437,27.42
1629800412453,27.97
1629800412468,27.79
1629800412484,26.91
1629800412500,25.38
1629800412515,23.47
1629800412531,21.51
1629800412546,19.83
1629800412562,18.63
1629800412578,17.9
1629800412593,17.47
1629800412609,17.17
1629800412625,16.9
1629800412640,16.61
1629800412656,16.25
1629800412671,15.74
1629800412687,14.96
1629800412703,13.76
1629800412718,12.1
1629800412734,10.01
1629800412750,7.65
1629800412765,5.21
1629800412781,2.85
1629800412796,0.71
1629800412812,-1.23
1629800412828,-3.0
1629800412843,-4.77
1629800412859,-6.71
1629800412875,-8.93
1629800412890,-11.35
1629800412906,-13.78
1629800412921,-15.95
1629800412937,-17.7
1629800412953,-19.12
1629800412968,-20.55
1629800412984,-22.47
1629800413000,-25.17
1629800413015,-28.62
1629800413031,-32.29
1629800413046,-35.24
1629800413062,-36.4
1629800413078,-34.89
1629800413093,-30.36
1629800413109,-23.15
1629800413125,-14.23
1629800413140,-4.89
1629800413156,3.64
1629800413171,10.56
1629800413187,15.68
1629800413203,19.2
1629800413218,21.49
1629800413234,22.79
1629800413250,23.15
1629800413265,22.51
1629800413281,20.98
1629800413296,18.89
1629800413312,16.78
1629800413328,15.17
1629800413343,14.34
1629800413359,14.28
1629800413375,14.69
1629800413390,15.23
1629800413406,15.65
1629800413421,15.82
1629800413437,15.76
1629800413453,15.48
1629800413468,14.93
1629800413484,13.96
1629800413500,12.43
1629800413515,10.28
1629800413531,7.6
1629800413546,4.62
1629800413562,1.64
1629800413578,-1.11
1629800413593,-3.52
1629800413609,-5.66
1629800413625,-7.65
1629800413640,-9.65
1629800413656,-11.69
1629800413671,-13.74
1629800413687,-15.71
1629800413703,-17.51
1629800413718,-19.16
1629800413734,-20.79
1629800413750,-22.63
1629800413765,-24.9
1629800413781,-27.75
1629800413796,-31.17
1629800413812,-34.83
1629800413828,-38.1
1629800413843,-40.09
1629800413859,-39.96
1629800413875,-37.09
1629800413890,-31.39
1629800413906,-23.34
1629800413921,-13.89
1629800413937,-4.21
1629800413953,4.65
1629800413968,11.91
1629800413984,17.27
1629800414000,20.74
1629800414015,22.55
1629800414031,23.02
1629800414046,22.44
1629800414062,21.14
1629800414078,19.44
1629800414093,17.72
1629800414109,16.29
1629800414125,15.42
1629800414140,15.11
1629800414156,15.19
1629800414171,15.34
1629800414187,15.32
1629800414203,15.03
1629800414218,14.58
1629800414234,14.13
1629800414250,13.74
1629800414265,13.28
1629800414281,12.46
1629800414296,11.0
1629800414312,8.78
1629800414328,5.99
1629800414343,3.02
1629800414359,0.27
1629800414375,-1.95
1629800414390,-3.6
1629800414406,-4.9
1629800414421,-6.16
1629800414437,-7.73
1629800414453,-9.74
1629800414468,-12.19
1629800414484,-14.84
1629800414500,-17.42
1629800414515,-19.65
1629800414531,-21.44
1629800414546,-22.92
1629800414562,-24.32
1629800414578,-25.98
1629800414593,-28.24
1629800414609,-31.33
1629800414625,-35.25
1629800414640,-39.55
1629800414656,-43.31
1629800414671,-45.24
1629800414687,-44.13
1629800414703,-39.2
1629800414718,-30.64
1629800414734,-19.56
1629800414750,-7.73
1629800414765,3.07
1629800414781,11.56
1629800414796,17.29
1629800414812,20.55
1629800414828,21.93
1629800414843,22.05
1629800414859,21.32
1629800414875,19.98
1629800414890,18.25
1629800414906,16.44
1629800414921,14.87
1629800414937,13.78
1629800414953,13.21
1629800414968,13.02
1629800414984,12.95
1629800415000,12.8
1629800415015,12.52
1629800415031,12.18
1629800415046,11.92
1629800415062,11.77
1629800415078,11.58
1629800415093,11.12
1629800415109,10.2
1629800415125,8.75
1629800415140,6.86
1629800415156,4.74
1629800415171,2.57
1629800415187,0.38
1629800415203,-1.92
1629800415218,-4.48
1629800415234,-7.39
1629800415250,-10.63
1629800415265,-14.07
1629800415281,-17.48
1629800415296,-20.66
1629800415312,-23.45
1629800415328,-25.84
1629800415343,-27.93
1629800415359,-29.9
1629800415375,-32.05
1629800415390,-34.69
1629800415406,-38.03
1629800415421,-41.92
1629800415437,-45.75
1629800415453,-48.41
1629800415468,-48.6
1629800415484,-45.33
1629800415500,-38.33
1629800415515,-28.27
1629800415531,-16.64
1629800415546,-5.16
1629800415562,4.71
1629800415578,12.17
1629800415593,17.21
1629800415609,20.18
1629800415625,21.55
1629800415640,21.57
1629800415656,20.43
1629800415671,18.32
1629800415687,15.68
1629800415703,13.16
1629800415718,11.37
1629800415734,10.65
1629800415750,10.92
1629800415765,11.69
1629800415781,12.42
1629800415796,12.76
1629800415812,12.7
1629800415828,12.51
1629800415843,12.49
1629800415859,12.73
1629800415875,13.0
1629800415890,12.85
1629800415906,11.85
1629800415921,9.79
1629800415937,6.74
1629800415953,3.07
1629800415968,-0.77
1629800415984,-4.35
1629800416000,-7.4
1629800416015,-9.81
1629800416031,-11.65
1629800416046,-13.18
1629800416062,-14.7
1629800416078,-16.57
1629800416093,-19.1
1629800416109,-22.35
1629800416125,-26.1
1629800416140,-29.69
1629800416156,-32.08
1629800416171,-32.14
1629800416187,-28.97
1629800416203,-22.37
1629800416218,-12.97
1629800416234,-2.12
1629800416250,8.57
1629800416265,17.68
1629800416281,24.37
1629800416296,28.46
1629800416312,30.28
1629800416328,30.3
1629800416343,28.96
1629800416359,26.59
1629800416375,23.49
1629800416390,19.98
1629800416406,16.46
1629800416421,13.31
1629800416437,10.83
1629800416453,9.16
1629800416468,8.26
1629800416484,7.92
1629800416500,7.83
1629800416515,7.67
1629800416531,7.19
1629800416546,6.3
1629800416562,4.98
1629800416578,3.33
1629800416593,1.36
1629800416609,-0.89
1629800416625,-3.44
1629800416640,-6.27
1629800416656,-9.24
1629800416671,-12.19
1629800416687,-15.06
1629800416703,-17.92
1629800416718,-21.07
1629800416734,-24.83
1629800416750,-29.34
1629800416765,-34.3
1629800416781,-38.89
1629800416796,-41.91
1629800416812,-42.13
1629800416828,-38.7
1629800416843,-31.5
1629800416859,-21.28
1629800416875,-9.47
1629800416890,2.26
1629800416906,12.47
1629800416921,20.3
1629800416937,25.55
1629800416953,28.52
1629800416968,29.69
1629800416984,29.5
1629800417000,28.22
1629800417015,26.04
1629800417031,23.12
1629800417046,19.71
1629800417062,16.12
1629800417078,12.75
1629800417093,9.92
1629800417109,7.91
1629800417125,6.81
1629800417140,6.47
1629800417156,6.55
1629800417171,6.56
1629800417187,6.09
1629800417203,4.9
1629800417218,3.09
1629800417234,0.87
1629800417250,-1.57
1629800417265,-4.17
1629800417281,-7.06
1629800417296,-10.39
1629800417312,-14.2
1629800417328,-18.37
1629800417343,-22.73
1629800417359,-27.17
1629800417375,-31.72
1629800417390,-36.38
1629800417406,-40.8
1629800417421,-44.16
1629800417437,-45.28
1629800417453,-43.0
1629800417468,-36.76
1629800417484,-26.91
1629800417500,-14.71
1629800417515,-1.93
1629800417531,9.76
1629800417546,19.22
1629800417562,26.04
1629800417578,30.34
1629800417593,32.46
1629800417609,32.74
1629800417625,31.42
1629800417640,28.73
1629800417656,25.09
1629800417671,21.11
1629800417687,17.48
1629800417703,14.77
1629800417718,13.18
1629800417734,12.57
1629800417750,12.55
1629800417765,12.73
1629800417781,12.9
1629800417796,13.03
1629800417812,13.11
1629800417828,13.02
1629800417843,12.39
1629800417859,10.81
1629800417875,8.02
1629800417890,4.06
1629800417906,-0.59
1629800417921,-5.32
1629800417937,-9.5
1629800417953,-12.83
1629800417968,-15.31
1629800417984,-17.36
1629800418000,-19.56
1629800418015,-22.54
1629800418031,-26.7
1629800418046,-31.94
1629800418062,-37.57
1629800418078,-42.32
1629800418093,-44.65
1629800418109,-43.19
1629800418125,-37.35
1629800418140,-27.5
1629800418156,-14.95
1629800418171,-1.56
1629800418187,10.88
1629800418203,21.07
1629800418218,28.43
1629800418234,32.95
1629800418250,34.95
1629800418265,34.85
1629800418281,33.06
1629800418296,30.05
1629800418312,26.38
1629800418328,22.72
1629800418343,19.72
1629800418359,17.81
1629800418375,17.05
1629800418390,17.15
1629800418406,17.6
1629800418421,17.93
1629800418437,17.85
1629800418453,17.37
1629800418468,16.66
1629800418484,15.92
1629800418500,15.23
1629800418515,14.42
1629800418531,13.18
1629800418546,11.2
1629800418562,8.3
1629800418578,4.55
1629800418593,0.3
1629800418609,-4.0
1629800418625,-7.98
1629800418640,-11.41
1629800418656,-14.36
1629800418671,-17.09
1629800418687,-19.94
1629800418703,-23.29
1629800418718,-27.36
1629800418734,-32.15
1629800418750,-37.29
1629800418765,-41.99
1629800418781,-45.12
1629800418796,-45.54
1629800418812,-42.35
1629800418828,-35.28
1629800418843,-24.9
1629800418859,-12.47
1629800418875,0.4
1629800418890,12.14
1629800418906,21.63
1629800418921,28.33
1629800418937,32.2
1629800418953,33.53
1629800418968,32.79
1629800418984,30.5
1629800419000,27.22
1629800419015,23.56
1629800419031,20.09
1629800419046,17.33
1629800419062,15.58
1629800419078,14.89
1629800419093,15.08
1629800419109,15.83
1629800419125,16.76
1629800419140,17.57
1629800419156,18.07
1629800419171,18.16
1629800419187,17.77
1629800419203,16.88
1629800419218,15.41
1629800419234,13.29
1629800419250,10.46
1629800419265,7.01
1629800419281,3.13
1629800419296,-0.87
1629800419312,-4.69
1629800419328,-8.16
1629800419343,-11.36
1629800419359,-14.62
1629800419375,-18.39
1629800419390,-22.91
1629800419406,-27.91
1629800419421,-32.51
1629800419437,-35.39
1629800419453,-35.2
1629800419468,-31.07
1629800419484,-23.1
1629800419500,-12.3
1629800419515,-0.31
1629800419531,11.1
1629800419546,20.65
1629800419562,27.68
1629800419578,32.16
1629800419593,34.37
1629800419609,34.66
1629800419625,33.34
1629800419640,30.72
1629800419656,27.21
1629800419671,23.38
1629800419687,19.82
1629800419703,17.07
1629800419718,15.39
1629800419734,14.72
1629800419750,14.75
1629800419765,15.01
1629800419781,15.05
1629800419796,14.58
1629800419812,13.47
1629800419828,11.77
1629800419843,9.61
1629800419859,7.16
1629800419875,4.52
1629800419890,1.69
1629800419906,-1.34
1629800419921,-4.57
1629800419937,-8.01
1629800419953,-11.69
1629800419968,-15.64
1629800419984,-19.85
1629800420000,-24.21
1629800420015,-28.29
1629800420031,-31.39
1629800420046,-32.57
1629800420062,-30.93
1629800420078,-25.98
1629800420093,-17.88
1629800420109,-7.49
1629800420125,3.76
1629800420140,14.31
1629800420156,22.84
1629800420171,28.55
1629800420187,31.35
1629800420203,31.67
1629800420218,30.2
1629800420234,27.65
1629800420250,24.54
1629800420265,21.21
1629800420281,17.89
1629800420296,14.8
1629800420312,12.2
1629800420328,10.36
1629800420343,9.41
1629800420359,9.25
1629800420375,9.56
1629800420390,9.92
1629800420406,9.93
1629800420421,9.4
1629800420437,8.29
1629800420453,6.72
1629800420468,4.81
1629800420484,2.63
1629800420500,0.2
1629800420515,-2.48
1629800420531,-5.36
1629800420546,-8.38
1629800420562,-11.49
1629800420578,-14.67
1629800420593,-18.0
1629800420609,-21.56
1629800420625,-25.35
1629800420640,-29.11
1629800420656,-32.25
1629800420671,-33.9
1629800420687,-33.13
1629800420703,-29.32
1629800420718,-22.44
1629800420734,-13.16
1629800420750,-2.7
1629800420765,7.5
1629800420781,16.21
1629800420796,22.68
1629800420812,26.75
1629800420828,28.67
1629800420843,28.89
1629800420859,27.86
1629800420875,25.89
1629800420890,23.29
1629800420906,20.37
1629800420921,17.48
1629800420937,15.06
1629800420953,13.45
1629800420968,12.78
1629800420984,12.94
1629800421000,13.59
1629800421015,14.32
1629800421031,14.81
1629800421046,14.96
1629800421062,14.81
1629800421078,14.51
1629800421093,14.1
1629800421109,13.54
1629800421125,12.68
1629800421140,11.38
1629800421156,9.55
1629800421171,7.28
1629800421187,4.78
1629800421203,2.27
1629800421218,0.02
1629800421234,-1.86
1629800421250,-3.32
1629800421265,-4.49
1629800421281,-5.56
1629800421296,-6.78
1629800421312,-8.36
1629800421328,-10.38
1629800421343,-12.8
1629800421359,-15.43
1629800421375,-18.04
1629800421390,-20.42
1629800421406,-22.46
1629800421421,-24.15
1629800421437,-25.54
1629800421453,-26.75
1629800421468,-27.98
1629800421484,-29.48
1629800421500,-31.53
1629800421515,-34.27
1629800421531,-37.52
1629800421546,-40.62
1629800421562,-42.47
1629800421578,-41.82
1629800421593,-37.73
1629800421609,-29.99
1629800421625,-19.34
1629800421640,-7.26
1629800421656,4.49
1629800421671,14.42
1629800421687,21.69
1629800421703,26.13
1629800421718,28.04
1629800421734,27.87
1629800421750,26.08
1629800421765,23.03
1629800421781,19.22
1629800421796,15.24
1629800421812,11.8
1629800421828,9.5
1629800421843,8.66
1629800421859,9.15
1629800421875,10.49
1629800421890,12.04
1629800421906,13.2
1629800421921,13.67
1629800421937,13.45
1629800421953,12.75
1629800421968,11.85
1629800421984,10.93
1629800422000,9.95
1629800422015,8.74
1629800422031,7.12
1629800422046,5.01
1629800422062,2.5
1629800422078,-0.12
1629800422093,-2.53
1629800422109,-4.52
1629800422125,-6.11
1629800422140,-7.52
1629800422156,-9.04
1629800422171,-10.86
1629800422187,-13.03
1629800422203,-15.4
1629800422218,-17.72
1629800422234,-19.76
1629800422250,-21.41
1629800422265,-22.75
1629800422281,-23.96
1629800422296,-25.29
1629800422312,-26.98
1629800422328,-29.11
1629800422343,-31.5
1629800422359,-33.62
1629800422375,-34.7
1629800422390,-33.86
1629800422406,-30.43
1629800422421,-24.22
1629800422437,-15.68
1629800422453,-5.83
1629800422468,4.04
1629800422484,12.68
1629800422500,19.21
1629800422515,23.25
1629800422531,24.88
1629800422546,24.52
1629800422562,22.71
1629800422578,20.0
1629800422593,16.9
1629800422609,13.91
1629800422625,11.47
1629800422640,9.93
1629800422656,9.44
1629800422671,9.86
1629800422687,10.84
1629800422703,11.89
1629800422718,12.6
1629800422734,12.75
1629800422750,12.36
1629800422765,11.57
1629800422781,10.53
1629800422796,9.34
1629800422812,7.95
1629800422828,6.32
1629800422843,4.4
1629800422859,2.25
1629800422875,-0.03
1629800422890,-2.32
1629800422906,-4.45
1629800422921,-6.27
1629800422937,-7.63
1629800422953,-8.55
1629800422968,-9.19
1629800422984,-9.9
1629800423000,-11.02
1629800423015,-12.74
1629800423031,-15.0
1629800423046,-17.44
1629800423062,-19.63
1629800423078,-21.25
1629800423093,-22.24
1629800423109,-22.85
1629800423125,-23.51
1629800423140,-24.7
1629800423156,-26.77
1629800423171,-29.83
1629800423187,-33.6
1629800423203,-37.4
1629800423218,-40.13
1629800423234,-40.57
1629800423250,-37.76
1629800423265,-31.37
1629800423281,-21.97
1629800423296,-10.83
1629800423312,0.35
1629800423328,10.08
1629800423343,17.34
1629800423359,21.84
1629800423375,23.8
1629800423390,23.74
1629800423406,22.23
1629800423421,19.79
1629800423437,16.91
1629800423453,14.02
1629800423468,11.55
1629800423484,9.78
1629800423500,8.88
1629800423515,8.78
1629800423531,9.27
1629800423546,10.05
1629800423562,10.81
1629800423578,11.3
1629800423593,11.35
1629800423609,10.9
1629800423625,9.93
1629800423640,8.5
1629800423656,6.77
1629800423671,4.91
1629800423687,3.13
1629800423703,1.54
1629800423718,0.11
1629800423734,-1.31
1629800423750,-2.92
1629800423765,-4.86
1629800423781,-7.11
1629800423796,-9.53
1629800423812,-11.87
1629800423828,-13.88
1629800423843,-15.46
1629800423859,-16.61
1629800423875,-17.57
1629800423890,-18.65
1629800423906,-20.23
1629800423921,-22.64
1629800423937,-25.98
1629800423953,-29.94
1629800423968,-33.79
1629800423984,-36.46
1629800424000,-36.78
1629800424015,-33.95
1629800424031,-27.81
1629800424046,-18.95
1629800424062,-8.63
1629800424078,1.62
1629800424093,10.44
1629800424109,16.94
1629800424125,20.89
1629800424140,22.55
1629800424156,22.45
1629800424171,21.11
1629800424187,18.92
1629800424203,16.17
1629800424218,13.19
1629800424234,10.39
1629800424250,8.26
1629800424265,7.2
1629800424281,7.36
1629800424296,8.49
1629800424312,10.08
1629800424328,11.5
1629800424343,12.29
1629800424359,12.28
1629800424375,11.59
1629800424390,10.42
1629800424406,9.0
1629800424421,7.39
1629800424437,5.55
1629800424453,3.47
1629800424468,1.15
1629800424484,-1.36
1629800424500,-3.96
1629800424515,-6.63
1629800424531,-9.3
1629800424546,-11.88
1629800424562,-14.24
1629800424578,-16.25
1629800424593,-17.91
1629800424609,-19.38
1629800424625,-20.98
1629800424640,-23.07
1629800424656,-25.93
1629800424671,-29.59
1629800424687,-33.8
1629800424703,-38.02
1629800424718,-41.38
1629800424734,-42.89
1629800424750,-41.63
1629800424765,-37.07
1629800424781,-29.28
1629800424796,-18.99
1629800424812,-7.55
1629800424828,3.59
1629800424843,13.14
1629800424859,20.36
1629800424875,25.03
1629800424890,27.4
1629800424906,27.87
1629800424921,26.91
1629800424937,24.98
1629800424953,22.59
1629800424968,20.23
1629800424984,18.41
1629800425000,17.51
1629800425015,17.62
1629800425031,18.53
1629800425046,19.81
1629800425062,20.9
1629800425078,21.39
1629800425093,21.1
1629800425109,20.18
1629800425125,18.95
1629800425140,17.73
1629800425156,16.66
1629800425171,15.65
1629800425187,14.49
1629800425203,12.94
1629800425218,10.93
1629800425234,8.55
1629800425250,6.02
1629800425265,3.56
1629800425281,1.25
1629800425296,-0.92
1629800425312,-3.05
1629800425328,-5.32
1629800425343,-7.81
1629800425359,-10.57
1629800425375,-13.51
1629800425390,-16.5
1629800425406,-19.33
1629800425421,-21.85
1629800425437,-24.04
1629800425453,-26.09
1629800425468,-28.34
1629800425484,-31.22
1629800425500,-35.03
1629800425515,-39.74
1629800425531,-44.81
1629800425546,-49.22
1629800425562,-51.67
1629800425578,-50.93
1629800425593,-46.26
1629800425609,-37.75
1629800425625,-26.29
1629800425640,-13.35
1629800425656,-0.62
1629800425671,10.53
1629800425687,19.31
1629800425703,25.53
1629800425718,29.45
1629800425734,31.55
1629800425750,32.23
1629800425765,31.8
1629800425781,30.45
1629800425796,28.44
1629800425812,26.18
1629800425828,24.16
1629800425843,22.9
1629800425859,22.67
1629800425875,23.4
1629800425890,24.64
1629800425906,25.82
1629800425921,26.42
1629800425937,26.29
1629800425953,25.63
1629800425968,24.86
1629800425984,24.32
1629800426000,24.06
1629800426015,23.78
1629800426031,23.01
1629800426046,21.41
1629800426062,18.89
1629800426078,15.72
1629800426093,12.39
1629800426109,9.4
1629800426125,7.02
1629800426140,5.19
1629800426156,3.61
1629800426171,1.8
1629800426187,-0.61
1629800426203,-3.74
1629800426218,-7.42
1629800426234,-11.27
1629800426250,-14.89
1629800426265,-18.03
1629800426281,-20.63
1629800426296,-22.85
1629800426312,-25.0
1629800426328,-27.4
1629800426343,-30.35
1629800426359,-34.07
1629800426375,-38.66
1629800426390,-43.96
1629800426406,-49.39
1629800426421,-53.93
1629800426437,-56.25
1629800426453,-55.03
1629800426468,-49.51
1629800426484,-39.82
1629800426500,-27.05
1629800426515,-12.94
1629800426531,0.6
1629800426546,12.09
1629800426562,20.77
1629800426578,26.62
1629800426593,30.1
1629800426609,31.81
1629800426625,32.19
1629800426640,31.47
1629800426656,29.84
1629800426671,27.56
1629800426687,25.18
1629800426703,23.32
1629800426718,22.53
1629800426734,22.98
1629800426750,24.37
1629800426765,26.08
1629800426781,27.48
1629800426796,28.27
1629800426812,28.57
1629800426828,28.75
1629800426843,29.08
1629800426859,29.52
1629800426875,29.62
1629800426890,28.83
1629800426906,26.8
1629800426921,23.59
1629800426937,19.66
1629800426953,15.64
1629800426968,12.07
1629800426984,9.11
1629800427000,6.64
1629800427015,4.34
1629800427031,1.86
1629800427046,-0.97
1629800427062,-4.13
1629800427078,-7.39
1629800427093,-10.48
1629800427109,-13.18
1629800427125,-15.53
1629800427140,-17.75
1629800427156,-20.2
1629800427171,-23.29
1629800427187,-27.29
1629800427203,-32.2
1629800427218,-37.72
1629800427234,-43.2
1629800427250,-47.61
1629800427265,-49.81
1629800427281,-48.71
1629800427296,-43.7
1629800427312,-34.91
1629800427328,-23.27
1629800427343,-10.31
1629800427359,2.26
1629800427375,13.05
1629800427390,21.25
1629800427406,26.73
1629800427421,29.83
1629800427437,31.14
1629800427453,31.16
1629800427468,30.3
1629800427484,28.79
1629800427500,26.86
1629800427515,24.74
1629800427531,22.77
1629800427546,21.31
1629800427562,20.63
1629800427578,20.82
1629800427593,21.73
1629800427609,22.97
1629800427625,24.09
1629800427640,24.66
1629800427656,24.46
1629800427671,23.47
1629800427687,21.78
1629800427703,19.56
1629800427718,16.92
1629800427734,13.94
1629800427750,10.7
1629800427765,7.23
1629800427781,3.64
1629800427796,0.11
1629800427812,-3.22
1629800427828,-6.25
1629800427843,-8.99
1629800427859,-11.54
1629800427875,-14.03
1629800427890,-16.59
1629800427906,-19.26
1629800427921,-22.15
1629800427937,-25.34
1629800427953,-29.03
1629800427968,-33.34
1629800427984,-38.18
1629800428000,-42.98
1629800428015,-46.69
1629800428031,-47.99
1629800428046,-45.7
1629800428062,-39.3
1629800428078,-29.17
1629800428093,-16.53
1629800428109,-3.09
1629800428125,9.42
1629800428140,19.71
1629800428156,27.08
1629800428171,31.49
1629800428187,33.36
1629800428203,33.33
1629800428218,32.07
1629800428234,30.16
1629800428250,28.05
1629800428265,26.06
1629800428281,24.46
1629800428296,23.44
1629800428312,23.14
1629800428328,23.57
1629800428343,24.51
1629800428359,25.59
1629800428375,26.37
1629800428390,26.53
1629800428406,25.97
1629800428421,24.85
1629800428437,23.41
1629800428453,21.84
1629800428468,20.16
1629800428484,18.24
1629800428500,15.9
1629800428515,13.08
1629800428531,9.92
1629800428546,6.69
1629800428562,3.66
1629800428578,0.9
1629800428593,-1.73
1629800428609,-4.49
1629800428625,-7.56
1629800428640,-10.93
1629800428656,-14.37
1629800428671,-17.6
1629800428687,-20.43
1629800428703,-22.93
1629800428718,-25.41
1629800428734,-28.33
1629800428750,-32.07
1629800428765,-36.8
1629800428781,-42.33
1629800428796,-48.03
1629800428812,-52.94
1629800428828,-55.82
1629800428843,-55.5
1629800428859,-51.19
1629800428875,-42.86
1629800428890,-31.31
1629800428906,-18.03
1629800428921,-4.77
1629800428937,7.02
1629800428953,16.52
1629800428968,23.61
1629800428984,28.61
1629800429000,31.96
1629800429015,33.96
1629800429031,34.7
1629800429046,34.26
1629800429062,32.85
1629800429078,30.92
1629800429093,29.08
1629800429109,27.9
1629800429125,27.68
1629800429140,28.37
1629800429156,29.59
1629800429171,30.82
1629800429187,31.61
1629800429203,31.69
1629800429218,31.09
1629800429234,29.96
1629800429250,28.52
1629800429265,26.84
1629800429281,24.87
1629800429296,22.48
1629800429312,19.62
1629800429328,16.4
1629800429343,13.12
1629800429359,10.11
1629800429375,7.57
1629800429390,5.49
1629800429406,3.62
1629800429421,1.6
1629800429437,-0.86
1629800429453,-3.89
1629800429468,-7.43
1629800429484,-11.27
1629800429500,-15.11
1629800429515,-18.71
1629800429531,-21.92
1629800429546,-24.68
1629800429562,-27.08
1629800429578,-29.35
1629800429593,-31.82
1629800429609,-34.9
1629800429625,-38.93
1629800429640,-44.03
1629800429656,-49.85
1629800429671,-55.5
1629800429687,-59.55
1629800429703,-60.42
1629800429718,-56.87
1629800429734,-48.53
1629800429750,-36.11
1629800429765,-21.34
1629800429781,-6.34
1629800429796,6.99
1629800429812,17.47
1629800429828,24.81
1629800429843,29.39
1629800429859,31.9
1629800429875,32.89
1629800429890,32.71
1629800429906,31.56
1629800429921,29.69
1629800429937,27.52
1629800429953,25.63
1629800429968,24.54
1629800429984,24.52
1629800430000,25.43
1629800430015,26.79
1629800430031,27.96
1629800430046,28.45
1629800430062,28.12
1629800430078,27.19
1629800430093,26.06
1629800430109,25.08
1629800430125,24.34
1629800430140,23.62
1629800430156,22.62
1629800430171,21.03
1629800430187,18.81
1629800430203,16.11
1629800430218,13.26
1629800430234,10.61
1629800430250,8.34
1629800430265,6.47
1629800430281,4.81
1629800430296,3.09
1629800430312,0.97
1629800430328,-1.71
1629800430343,-4.98
1629800430359,-8.63
1629800430375,-12.34
1629800430390,-15.82
1629800430406,-18.9
1629800430421,-21.59
1629800430437,-24.06
1629800430453,-26.56
1629800430468,-29.33
1629800430484,-32.62
1629800430500,-36.61
1629800430515,-41.29
1629800430531,-46.33
1629800430546,-50.89
1629800430562,-53.71
1629800430578,-53.46
1629800430593,-49.15
1629800430609,-40.61
1629800430625,-28.71
1629800430640,-15.03
1629800430656,-1.45
1629800430671,10.46
1629800430687,19.81
1629800430703,26.38
1629800430718,30.45
1629800430734,32.44
1629800430750,32.79
1629800430765,31.81
1629800430781,29.8
1629800430796,27.18
1629800430812,24.48
1629800430828,22.21
1629800430843,20.83
1629800430859,20.49
1629800430875,21.1
1629800430890,22.35
1629800430906,23.83
1629800430921,25.18
1629800430937,26.08
1629800430953,26.34
1629800430968,25.82
1629800430984,24.48
1629800431000,22.36
1629800431015,19.63
1629800431031,16.53
1629800431046,13.33
1629800431062,10.2
1629800431078,7.19
1629800431093,4.26
1629800431109,1.31
1629800431125,-1.75
1629800431140,-4.99
1629800431156,-8.43
1629800431171,-12.06
1629800431187,-15.82
1629800431203,-19.59
1629800431218,-23.18
1629800431234,-26.44
1629800431250,-29.34
1629800431265,-32.1
1629800431281,-35.09
1629800431296,-38.61
1629800431312,-42.57
1629800431328,-46.34
1629800431343,-48.74
1629800431359,-48.47
1629800431375,-44.56
1629800431390,-36.8
1629800431406,-25.97
1629800431421,-13.5
1629800431437,-1.11
1629800431453,9.75
1629800431468,18.21
1629800431484,24.06
1629800431500,27.55
1629800431515,29.1
1629800431531,29.11
1629800431546,27.94
1629800431562,25.93
1629800431578,23.56
1629800431593,21.34
1629800431609,19.78
1629800431625,19.19
1629800431640,19.52
1629800431656,20.47
1629800431671,21.6
1629800431687,22.48
1629800431703,22.89
1629800431718,22.81
1629800431734,22.31
1629800431750,21.46
1629800431765,20.25
1629800431781,18.6
1629800431796,16.45
1629800431812,13.83
1629800431828,10.89
1629800431843,7.8
1629800431859,4.77
1629800431875,1.81
1629800431890,-1.18
1629800431906,-4.4
1629800431921,-8.01
1629800431937,-12.01
1629800431953,-16.17
1629800431968,-20.14
1629800431984,-23.58
1629800432000,-26.39
1629800432015,-28.71
1629800432031,-30.96
1629800432046,-33.62
1629800432062,-37.05
1629800432078,-41.32
1629800432093,-46.09
1629800432109,-50.57
1629800432125,-53.66
1629800432140,-54.15
1629800432156,-51.07
1629800432171,-44.02
1629800432187,-33.38
1629800432203,-20.31
1629800432218,-6.47
1629800432234,6.44
1629800432250,17.15
1629800432265,25.06
1629800432281,30.22
1629800432296,33.08
1629800432312,34.18
1629800432328,33.96
1629800432343,32.71
1629800432359,30.72
1629800432375,28.42
1629800432390,26.37
1629800432406,25.13
1629800432421,25.01
1629800432437,25.92
1629800432453,27.39
1629800432468,28.79
1629800432484,29.59
1629800432500,29.56
1629800432515,28.78
1629800432531,27.52
1629800432546,26.0
1629800432562,24.31
1629800432578,22.4
1629800432593,20.2
1629800432609,17.7
1629800432625,14.99
1629800432640,12.19
1629800432656,9.43
1629800432671,6.75
1629800432687,4.16
1629800432703,1.63
1629800432718,-0.89
1629800432734,-3.5
1629800432750,-6.35
1629800432765,-9.58
1629800432781,-13.2
1629800432796,-17.03
1629800432812,-20.75
1629800432828,-24.01
1629800432843,-26.62
1629800432859,-28.72
1629800432875,-30.71
1629800432890,-33.1
1629800432906,-36.37
1629800432921,-40.71
1629800432937,-46.03
1629800432953,-51.87
1629800432968,-57.4
1629800432984,-61.48
1629800433000,-62.85
1629800433015,-60.41
1629800433031,-53.65
1629800433046,-42.9
1629800433062,-29.35
1629800433078,-14.76
1629800433093,-0.93
1629800433109,10.8
1629800433125,19.76
1629800433140,25.94
1629800433156,29.7
1629800433171,31.57
1629800433187,32.0
1629800433203,31.4
1629800433218,30.2
1629800433234,28.81
1629800433250,27.66
1629800433265,27.05
1629800433281,27.11
1629800433296,27.78
1629800433312,28.8
1629800433328,29.83
1629800433343,30.56
1629800433359,30.8
1629800433375,30.57
1629800433390,30.02
1629800433406,29.34
1629800433421,28.66
1629800433437,27.94
1629800433453,26.97
1629800433468,25.53
1629800433484,23.42
1629800433500,20.63
1629800433515,17.33
1629800433531,13.77
1629800433546,10.26
1629800433562,7.02
1629800433578,4.18
1629800433593,1.77
1629800433609,-0.26
1629800433625,-2.09
1629800433640,-3.93
1629800433656,-5.99
1629800433671,-8.4
1629800433687,-11.15
1629800433703,-14.15
1629800433718,-17.19
1629800433734,-20.15
1629800433750,-22.96
1629800433765,-25.74
1629800433781,-28.69
1629800433796,-32.07
1629800433812,-36.12
1629800433828,-40.89
1629800433843,-46.14
1629800433859,-51.21
1629800433875,-55.05
1629800433890,-56.41
1629800433906,-54.18
1629800433921,-47.79
1629800433937,-37.51
1629800433953,-24.45
1629800433968,-10.22
1629800433984,3.47
1629800434000,15.27
1629800434015,24.4
1629800434031,30.62
1629800434046,34.12
1629800434062,35.29
1629800434078,34.63
1629800434093,32.71
1629800434109,30.17
1629800434125,27.67
1629800434140,25.73
1629800434156,24.65
1629800434171,24.41
1629800434187,24.77
1629800434203,25.37
1629800434218,25.89
1629800434234,26.12
1629800434250,25.96
1629800434265,25.37
1629800434281,24.39
1629800434296,23.02
1629800434312,21.29
1629800434328,19.24
1629800434343,16.91
1629800434359,14.32
1629800434375,11.53
1629800434390,8.61
1629800434406,5.58
1629800434421,2.5
1629800434437,-0.7
1629800434453,-4.06
1629800434468,-7.6
1629800434484,-11.24
1629800434500,-14.81
1629800434515,-18.09
1629800434531,-20.92
1629800434546,-23.34
1629800434562,-25.49
1629800434578,-27.69
1629800434593,-30.25
1629800434609,-33.42
1629800434625,-37.35
1629800434640,-41.92
1629800434656,-46.59
1629800434671,-50.37
1629800434687,-51.99
1629800434703,-50.18
1629800434718,-44.21
1629800434734,-34.26
1629800434750,-21.47
1629800434765,-7.64
1629800434781,5.3
1629800434796,15.9
1629800434812,23.52
1629800434828,28.28
1629800434843,30.84
1629800434859,31.97
1629800434875,32.21
1629800434890,31.86
1629800434906,31.0
1629800434921,29.69
1629800434937,28.09
1629800434953,26.52
1629800434968,25.34
1629800434984,24.85
1629800435000,25.1
1629800435015,25.92
1629800435031,26.98
1629800435046,27.93
1629800435062,28.54
1629800435078,28.72
1629800435093,28.45
1629800435109,27.66
1629800435125,26.29
1629800435140,24.26
1629800435156,21.64
1629800435171,18.65
1629800435187,15.7
1629800435203,13.12
1629800435218,11.1
1629800435234,9.52
1629800435250,8.0
1629800435265,6.15
1629800435281,3.68
1629800435296,0.65
1629800435312,-2.67
1629800435328,-5.87
1629800435343,-8.69
1629800435359,-11.09
1629800435375,-13.26
1629800435390,-15.49
1629800435406,-17.97
1629800435421,-20.73
1629800435437,-23.62
1629800435453,-26.43
1629800435468,-29.06
1629800435484,-31.55
1629800435500,-34.09
1629800435515,-36.94
1629800435531,-40.3
1629800435546,-44.34
1629800435562,-49.05
1629800435578,-54.15
1629800435593,-59.03
1629800435609,-62.61
1629800435625,-63.6
1629800435640,-60.75
1629800435656,-53.41
1629800435671,-41.82
1629800435687,-27.22
1629800435703,-11.53
1629800435718,3.23
1629800435734,15.49
1629800435750,24.48
1629800435765,30.21
1629800435781,33.26
1629800435796,34.35
1629800435812,34.15
1629800435828,33.19
1629800435843,31.83
1629800435859,30.4
1629800435875,29.22
1629800435890,28.62
1629800435906,28.74
1629800435921,29.56
1629800435937,30.83
1629800435953,32.18
1629800435968,33.25
1629800435984,33.8
1629800436000,33.74
1629800436015,33.05
1629800436031,31.81
1629800436046,30.03
1629800436062,27.75
1629800436078,25.02
1629800436093,21.98
1629800436109,18.85
1629800436125,15.78
1629800436140,12.88
1629800436156,10.13
1629800436171,7.45
1629800436187,4.77
1629800436203,2.09
1629800436218,-0.49
1629800436234,-2.87
1629800436250,-4.95
1629800436265,-6.74
1629800436281,-8.37
1629800436296,-10.07
1629800436312,-12.12
1629800436328,-14.69
1629800436343,-17.78
1629800436359,-21.22
1629800436375,-24.71
1629800436390,-27.93
1629800436406,-30.73
1629800436421,-33.18
1629800436437,-35.54
1629800436453,-38.16
1629800436468,-41.38
1629800436484,-45.43
1629800436500,-50.29
1629800436515,-55.64
1629800436531,-60.7
1629800436546,-64.26
1629800436562,-64.84
1629800436578,-61.18
1629800436593,-52.77
1629800436609,-40.17
1629800436625,-24.92
1629800436640,-9.17
1629800436656,5.02
1629800436671,16.29
1629800436687,24.12
1629800436703,28.8
1629800436718,31.0
1629800436734,31.43
1629800436750,30.65
1629800436765,29.05
1629800436781,26.97
1629800436796,24.75
1629800436812,22.79
1629800436828,21.42
1629800436843,20.81
1629800436859,20.91
1629800436875,21.49
1629800436890,22.18
1629800436906,22.69
1629800436921,22.85
1629800436937,22.65
1629800436953,22.17
1629800436968,21.48
1629800436984,20.53
1629800437000,19.17
1629800437015,17.29
1629800437031,14.79
1629800437046,11.72
1629800437062,8.19
1629800437078,4.36
1629800437093,0.42
1629800437109,-3.44
1629800437125,-7.07
1629800437140,-10.34
1629800437156,-13.22
1629800437171,-15.79
1629800437187,-18.18
1629800437203,-20.51
1629800437218,-22.9
1629800437234,-25.44
1629800437250,-28.32
1629800437265,-31.78
1629800437281,-36.02
1629800437296,-40.91
1629800437312,-45.81
1629800437328,-49.43
1629800437343,-50.25
1629800437359,-47.01
1629800437375,-39.32
1629800437390,-27.93
1629800437406,-14.52
1629800437421,-1.15
1629800437437,10.45
1629800437453,19.3
1629800437468,25.28
1629800437484,28.85
1629800437500,30.56
1629800437515,30.85
1629800437531,29.94
1629800437546,27.97
1629800437562,25.19
1629800437578,22.11
1629800437593,19.34
1629800437609,17.46
1629800437625,16.76
1629800437640,17.12
1629800437656,18.12
1629800437671,19.13
1629800437687,19.66
1629800437703,19.46
1629800437718,18.64
1629800437734,17.45
1629800437750,16.19
1629800437765,14.94
1629800437781,13.59
1629800437796,11.8
1629800437812,9.26
1629800437828,5.82
1629800437843,1.58
1629800437859,-3.1
1629800437875,-7.79
1629800437890,-12.06
1629800437906,-15.66
1629800437921,-18.57
1629800437937,-21.01
1629800437953,-23.25
1629800437968,-25.64
1629800437984,-28.47
1629800438000,-31.97
1629800438015,-36.26
1629800438031,-41.16
1629800438046,-46.11
1629800438062,-50.1
1629800438078,-51.81
1629800438093,-49.97
1629800438109,-43.91
1629800438125,-33.88
1629800438140,-21.06
1629800438156,-7.27
1629800438171,5.62
1629800438187,16.21
1629800438203,23.88
1629800438218,28.76
1629800438234,31.38
1629800438250,32.34
1629800438265,32.09
1629800438281,30.92
1629800438296,29.11
1629800438312,26.97
1629800438328,25.0
1629800438343,23.67
1629800438359,23.27
1629800438375,23.8
1629800438390,24.88
1629800438406,25.97
1629800438421,26.6
1629800438437,26.54
1629800438453,25.93
1629800438468,25.13
1629800438484,24.45
1629800438500,24.02
1629800438515,23.58
1629800438531,22.64
1629800438546,20.75
1629800438562,17.74
1629800438578,13.81
1629800438593,9.5
1629800438609,5.47
1629800438625,2.13
1629800438640,-0.49
1629800438656,-2.7
1629800438671,-5.0
1629800438687,-7.79
1629800438703,-11.2
1629800438718,-15.03
1629800438734,-18.92
1629800438750,-22.47
1629800438765,-25.47
1629800438781,-27.93
1629800438796,-30.07
1629800438812,-32.26
1629800438828,-34.91
1629800438843,-38.36
1629800438859,-42.75
1629800438875,-47.89
1629800438890,-53.12
1629800438906,-57.29
1629800438921,-58.98
1629800438937,-56.91
1629800438953,-50.37
1629800438968,-39.67
1629800438984,-26.04
1629800439000,-11.4
1629800439015,2.34
1629800439031,13.72
1629800439046,22.1
1629800439062,27.59
1629800439078,30.74
1629800439093,32.18
1629800439109,32.39
1629800439125,31.76
1629800439140,30.56
1629800439156,29.16
1629800439171,27.93
1629800439187,27.23
1629800439203,27.25
1629800439218,28.0
1629800439234,29.24
1629800439250,30.62
1629800439265,31.78
1629800439281,32.46
1629800439296,32.53
1629800439312,32.06
1629800439328,31.13
1629800439343,29.86
1629800439359,28.27
1629800439375,26.37
1629800439390,24.07
1629800439406,21.42
1629800439421,18.5
1629800439437,15.5
1629800439453,12.62
1629800439468,9.98
1629800439484,7.64
1629800439500,5.51
1629800439515,3.53
1629800439531,1.64
1629800439546,-0.13
1629800439562,-1.77
1629800439578,-3.31
1629800439593,-4.9
1629800439609,-6.72
1629800439625,-8.97
1629800439640,-11.75
1629800439656,-14.99
1629800439671,-18.51
1629800439687,-22.06
1629800439703,-25.43
1629800439718,-28.55
1629800439734,-31.48
1629800439750,-34.44
1629800439765,-37.78
1629800439781,-41.81
1629800439796,-46.69
1629800439812,-52.13
1629800439828,-57.29
1629800439843,-60.82
1629800439859,-61.22
1629800439875,-57.33
1629800439890,-48.82
1629800439906,-36.41
1629800439921,-21.67
1629800439937,-6.62
1629800439953,6.95
1629800439968,17.81
1629800439984,25.58
1629800440000,30.48
1629800440015,33.09
1629800440031,34.02
1629800440046,33.73
1629800440062,32.59
1629800440078,30.92
1629800440093,29.11
1629800440109,27.57
1629800440125,26.68
1629800440140,26.6
1629800440156,27.25
1629800440171,28.3
1629800440187,29.33
1629800440203,30.02
1629800440218,30.24
1629800440234,30.03
1629800440250,29.54
1629800440265,28.85
1629800440281,27.93
1629800440296,26.62
1629800440312,24.77
1629800440328,22.29
1629800440343,19.25
1629800440359,15.91
1629800440375,12.6
1629800440390,9.66
1629800440406,7.24
1629800440421,5.26
1629800440437,3.46
1629800440453,1.43
1629800440468,-1.15
1629800440484,-4.37
1629800440500,-8.08
1629800440515,-11.96
1629800440531,-15.62
1629800440546,-18.85
1629800440562,-21.62
1629800440578,-24.1
1629800440593,-26.5
1629800440609,-29.08
1629800440625,-32.05
1629800440640,-35.61
1629800440656,-39.86
1629800440671,-44.64
1629800440687,-49.44
1629800440703,-53.24
1629800440718,-54.74
1629800440734,-52.68
1629800440750,-46.38
1629800440765,-36.08
1629800440781,-23.03
1629800440796,-9.1
1629800440812,3.8
1629800440828,14.28
1629800440843,21.76
1629800440859,26.46
1629800440875,28.97
1629800440890,29.94
1629800440906,29.76
1629800440921,28.63
1629800440937,26.7
1629800440953,24.28
1629800440968,21.88
1629800440984,20.05
1629800441000,19.22
1629800441015,19.39
1629800441031,20.21
1629800441046,21.1
1629800441062,21.56
1629800441078,21.32
1629800441093,20.45
1629800441109,19.21
1629800441125,17.87
1629800441140,16.58
1629800441156,15.29
1629800441171,13.86
1629800441187,12.04
1629800441203,9.72
1629800441218,6.81
1629800441234,3.39
1629800441250,-0.37
1629800441265,-4.26
1629800441281,-8.0
1629800441296,-11.39
1629800441312,-14.31
1629800441328,-16.81
1629800441343,-19.06
1629800441359,-21.34
1629800441375,-23.96
1629800441390,-27.19
1629800441406,-31.2
1629800441421,-35.95
1629800441437,-41.01
1629800441453,-45.57
1629800441468,-48.45
1629800441484,-48.4
1629800441500,-44.46
1629800441515,-36.33
1629800441531,-24.58
1629800441546,-10.66
1629800441562,3.62
1629800441578,16.47
1629800441593,26.64
1629800441609,33.66
1629800441625,37.76
1629800441640,39.58
1629800441656,39.8
1629800441671,38.98
1629800441687,37.46
1629800441703,35.49
1629800441718,33.42
1629800441734,31.61
1629800441750,30.44
1629800441765,30.05
1629800441781,30.32
1629800441796,30.89
1629800441812,31.39
1629800441828,31.57
1629800441843,31.42
1629800441859,31.11
1629800441875,30.73
1629800441890,30.21
1629800441906,29.18
1629800441921,27.15
1629800441937,23.78
1629800441953,19.05
1629800441968,13.35
1629800441984,7.41
1629800442000,2.02
1629800442015,-2.34
1629800442031,-5.64
1629800442046,-8.35
1629800442062,-11.18
1629800442078,-14.78
1629800442093,-19.43
1629800442109,-24.98
1629800442125,-30.97
1629800442140,-36.85
1629800442156,-42.23
1629800442171,-46.91
1629800442187,-50.87
1629800442203,-54.21
1629800442218,-57.13
1629800442234,-59.93
1629800442250,-63.02
1629800442265,-66.75
1629800442281,-71.12
1629800442296,-75.55
1629800442312,-78.75
1629800442328,-79.15
1629800442343,-75.49
1629800442359,-67.29
1629800442375,-55.28
1629800442390,-41.09
1629800442406,-26.77
1629800442421,-14.06
1629800442437,-3.96
1629800442453,3.4
1629800442468,8.45
1629800442484,11.78
1629800442500,13.87
1629800442515,14.91
1629800442531,15.02
1629800442546,14.32
1629800442562,13.11
1629800442578,11.74
1629800442593,10.58
1629800442609,9.86
1629800442625,9.63
1629800442640,9.81
1629800442656,10.17
1629800442671,10.56
1629800442687,10.83
1629800442703,10.97
1629800442718,10.99
1629800442734,10.95
1629800442750,10.88
1629800442765,10.79
1629800442781,10.73
1629800442796,10.78
1629800442812,11.21
1629800442828,12.37
1629800442843,14.56
1629800442859,17.88
1629800442875,22.05
1629800442890,26.4
1629800442906,30.0
1629800442921,32.0
1629800442937,31.89
1629800442953,29.65
1629800442968,25.76
1629800442984,20.92
1629800443000,15.85
1629800443015,11.02
1629800443031,6.56
1629800443046,2.33
1629800443062,-1.88
1629800443078,-6.23
1629800443093,-10.72
1629800443109,-15.17
1629800443125,-19.33
1629800443140,-22.92
1629800443156,-25.82
1629800443171,-28.09
1629800443187,-29.97
1629800443203,-31.85
1629800443218,-34.16
1629800443234,-37.24
1629800443250,-41.16
1629800443265,-45.56
1629800443281,-49.53
1629800443296,-51.79
1629800443312,-51.01
1629800443328,-46.2
1629800443343,-37.24
1629800443359,-24.97
1629800443375,-11.02
1629800443390,2.69
1629800443406,14.53
1629800443421,23.58
1629800443437,29.71
1629800443453,33.36
1629800443468,35.17
1629800443484,35.69
1629800443500,35.29
1629800443515,34.25
1629800443531,32.86
1629800443546,31.52
1629800443562,30.58
1629800443578,30.33
1629800443593,30.81
1629800443609,31.88
1629800443625,33.26
1629800443640,34.62
1629800443656,35.75
1629800443671,36.49
1629800443687,36.83
1629800443703,36.8
1629800443718,36.43
1629800443734,35.71
1629800443750,34.59
1629800443765,33.02
1629800443781,31.02
1629800443796,28.65
1629800443812,25.99
1629800443828,23.14
1629800443843,20.13
1629800443859,17.04
1629800443875,13.94
1629800443890,10.92
1629800443906,8.11
1629800443921,5.6
1629800443937,3.34
1629800443953,1.2
1629800443968,-1.0
1629800443984,-3.4
1629800444000,-6.03
1629800444015,-8.81
1629800444031,-11.66
1629800444046,-14.46
1629800444062,-17.19
1629800444078,-19.82
1629800444093,-22.41
1629800444109,-25.05
1629800444125,-27.9
1629800444140,-31.23
1629800444156,-35.31
1629800444171,-40.27
1629800444187,-45.9
1629800444203,-51.47
1629800444218,-55.76
1629800444234,-57.31
1629800444250,-54.94
1629800444265,-48.13
1629800444281,-37.33
1629800444296,-23.91
1629800444312,-9.73
1629800444328,3.42
1629800444343,14.31
1629800444359,22.48
1629800444375,28.06
1629800444390,31.49
1629800444406,33.18
1629800444421,33.42
1629800444437,32.38
1629800444453,30.33
1629800444468,27.76
1629800444484,25.31
1629800444500,23.57
1629800444515,22.89
1629800444531,23.24
1629800444546,24.24
1629800444562,25.35
1629800444578,26.1
1629800444593,26.26
1629800444609,25.82
1629800444625,24.9
1629800444640,23.62
1629800444656,21.94
1629800444671,19.76
1629800444687,16.98
1629800444703,13.67
1629800444718,10.05
1629800444734,6.48
1629800444750,3.21
1629800444765,0.32
1629800444781,-2.36
1629800444796,-5.06
1629800444812,-7.98
1629800444828,-11.13
1629800444843,-14.35
1629800444859,-17.39
1629800444875,-20.11
1629800444890,-22.55
1629800444906,-24.95
1629800444921,-27.65
1629800444937,-31.01
1629800444953,-35.22
1629800444968,-40.2
1629800444984,-45.39
1629800445000,-49.78
1629800445015,-52.06
1629800445031,-51.03
1629800445046,-45.95
1629800445062,-37.03
1629800445078,-25.35
1629800445093,-12.63
1629800445109,-0.66
1629800445125,9.25
1629800445140,16.58
1629800445156,21.45
1629800445171,24.39
1629800445187,25.93
1629800445203,26.41
1629800445218,25.96
1629800445234,24.67
1629800445250,22.78
1629800445265,20.79
1629800445281,19.24
1629800445296,18.6
1629800445312,18.98
1629800445328,20.09
1629800445343,21.35
1629800445359,22.16
1629800445375,22.16
1629800445390,21.31
1629800445406,19.9
1629800445421,18.3
1629800445437,16.79
1629800445453,15.38
1629800445468,13.89
1629800445484,12.02
1629800445500,9.54
1629800445515,6.37
1629800445531,2.65
1629800445546,-1.41
1629800445562,-5.53
1629800445578,-9.48
1629800445593,-13.15
1629800445609,-16.52
1629800445625,-19.66
1629800445640,-22.72
1629800445656,-25.89
1629800445671,-29.34
1629800445687,-33.21
1629800445703,-37.49
1629800445718,-41.86
1629800445734,-45.64
1629800445750,-47.93
1629800445765,-47.73
1629800445781,-44.33
1629800445796,-37.58
1629800445812,-28.07
1629800445828,-16.93
1629800445843,-5.51
1629800445859,5.01
1629800445875,13.87
1629800445890,20.81
1629800445906,25.89
1629800445921,29.3
1629800445937,31.21
1629800445953,31.81
1629800445968,31.33
1629800445984,30.18
1629800446000,28.85
1629800446015,27.77
1629800446031,27.23
1629800446046,27.21
1629800446062,27.49
1629800446078,27.71
1629800446093,27.61
1629800446109,27.14
1629800446125,26.38
1629800446140,25.53
1629800446156,24.68
1629800446171,23.82
1629800446187,22.78
1629800446203,21.37
1629800446218,19.45
1629800446234,17.1
1629800446250,14.51
1629800446265,11.94
1629800446281,9.52
1629800446296,7.24
1629800446312,4.85
1629800446328,2.08
1629800446343,-1.3
1629800446359,-5.3
1629800446375,-9.75
1629800446390,-14.31
1629800446406,-18.62
1629800446421,-22.45
1629800446437,-25.7
1629800446453,-28.47
1629800446468,-31.01
1629800446484,-33.7
1629800446500,-36.95
1629800446515,-41.03
1629800446531,-45.92
1629800446546,-51.04
1629800446562,-55.28
1629800446578,-57.25
1629800446593,-55.7
1629800446609,-50.06
1629800446625,-40.68
1629800446640,-28.83
1629800446656,-16.25
1629800446671,-4.58
1629800446687,5.08
1629800446703,12.44
1629800446718,17.77
1629800446734,21.63
1629800446750,24.47
1629800446765,26.52
1629800446781,27.86
1629800446796,28.51
1629800446812,28.64
1629800446828,28.54
1629800446843,28.51
1629800446859,28.78
1629800446875,29.36
1629800446890,30.08
1629800446906,30.63
1629800446921,30.75
1629800446937,30.35
1629800446953,29.51
1629800446968,28.45
1629800446984,27.35
1629800447000,26.24
1629800447015,24.97
1629800447031,23.34
1629800447046,21.19
1629800447062,18.54
1629800447078,15.56
1629800447093,12.48
1629800447109,9.51
1629800447125,6.73
1629800447140,4.11
1629800447156,1.56
1629800447171,-1.02
1629800447187,-3.69
1629800447203,-6.48
1629800447218,-9.36
1629800447234,-12.27
1629800447250,-15.11
1629800447265,-17.83
1629800447281,-20.43
1629800447296,-23.07
1629800447312,-25.96
1629800447328,-29.36
1629800447343,-33.44
1629800447359,-38.17
1629800447375,-43.2
1629800447390,-47.83
1629800447406,-51.05
1629800447421,-51.76
1629800447437,-49.12
1629800447453,-42.91
1629800447468,-33.67
1629800447484,-22.62
1629800447500,-11.25
1629800447515,-0.88
1629800447531,7.73
1629800447546,14.42
1629800447562,19.5
1629800447578,23.38
1629800447593,26.33
1629800447609,28.4
1629800447625,29.53
1629800447640,29.71
1629800447656,29.11
1629800447671,28.09
1629800447687,27.09
1629800447703,26.46
1629800447718,26.35
1629800447734,26.68
1629800447750,27.19
1629800447765,27.67
1629800447781,27.93
1629800447796,27.97
1629800447812,27.89
1629800447828,27.76
1629800447843,27.58
1629800447859,27.2
1629800447875,26.43
1629800447890,25.08
1629800447906,23.09
1629800447921,20.56
1629800447937,17.66
1629800447953,14.63
1629800447968,11.61
1629800447984,8.7
1629800448000,5.86
1629800448015,3.02
1629800448031,0.07
1629800448046,-3.06
1629800448062,-6.4
1629800448078,-9.88
1629800448093,-13.34
1629800448109,-16.6
1629800448125,-19.5
1629800448140,-22.02
1629800448156,-24.25
1629800448171,-26.49
1629800448187,-29.08
1629800448203,-32.31
1629800448218,-36.26
1629800448234,-40.65
1629800448250,-44.81
1629800448265,-47.71
1629800448281,-48.24
1629800448296,-45.56
1629800448312,-39.42
1629800448328,-30.32
1629800448343,-19.37
1629800448359,-8.05
1629800448375,2.34
1629800448390,10.88
1629800448406,17.29
1629800448421,21.67
1629800448437,24.38
1629800448453,25.78
1629800448468,26.14
1629800448484,25.69
1629800448500,24.65
1629800448515,23.34
1629800448531,22.08
1629800448546,21.22
1629800448562,20.95
1629800448578,21.27
1629800448593,22.03
1629800448609,22.88
1629800448625,23.53
1629800448640,23.69
1629800448656,23.28
1629800448671,22.33
1629800448687,20.99
1629800448703,19.41
1629800448718,17.69
1629800448734,15.9
1629800448750,14.03
1629800448765,12.01
1629800448781,9.72
1629800448796,7.0
1629800448812,3.73
1629800448828,-0.12
1629800448843,-4.37
1629800448859,-8.75
1629800448875,-12.88
1629800448890,-16.48
1629800448906,-19.46
1629800448921,-21.89
1629800448937,-24.03
1629800448953,-26.23
1629800448968,-28.82
1629800448984,-32.07
1629800449000,-36.05
1629800449015,-40.5
1629800449031,-44.73
1629800449046,-47.7
1629800449062,-48.25
1629800449078,-45.52
1629800449093,-39.3
1629800449109,-30.19
1629800449125,-19.43
1629800449140,-8.51
1629800449156,1.29
1629800449171,9.2
1629800449187,15.03
1629800449203,19.01
1629800449218,21.47
1629800449234,22.77
1629800449250,23.14
1629800449265,22.79
1629800449281,21.98
1629800449296,21.03
1629800449312,20.27
1629800449328,19.97
1629800449343,20.23
1629800449359,20.86
1629800449375,21.56
1629800449390,21.94
1629800449406,21.77
1629800449421,21.01
1629800449437,19.78
1629800449453,18.26
1629800449468,16.63
1629800449484,14.95
1629800449500,13.19
1629800449515,11.28
1629800449531,9.14
1629800449546,6.72
1629800449562,4.02
1629800449578,1.05
1629800449593,-2.14
1629800449609,-5.45
1629800449625,-8.72
1629800449640,-11.8
1629800449656,-14.5
1629800449671,-16.83
1629800449687,-18.87
1629800449703,-20.91
1629800449718,-23.33
1629800449734,-26.51
1629800449750,-30.64
1629800449765,-35.53
1629800449781,-40.53
1629800449796,-44.57
1629800449812,-46.52
1629800449828,-45.43
1629800449843,-40.96
1629800449859,-33.49
1629800449875,-23.99
1629800449890,-13.74
1629800449906,-3.9
1629800449921,4.68
1629800449937,11.61
1629800449953,16.83
1629800449968,20.49
1629800449984,22.83
1629800450000,24.09
1629800450015,24.55
1629800450031,24.46
1629800450046,24.06
1629800450062,23.5
1629800450078,22.92
1629800450093,22.35
1629800450109,21.84
1629800450125,21.39
1629800450140,20.94
1629800450156,20.4
1629800450171,19.65
1629800450187,18.61
1629800450203,17.29
1629800450218,15.84
1629800450234,14.46
1629800450250,13.26
1629800450265,12.17
1629800450281,10.9
1629800450296,9.12
1629800450312,6.57
1629800450328,3.26
1629800450343,-0.52
1629800450359,-4.3
1629800450375,-7.69
1629800450390,-10.5
1629800450406,-12.85
1629800450421,-15.09
1629800450437,-17.61
1629800450453,-20.69
1629800450468,-24.45
1629800450484,-28.77
1629800450500,-33.37
1629800450515,-37.8
1629800450531,-41.4
1629800450546,-43.36
1629800450562,-42.85
1629800450578,-39.33
1629800450593,-32.8
1629800450609,-23.92
1629800450625,-13.86
1629800450640,-3.97
1629800450656,4.64
1629800450671,11.38
1629800450687,16.18
1629800450703,19.3
1629800450718,21.07
1629800450734,21.72
1629800450750,21.39
1629800450765,20.21
1629800450781,18.47
1629800450796,16.63
1629800450812,15.21
1629800450828,14.61
1629800450843,14.99
1629800450859,16.18
1629800450875,17.77
1629800450890,19.23
1629800450906,20.14
1629800450921,20.25
1629800450937,19.6
1629800450953,18.38
1629800450968,16.89
1629800450984,15.37
1629800451000,13.91
1629800451015,12.38
1629800451031,10.59
1629800451046,8.32
1629800451062,5.43
1629800451078,1.96
1629800451093,-1.89
1629800451109,-5.79
1629800451125,-9.39
1629800451140,-12.47
1629800451156,-14.98
1629800451171,-17.07
1629800451187,-19.05
1629800451203,-21.3
1629800451218,-24.15
1629800451234,-27.79
1629800451250,-32.11
1629800451265,-36.61
1629800451281,-40.42
1629800451296,-42.46
1629800451312,-41.74
1629800451328,-37.73
1629800451343,-30.59
1629800451359,-21.18
1629800451375,-10.8
1629800451390,-0.78
1629800451406,7.9
1629800451421,14.74
1629800451437,19.73
1629800451453,23.03
1629800451468,24.91
1629800451484,25.56
1629800451500,25.22
1629800451515,24.15
1629800451531,22.69
1629800451546,21.22
1629800451562,19.97
1629800451578,19.11
1629800451593,18.68
1629800451609,18.66
1629800451625,19.0
1629800451640,19.61
1629800451656,20.3
1629800451671,20.78
1629800451687,20.76
1629800451703,20.08
1629800451718,18.79
1629800451734,17.07
1629800451750,15.15
1629800451765,13.15
1629800451781,11.02
1629800451796,8.63
1629800451812,5.87
1629800451828,2.82
1629800451843,-0.33
1629800451859,-3.32
1629800451875,-5.99
1629800451890,-8.33
1629800451906,-10.47
1629800451921,-12.62
1629800451937,-14.96
1629800451953,-17.64
1629800451968,-20.73
1629800451984,-24.3
1629800452000,-28.28
1629800452015,-32.46
1629800452031,-36.4
1629800452046,-39.4
1629800452062,-40.65
1629800452078,-39.36
1629800452093,-35.08
1629800452109,-27.89
1629800452125,-18.5
1629800452140,-8.1
1629800452156,1.96
1629800452171,10.57
1629800452187,17.14
1629800452203,21.68
1629800452218,24.56
1629800452234,26.21
1629800452250,26.85
1629800452265,26.48
1629800452281,25.06
1629800452296,22.8
1629800452312,20.24
1629800452328,18.16
1629800452343,17.2
1629800452359,17.55
1629800452375,18.83
1629800452390,20.31
1629800452406,21.24
1629800452421,21.2
1629800452437,20.22
1629800452453,18.66
1629800452468,16.92
1629800452484,15.19
1629800452500,13.45
1629800452515,11.53
1629800452531,9.27
1629800452546,6.63
1629800452562,3.62
1629800452578,0.31
1629800452593,-3.23
1629800452609,-6.92
1629800452625,-10.59
1629800452640,-14.02
1629800452656,-17.03
1629800452671,-19.53
1629800452687,-21.62
1629800452703,-23.55
1629800452718,-25.66
1629800452734,-28.26
1629800452750,-31.5
1629800452765,-35.26
1629800452781,-39.05
1629800452796,-42.06
1629800452812,-43.26
1629800452828,-41.75
1629800452843,-37.03
1629800452859,-29.32
1629800452875,-19.5
1629800452890,-8.92
1629800452906,1.1
1629800452921,9.6
1629800452937,16.17
1629800452953,20.88
1629800452968,24.0
1629800452984,25.78
1629800453000,26.34
1629800453015,25.77
1629800453031,24.25
1629800453046,22.19
1629800453062,20.17
1629800453078,18.72
1629800453093,18.17
1629800453109,18.51
1629800453125,19.43
1629800453140,20.47
1629800453156,21.23
1629800453171,21.5
1629800453187,21.28
1629800453203,20.76
1629800453218,20.14
1629800453234,19.5
1629800453250,18.75
1629800453265,17.61
1629800453281,15.87
1629800453296,13.38
1629800453312,10.31
1629800453328,7.0
1629800453343,3.87
1629800453359,1.21
1629800453375,-0.91
1629800453390,-2.68
1629800453406,-4.43
1629800453421,-6.39
1629800453437,-8.64
1629800453453,-11.08
1629800453468,-13.49
1629800453484,-15.68
1629800453500,-17.58
1629800453515,-19.28
1629800453531,-20.97
1629800453546,-22.93
1629800453562,-25.39
1629800453578,-28.62
1629800453593,-32.66
1629800453609,-37.37
1629800453625,-42.25
1629800453640,-46.45
1629800453656,-48.86
1629800453671,-48.39
1629800453687,-44.4
1629800453703,-36.93
1629800453718,-26.87
1629800453734,-15.64
1629800453750,-4.81
1629800453765,4.37
1629800453781,11.3
1629800453796,16.06
1629800453812,19.11
1629800453828,21.01
1629800453843,22.21
1629800453859,22.91
1629800453875,23.19
1629800453890,23.17
1629800453906,23.02
1629800453921,22.97
1629800453937,23.18
1629800453953,23.63
1629800453968,24.19
1629800453984,24.62
1629800454000,24.78
1629800454015,24.64
1629800454031,24.34
1629800454046,24.01
1629800454062,23.75
1629800454078,23.48
1629800454093,23.02
1629800454109,22.17
1629800454125,20.78
1629800454140,18.82
1629800454156,16.41
1629800454171,13.78
1629800454187,11.17
1629800454203,8.83
1629800454218,6.85
1629800454234,5.2
1629800454250,3.73
1629800454265,2.3
1629800454281,0.78
1629800454296,-0.87
1629800454312,-2.62
1629800454328,-4.47
1629800454343,-6.44
1629800454359,-8.6
1629800454375,-10.97
1629800454390,-13.47
1629800454406,-15.96
1629800454421,-18.34
1629800454437,-20.61
1629800454453,-22.87
1629800454468,-25.3
1629800454484,-28.02
1629800454500,-31.09
1629800454515,-34.52
1629800454531,-38.26
1629800454546,-42.2
1629800454562,-45.95
1629800454578,-48.83
1629800454593,-49.87
1629800454609,-48.14
1629800454625,-43.04
1629800454640,-34.68
1629800454656,-23.92
1629800454671,-12.16
1629800454687,-0.93
1629800454703,8.51
1629800454718,15.53
1629800454734,20.1
1629800454750,22.64
1629800454765,23.78
1629800454781,24.05
1629800454796,23.76
1629800454812,23.01
1629800454828,21.87
1629800454843,20.5
1629800454859,19.24
1629800454875,18.52
1629800454890,18.65
1629800454906,19.65
1629800454921,21.19
1629800454937,22.72
1629800454953,23.75
1629800454968,23.97
1629800454984,23.42
1629800455000,22.38
1629800455015,21.15
1629800455031,19.96
1629800455046,18.81
1629800455062,17.54
1629800455078,15.98
1629800455093,13.96
1629800455109,11.48
1629800455125,8.71
1629800455140,5.93
1629800455156,3.44
1629800455171,1.45
1629800455187,-0.02
1629800455203,-1.22
1629800455218,-2.46
1629800455234,-4.06
1629800455250,-6.21
1629800455265,-8.85
1629800455281,-11.72
1629800455296,-14.53
1629800455312,-16.99
1629800455328,-19.02
1629800455343,-20.72
1629800455359,-22.34
1629800455375,-24.24
1629800455390,-26.78
1629800455406,-30.11
1629800455421,-34.09
1629800455437,-38.22
1629800455453,-41.62
1629800455468,-43.25
1629800455484,-42.22
1629800455500,-38.01
1629800455515,-30.78
1629800455531,-21.35
1629800455546,-10.98
1629800455562,-1.04
1629800455578,7.36
1629800455593,13.6
1629800455609,17.58
1629800455625,19.63
1629800455640,20.27
1629800455656,20.04
1629800455671,19.3
1629800455687,18.3
1629800455703,17.2
1629800455718,16.13
1629800455734,15.24
1629800455750,14.64
1629800455765,14.38
1629800455781,14.45
1629800455796,14.75
1629800455812,15.18
1629800455828,15.58
1629800455843,15.77
1629800455859,15.61
1629800455875,14.99
1629800455890,13.87
1629800455906,12.3
1629800455921,10.42
1629800455937,8.29
1629800455953,5.95
1629800455968,3.3
1629800455984,0.27
1629800456000,-3.15
1629800456015,-6.75
1629800456031,-10.2
1629800456046,-13.22
1629800456062,-15.66
1629800456078,-17.66
1629800456093,-19.49
1629800456109,-21.42
1629800456125,-23.56
1629800456140,-25.92
1629800456156,-28.43
1629800456171,-31.11
1629800456187,-34.05
1629800456203,-37.14
1629800456218,-39.98
1629800456234,-41.75
1629800456250,-41.44
1629800456265,-38.24
1629800456281,-31.95
1629800456296,-23.2
1629800456312,-13.21
1629800456328,-3.47
1629800456343,4.91
1629800456359,11.31
1629800456375,15.76
1629800456390,18.59
1629800456406,20.2
1629800456421,20.86
1629800456437,20.65
1629800456453,19.66
1629800456468,18.07
1629800456484,16.25
1629800456500,14.59
1629800456515,13.47
1629800456531,13.02
1629800456546,13.13
1629800456562,13.55
1629800456578,13.94
1629800456593,14.02
1629800456609,13.66
1629800456625,12.91
1629800456640,11.87
1629800456656,10.72
1629800456671,9.54
1629800456687,8.28
1629800456703,6.76
1629800456718,4.77
1629800456734,2.15
1629800456750,-1.09
1629800456765,-4.73
1629800456781,-8.43
1629800456796,-11.81
1629800456812,-14.63
1629800456828,-16.85
1629800456843,-18.62
1629800456859,-20.29
1629800456875,-22.21
1629800456890,-24.72
1629800456906,-27.99
1629800456921,-32.02
1629800456937,-36.57
1629800456953,-41.08
1629800456968,-44.73
1629800456984,-46.49
1629800457000,-45.46
1629800457015,-41.08
1629800457031,-33.52
1629800457046,-23.66
1629800457062,-12.86
1629800457078,-2.61
1629800457093,6.0
1629800457109,12.48
1629800457125,16.94
1629800457140,19.76
1629800457156,21.38
1629800457171,22.08
1629800457187,21.99
1629800457203,21.25
1629800457218,20.11
1629800457234,18.91
1629800457250,17.92
1629800457265,17.32
1629800457281,17.06
1629800457296,16.99
1629800457312,17.0
1629800457328,17.02
1629800457343,17.03
1629800457359,16.98
1629800457375,16.74
1629800457390,16.15
1629800457406,15.08
1629800457421,13.52
1629800457437,11.56
1629800457453,9.32
1629800457468,6.89
1629800457484,4.26
1629800457500,1.38
1629800457515,-1.8
1629800457531,-5.18
1629800457546,-8.57
1629800457562,-11.68
1629800457578,-14.35
1629800457593,-16.57
1629800457609,-18.54
1629800457625,-20.6
1629800457640,-23.09
1629800457656,-26.22
1629800457671,-30.01
1629800457687,-34.33
1629800457703,-38.83
1629800457718,-43.01
1629800457734,-46.18
1629800457750,-47.5
1629800457765,-46.19
1629800457781,-41.79
1629800457796,-34.4
1629800457812,-24.82
1629800457828,-14.32
1629800457843,-4.27
1629800457859,4.29
1629800457875,10.93
1629800457890,15.8
1629800457906,19.25
1629800457921,21.68
1629800457937,23.21
1629800457953,23.83
1629800457968,23.57
1629800457984,22.64
1629800458000,21.44
1629800458015,20.42
1629800458031,19.91
1629800458046,19.95
1629800458062,20.4
1629800458078,21.01
1629800458093,21.57
1629800458109,22.0
1629800458125,22.23
1629800458140,22.27
1629800458156,22.05
1629800458171,21.47
1629800458187,20.43
1629800458203,18.93
1629800458218,17.01
1629800458234,14.77
1629800458250,12.36
1629800458265,9.86
1629800458281,7.33
1629800458296,4.73
1629800458312,2.0
1629800458328,-0.93
1629800458343,-4.03
1629800458359,-7.23
1629800458375,-10.41
1629800458390,-13.37
1629800458406,-16.04
1629800458421,-18.41
1629800458437,-20.67
1629800458453,-23.13
1629800458468,-26.07
1629800458484,-29.67
1629800458500,-33.82
1629800458515,-38.03
1629800458531,-41.45
1629800458546,-43.05
1629800458562,-41.88
1629800458578,-37.4
1629800458593,-29.79
1629800458609,-19.87
1629800458625,-8.93
1629800458640,1.63
1629800458656,10.78
1629800458671,17.93
1629800458687,23.0
1629800458703,26.17
1629800458718,27.77
1629800458734,28.05
1629800458750,27.28
1629800458765,25.77
1629800458781,23.92
1629800458796,22.19
1629800458812,20.96
1629800458828,20.52
1629800458843,20.9
1629800458859,21.93
1629800458875,23.25
1629800458890,24.45
1629800458906,25.24
1629800458921,25.49
1629800458937,25.22
1629800458953,24.55
1629800458968,23.67
1629800458984,22.6
1629800459000,21.27
1629800459015,19.54
1629800459031,17.31
1629800459046,14.64
1629800459062,11.76
1629800459078,8.97
1629800459093,6.51
1629800459109,4.4
1629800459125,2.41
1629800459140,0.1
1629800459156,-3.02
1629800459171,-7.31
1629800459187,-12.88
1629800459203,-19.62
1629800459218,-27.22
1629800459234,-35.29
1629800459250,-43.25
1629800459265,-50.37
1629800459281,-55.7
1629800459296,-58.18
1629800459312,-56.97
1629800459328,-51.75
1629800459343,-42.93
1629800459359,-31.61
1629800459375,-19.27
1629800459390,-7.34
1629800459406,3.13
1629800459421,11.67
1629800459437,18.2
1629800459453,22.77
1629800459468,25.47
1629800459484,26.33
1629800459500,25.5
1629800459515,23.39
1629800459531,20.64
1629800459546,18.06
1629800459562,16.34
1629800459578,15.82
1629800459593,16.4
1629800459609,17.66
1629800459625,19.09
1629800459640,20.28
1629800459656,21.06
1629800459671,21.45
1629800459687,21.54
1629800459703,21.34
1629800459718,20.68
1629800459734,19.25
1629800459750,16.76
1629800459765,13.03
1629800459781,8.16
1629800459796,2.53
1629800459812,-3.25
1629800459828,-8.53
1629800459843,-12.84
1629800459859,-16.06
1629800459875,-18.41
1629800459890,-20.38
1629800459906,-22.58
1629800459921,-25.46
1629800459937,-29.13
1629800459953,-33.31
1629800459968,-37.34
1629800459984,-40.33
1629800460000,-41.33
1629800460015,-39.6
1629800460031,-34.75
1629800460046,-26.96
1629800460062,-16.94
1629800460078,-5.82
1629800460093,5.1
1629800460109,14.68
1629800460125,22.21
1629800460140,27.47
1629800460156,30.74
1629800460171,32.48
1629800460187,33.08
1629800460203,32.78
1629800460218,31.6
1629800460234,29.62
1629800460250,27.07
1629800460265,24.4
1629800460281,22.16
1629800460296,20.79
1629800460312,20.41
1629800460328,20.85
1629800460343,21.76
1629800460359,22.69
1629800460375,23.28
1629800460390,23.21
1629800460406,22.21
1629800460421,20.06
1629800460437,16.68
1629800460453,12.15
1629800460468,6.85
1629800460484,1.3
1629800460500,-3.93
1629800460515,-8.42
1629800460531,-11.93
1629800460546,-14.54
1629800460562,-16.48
1629800460578,-18.07
1629800460593,-19.7
1629800460609,-21.68
1629800460625,-24.26
1629800460640,-27.56
1629800460656,-31.55
1629800460671,-36.04
1629800460687,-40.66
1629800460703,-44.81
1629800460718,-47.71
1629800460734,-48.58
1629800460750,-46.72
1629800460765,-41.89
1629800460781,-34.34
1629800460796,-24.83
1629800460812,-14.45
1629800460828,-4.38
1629800460843,4.53
1629800460859,11.81
1629800460875,17.45
1629800460890,21.75
1629800460906,25.12
1629800460921,27.89
1629800460937,30.19
1629800460953,31.93
1629800460968,32.79
1629800460984,32.48
1629800461000,30.84
1629800461015,28.03
1629800461031,24.52
1629800461046,20.91
1629800461062,17.79
1629800461078,15.56
1629800461093,14.49
1629800461109,14.69
1629800461125,16.16
1629800461140,18.6
1629800461156,21.3
1629800461171,23.27
1629800461187,23.43
1629800461203,21.08
1629800461218,16.2
1629800461234,9.47
1629800461250,1.98
1629800461265,-5.2
1629800461281,-11.36
1629800461296,-16.26
1629800461312,-19.99
1629800461328,-22.83
1629800461343,-25.11
1629800461359,-27.08
1629800461375,-28.87
1629800461390,-30.37
1629800461406,-31.33
1629800461421,-31.43
1629800461437,-30.52
1629800461453,-28.63
1629800461468,-25.9
1629800461484,-22.28
1629800461500,-17.47
1629800461515,-10.96
1629800461531,-2.47
1629800461546,7.57
1629800461562,18.08
1629800461578,27.56
1629800461593,34.81
1629800461609,39.47
1629800461625,42.14
1629800461640,43.96
1629800461656,45.96
1629800461671,48.56
1629800461687,51.44
1629800461703,53.9
1629800461718,55.39
1629800461734,55.83
1629800461750,55.7
1629800461765,55.76
1629800461781,56.6
1629800461796,58.29
1629800461812,60.41
1629800461828,62.15
1629800461843,62.75
1629800461859,61.8
1629800461875,59.38
1629800461890,56.0
1629800461906,52.33
1629800461921,48.89
1629800461937,45.84
1629800461953,42.93
1629800461968,39.57
1629800461984,35.01
1629800462000,28.63
1629800462015,20.1
1629800462031,9.58
1629800462046,-2.45
1629800462062,-15.33
1629800462078,-28.47
1629800462093,-41.52
1629800462109,-54.34
1629800462125,-66.85
1629800462140,-78.78
1629800462156,-89.53
1629800462171,-98.17
1629800462187,-103.72
1629800462203,-105.41
1629800462218,-103.15
1629800462234,-97.5
1629800462250,-89.67
1629800462265,-81.16
1629800462281,-73.23
1629800462296,-66.56
1629800462312,-60.98
1629800462328,-55.69
1629800462343,-49.58
1629800462359,-41.88
1629800462375,-32.36
1629800462390,-21.41
1629800462406,-9.85
1629800462421,1.48
1629800462437,11.9
1629800462453,20.98
1629800462468,28.46
1629800462484,34.14
1629800462500,37.86
1629800462515,39.59
1629800462531,39.54
1629800462546,38.17
1629800462562,36.16
1629800462578,34.2
1629800462593,32.84
1629800462609,32.34
1629800462625,32.7
1629800462640,33.64
1629800462656,34.78
1629800462671,35.77
1629800462687,36.38
1629800462703,36.53
1629800462718,36.19
1629800462734,35.35
1629800462750,33.99
1629800462765,32.14
1629800462781,29.86
1629800462796,27.37
1629800462812,24.91
1629800462828,22.69
1629800462843,20.8
1629800462859,19.15
1629800462875,17.54
1629800462890,15.79
1629800462906,13.82
1629800462921,11.65
1629800462937,9.44
1629800462953,7.35
1629800462968,5.46
1629800462984,3.82
1629800463000,2.28
1629800463015,0.63
1629800463031,-1.37
1629800463046,-3.86
1629800463062,-6.84
1629800463078,-10.09
1629800463093,-13.31
1629800463109,-16.28
1629800463125,-18.91
1629800463140,-21.32
1629800463156,-23.75
1629800463171,-26.49
1629800463187,-29.74
1629800463203,-33.47
1629800463218,-37.47
1629800463234,-41.22
1629800463250,-44.01
1629800463265,-44.98
1629800463281,-43.38
1629800463296,-38.77
1629800463312,-31.3
1629800463328,-21.71
1629800463343,-11.18
1629800463359,-1.06
1629800463375,7.54
1629800463390,13.91
1629800463406,17.85
1629800463421,19.55
1629800463437,19.54
1629800463453,18.43
1629800463468,16.85
1629800463484,15.3
1629800463500,14.1
1629800463515,13.38
1629800463531,13.17
1629800463546,13.42
1629800463562,14.05
1629800463578,14.92
1629800463593,15.78
1629800463609,16.33
1629800463625,16.33
1629800463640,15.72
1629800463656,14.68
1629800463671,13.56
1629800463687,12.67
1629800463703,12.1
1629800463718,11.65
1629800463734,10.98
1629800463750,9.78
1629800463765,7.95
1629800463781,5.68
1629800463796,3.35
1629800463812,1.3
1629800463828,-0.35
1629800463843,-1.72
1629800463859,-3.12
1629800463875,-4.82
1629800463890,-6.89
1629800463906,-9.18
1629800463921,-11.4
1629800463937,-13.22
1629800463953,-14.55
1629800463968,-15.49
1629800463984,-16.39
1629800464000,-17.63
1629800464015,-19.48
1629800464031,-22.06
1629800464046,-25.31
1629800464062,-29.01
1629800464078,-32.82
1629800464093,-36.25
1629800464109,-38.68
1629800464125,-39.32
1629800464140,-37.55
1629800464156,-33.03
1629800464171,-25.94
1629800464187,-17.0
1629800464203,-7.3
1629800464218,1.95
1629800464234,9.73
1629800464250,15.42
1629800464265,18.83
1629800464281,20.19
1629800464296,19.91
1629800464312,18.52
1629800464328,16.51
1629800464343,14.31
1629800464359,12.24
1629800464375,10.52
1629800464390,9.31
1629800464406,8.69
1629800464421,8.61
1629800464437,9.0
1629800464453,9.73
1629800464468,10.63
1629800464484,11.56
1629800464500,12.36
1629800464515,12.88
1629800464531,12.93
1629800464546,12.36
1629800464562,11.05
1629800464578,9.0
1629800464593,6.4
1629800464609,3.5
1629800464625,0.64
1629800464640,-1.9
1629800464656,-3.96
1629800464671,-5.56
1629800464687,-6.88
1629800464703,-8.16
1629800464718,-9.66
1629800464734,-11.47
1629800464750,-13.55
1629800464765,-15.73
1629800464781,-17.78
1629800464796,-19.53
1629800464812,-20.99
1629800464828,-22.34
1629800464843,-23.86
1629800464859,-25.8
1629800464875,-28.18
1629800464890,-30.75
1629800464906,-32.9
1629800464921,-33.81
1629800464937,-32.7
1629800464953,-29.12
1629800464968,-23.15
1629800464984,-15.48
1629800465000,-7.19
1629800465015,0.63
1629800465031,7.2
1629800465046,12.25
1629800465062,15.88
1629800465078,18.29
1629800465093,19.57
1629800465109,19.65
1629800465125,18.42
1629800465140,15.98
1629800465156,12.78
1629800465171,9.56
1629800465187,7.01
1629800465203,5.58
1629800465218,5.22
1629800465234,5.63
1629800465250,6.34
1629800465265,6.95
1629800465281,7.25
1629800465296,7.2
1629800465312,6.81
1629800465328,6.13
1629800465343,5.22
1629800465359,4.06
1629800465375,2.68
1629800465390,1.03
1629800465406,-0.88
1629800465421,-3.05
1629800465437,-5.38
1629800465453,-7.72
1629800465468,-9.88
1629800465484,-11.71
1629800465500,-13.21
1629800465515,-14.51
1629800465531,-15.85
1629800465546,-17.45
1629800465562,-19.46
1629800465578,-21.91
1629800465593,-24.74
1629800465609,-27.77
1629800465625,-30.71
1629800465640,-33.1
1629800465656,-34.37
1629800465671,-33.9
1629800465687,-31.24
1629800465703,-26.27
1629800465718,-19.38
1629800465734,-11.36
1629800465750,-3.26
1629800465765,3.96
1629800465781,9.68
1629800465796,13.66
1629800465812,16.05
1629800465828,17.15
1629800465843,17.2
1629800465859,16.34
1629800465875,14.67
1629800465890,12.37
1629800465906,9.85
1629800465921,7.65
1629800465937,6.29
1629800465953,6.03
1629800465968,6.72
1629800465984,7.85
1629800466000,8.87
1629800466015,9.35
1629800466031,9.17
1629800466046,8.48
1629800466062,7.49
1629800466078,6.34
1629800466093,5.01
1629800466109,3.36
1629800466125,1.28
1629800466140,-1.23
1629800466156,-3.98
1629800466171,-6.74
1629800466187,-9.23
1629800466203,-11.3
1629800466218,-12.92
1629800466234,-14.25
1629800466250,-15.6
1629800466265,-17.25
1629800466281,-19.42
1629800466296,-22.16
1629800466312,-25.34
1629800466328,-28.66
1629800466343,-31.71
1629800466359,-33.97
1629800466375,-34.85
1629800466390,-33.77
1629800466406,-30.35
1629800466421,-24.57
1629800466437,-16.91
1629800466453,-8.27
1629800466468,0.22
1629800466484,7.58
1629800466500,13.16
1629800466515,16.82
1629800466531,18.74
1629800466546,19.26
1629800466562,18.73
1629800466578,17.44
1629800466593,15.62
1629800466609,13.51
1629800466625,11.39
1629800466640,9.55
1629800466656,8.21
1629800466671,7.46
1629800466687,7.29
1629800466703,7.56
1629800466718,8.11
1629800466734,8.73
1629800466750,9.31
1629800466765,9.74
1629800466781,9.99
1629800466796,9.97
1629800466812,9.55
1629800466828,8.54
1629800466843,6.75
1629800466859,4.07
1629800466875,0.6
1629800466890,-3.37
1629800466906,-7.39
1629800466921,-10.94
1629800466937,-13.72
1629800466953,-15.7
1629800466968,-17.17
1629800466984,-18.65
1629800467000,-20.7
1629800467015,-23.66
1629800467031,-27.47
1629800467046,-31.65
1629800467062,-35.33
1629800467078,-37.49
1629800467093,-37.24
1629800467109,-34.05
1629800467125,-27.96
1629800467140,-19.58
1629800467156,-10.02
1629800467171,-0.54
1629800467187,7.74
1629800467203,14.14
1629800467218,18.48
1629800467234,20.91
1629800467250,21.78
1629800467265,21.36
1629800467281,19.94
1629800467296,17.85
1629800467312,15.53
1629800467328,13.49
1629800467343,12.19
1629800467359,11.77
1629800467375,12.04
1629800467390,12.57
1629800467406,12.91
1629800467421,12.82
1629800467437,12.29
1629800467453,11.53
1629800467468,10.75
1629800467484,10.04
1629800467500,9.3
1629800467515,8.31
1629800467531,6.8
1629800467546,4.57
1629800467562,1.56
1629800467578,-2.1
1629800467593,-6.09
1629800467609,-10.06
1629800467625,-13.65
1629800467640,-16.62
1629800467656,-18.94
1629800467671,-20.81
1629800467687,-22.58
1629800467703,-24.62
1629800467718,-27.27
1629800467734,-30.52
1629800467750,-34.01
1629800467765,-36.95
1629800467781,-38.32
1629800467796,-37.17
1629800467812,-33.02
1629800467828,-26.02
1629800467843,-16.98
1629800467859,-7.08
1629800467875,2.5
1629800467890,10.84
1629800467906,17.42
1629800467921,22.04
1629800467937,24.78
1629800467953,25.79
1629800467968,25.31
1629800467984,23.62
1629800468000,21.12
1629800468015,18.37
1629800468031,15.98
1629800468046,14.52
1629800468062,14.3
1629800468078,15.17
1629800468093,16.65
1629800468109,18.0
1629800468125,18.61
1629800468140,18.21
1629800468156,16.96
1629800468171,15.34
1629800468187,13.89
1629800468203,12.86
1629800468218,12.13
1629800468234,11.32
1629800468250,9.91
1629800468265,7.61
1629800468281,4.42
1629800468296,0.6
1629800468312,-3.4
1629800468328,-7.18
1629800468343,-10.48
1629800468359,-13.32
1629800468375,-15.91
1629800468390,-18.54
1629800468406,-21.42
1629800468421,-24.68
1629800468437,-28.28
1629800468453,-32.0
1629800468468,-35.47
1629800468484,-38.11
1629800468500,-39.3
1629800468515,-38.4
1629800468531,-34.94
1629800468546,-28.88
1629800468562,-20.63
1629800468578,-11.05
1629800468593,-1.2
1629800468609,7.89
1629800468625,15.45
1629800468640,21.06
1629800468656,24.7
1629800468671,26.57
1629800468687,27.04
1629800468703,26.47
1629800468718,25.25
1629800468734,23.78
1629800468750,22.44
1629800468765,21.59
1629800468781,21.47
1629800468796,22.14
1629800468812,23.37
1629800468828,24.75
1629800468843,25.88
1629800468859,26.48
1629800468875,26.51
1629800468890,26.12
1629800468906,25.5
1629800468921,24.74
1629800468937,23.71
1629800468953,22.15
1629800468968,19.85
1629800468984,16.87
1629800469000,13.48
1629800469015,10.14
1629800469031,7.24
1629800469046,4.91
1629800469062,3.02
1629800469078,1.22
1629800469093,-0.87
1629800469109,-3.45
1629800469125,-6.45
1629800469140,-9.62
1629800469156,-12.57
1629800469171,-15.03
1629800469187,-16.95
1629800469203,-18.57
1629800469218,-20.33
1629800469234,-22.76
1629800469250,-26.26
1629800469265,-30.93
1629800469281,-36.4
1629800469296,-41.82
1629800469312,-46.07
1629800469328,-47.96
1629800469343,-46.55
1629800469359,-41.47
1629800469375,-33.06
1629800469390,-22.33
1629800469406,-10.75
1629800469421,0.19
1629800469437,9.33
1629800469453,16.15
1629800469468,20.74
1629800469484,23.58
1629800469500,25.28
1629800469515,26.22
1629800469531,26.64
1629800469546,26.63
1629800469562,26.34
1629800469578,26.03
1629800469593,25.99
1629800469609,26.34
1629800469625,27.02
1629800469640,27.74
1629800469656,28.19
1629800469671,28.2
1629800469687,27.86
1629800469703,27.4
1629800469718,27.09
1629800469734,27.07
1629800469750,27.21
1629800469765,27.22
1629800469781,26.72
1629800469796,25.4
1629800469812,23.14
1629800469828,20.07
1629800469843,16.56
1629800469859,13.06
1629800469875,9.96
1629800469890,7.44
1629800469906,5.45
1629800469921,3.76
1629800469937,2.06
1629800469953,0.11
1629800469968,-2.25
1629800469984,-4.96
1629800470000,-7.9
1629800470015,-10.82
1629800470031,-13.54
1629800470046,-15.85
1629800470062,-17.78
1629800470078,-19.46
1629800470093,-21.23
1629800470109,-23.58
1629800470125,-26.9
1629800470140,-31.32
1629800470156,-36.56
1629800470171,-41.76
1629800470187,-45.68
1629800470203,-46.98
1629800470218,-44.72
1629800470234,-38.7
1629800470250,-29.61
1629800470265,-18.75
1629800470281,-7.64
1629800470296,2.51
1629800470312,11.03
1629800470328,17.75
1629800470343,22.77
1629800470359,26.18
1629800470375,28.01
1629800470390,28.26
1629800470406,27.1
1629800470421,25.02
1629800470437,22.74
1629800470453,20.99
1629800470468,20.28
1629800470484,20.72
1629800470500,21.98
1629800470515,23.57
1629800470531,24.97
1629800470546,25.88
1629800470562,26.28
1629800470578,26.29
1629800470593,26.07
1629800470609,25.6
1629800470625,24.7
1629800470640,23.13
1629800470656,20.85
1629800470671,18.08
1629800470687,15.33
1629800470703,13.13
1629800470718,11.76
1629800470734,11.13
1629800470750,10.78
1629800470765,10.08
1629800470781,8.55
1629800470796,5.97
1629800470812,2.48
1629800470828,-1.65
1629800470843,-6.08
1629800470859,-10.56
1629800470875,-14.92
1629800470890,-19.09
1629800470906,-23.12
1629800470921,-27.16
1629800470937,-31.53
1629800470953,-36.56
1629800470968,-42.45
1629800470984,-49.03
1629800471000,-55.61
1629800471015,-61.03
1629800471031,-63.88
1629800471046,-62.95
1629800471062,-57.7
1629800471078,-48.47
1629800471093,-36.47
1629800471109,-23.4
1629800471125,-10.94
1629800471140,-0.32
1629800471156,7.84
1629800471171,13.6
1629800471187,17.32
1629800471203,19.53
1629800471218,20.68
1629800471234,21.11
1629800471250,21.13
1629800471265,20.99
1629800471281,20.9
1629800471296,20.96
1629800471312,21.24
1629800471328,21.71
1629800471343,22.38
1629800471359,23.25
1629800471375,24.31
1629800471390,25.52
1629800471406,26.73
1629800471421,27.75
1629800471437,28.39
1629800471453,28.52
1629800471468,28.07
1629800471484,27.0
1629800471500,25.29
1629800471515,22.95
1629800471531,20.11
1629800471546,16.95
1629800471562,13.65
1629800471578,10.39
1629800471593,7.19
1629800471609,3.94
1629800471625,0.51
1629800471640,-3.14
1629800471656,-6.95
1629800471671,-10.71
1629800471687,-14.31
1629800471703,-17.8
1629800471718,-21.41
1629800471734,-25.49
1629800471750,-30.28
1629800471765,-35.74
1629800471781,-41.41
1629800471796,-46.48
1629800471812,-49.88
1629800471828,-50.62
1629800471843,-48.07
1629800471859,-42.16
1629800471875,-33.53
1629800471890,-23.3
1629800471906,-12.81
1629800471921,-3.17
1629800471937,4.94
1629800471953,11.35
1629800471968,16.24
1629800471984,19.92
1629800472000,22.7
1629800472015,24.7
1629800472031,26.0
1629800472046,26.72
1629800472062,27.01
1629800472078,27.07
1629800472093,27.06
1629800472109,27.05
1629800472125,27.04
1629800472140,27.01
1629800472156,27.0
1629800472171,27.12
1629800472187,27.44
1629800472203,27.86
1629800472218,28.08
1629800472234,27.65
1629800472250,26.13
1629800472265,23.36
1629800472281,19.47
1629800472296,14.94
1629800472312,10.35
1629800472328,6.13
1629800472343,2.43
1629800472359,-0.94
1629800472375,-4.25
1629800472390,-7.78
1629800472406,-11.57
1629800472421,-15.4
1629800472437,-18.95
1629800472453,-21.87
1629800472468,-24.02
1629800472484,-25.5
1629800472500,-26.6
1629800472515,-27.74
1629800472531,-29.26
1629800472546,-31.4
1629800472562,-34.14
1629800472578,-37.2
1629800472593,-40.03
1629800472609,-41.86
1629800472625,-41.8
1629800472640,-39.06
