timestamp,bvp
1630497978000,54.9
1630497978015,45.9
1630497978031,31.17
1630497978046,7.99
1630497978062,-25.41
1630497978078,-69.18
1630497978093,-121.6
1630497978109,-178.85
1630497978125,-235.2
1630497978140,-283.75
1630497978156,-317.75
1630497978171,-332.26
1630497978187,-325.64
1630497978203,-300.03
1630497978218,-260.61
1630497978234,-213.95
1630497978250,-166.02
1630497978265,-120.85
1630497978281,-80.24
1630497978296,-44.32
1630497978312,-12.5
1630497978328,15.8
1630497978343,40.78
1630497978359,62.38
1630497978375,80.47
1630497978390,95.02
1630497978406,106.11
1630497978421,113.84
1630497978437,118.26
1630497978453,119.37
1630497978468,117.24
1630497978484,112.32
1630497978500,105.68
1630497978515,98.81
1630497978531,93.08
1630497978546,89.06
1630497978562,85.88
1630497978578,81.35
1630497978593,72.76
1630497978609,58.08
1630497978625,36.99
1630497978640,11.21
1630497978656,-16.15
1630497978671,-41.72
1630497978687,-62.99
1630497978703,-78.95
1630497978718,-89.84
1630497978734,-96.51
1630497978750,-99.72
1630497978765,-99.63
1630497978781,-95.92
1630497978796,-88.15
1630497978812,-76.06
1630497978828,-59.79
1630497978843,-40.04
1630497978859,-18.22
1630497978875,3.63
1630497978890,23.03
1630497978906,37.61
1630497978921,45.91
1630497978937,47.94
1630497978953,45.36
1630497978968,40.96
1630497978984,37.56
1630497979000,37.03
1630497979015,39.6
1630497979031,44.1
1630497979046,48.65
1630497979062,51.61
1630497979078,52.06
1630497979093,49.96
1630497979109,45.8
1630497979125,40.23
1630497979140,33.97
1630497979156,27.77
1630497979171,22.51
1630497979187,19.03
1630497979203,17.81
1630497979218,18.73
1630497979234,20.95
1630497979250,23.18
1630497979265,24.11
1630497979281,22.89
1630497979296,19.38
1630497979312,13.98
1630497979328,7.32
1630497979343,-0.05
1630497979359,-7.88
1630497979375,-16.1
1630497979390,-24.51
1630497979406,-32.66
1630497979421,-39.8
1630497979437,-45.09
1630497979453,-47.86
1630497979468,-47.73
1630497979484,-44.59
1630497979500,-38.5
1630497979515,-29.73
1630497979531,-18.76
1630497979546,-6.53
1630497979562,5.64
1630497979578,16.2
1630497979593,23.77
1630497979609,27.64
1630497979625,27.95
1630497979640,25.57
1630497979656,21.77
1630497979671,17.68
1630497979687,14.01
1630497979703,10.99
1630497979718,8.47
1630497979734,6.16
1630497979750,3.85
1630497979765,1.46
1630497979781,-0.91
1630497979796,-3.1
1630497979812,-4.92
1630497979828,-6.2
1630497979843,-6.89
1630497979859,-6.97
1630497979875,-6.47
1630497979890,-5.43
1630497979906,-3.94
1630497979921,-2.1
1630497979937,-0.05
1630497979953,2.03
1630497979968,3.97
1630497979984,5.58
1630497980000,6.63
1630497980015,6.85
1630497980031,6.03
1630497980046,4.08
1630497980062,1.22
1630497980078,-2.08
1630497980093,-5.27
1630497980109,-7.86
1630497980125,-9.69
1630497980140,-10.88
1630497980156,-11.65
1630497980171,-12.12
1630497980187,-12.15
1630497980203,-11.52
1630497980218,-10.06
1630497980234,-7.95
1630497980250,-5.67
1630497980265,-3.85
1630497980281,-2.95
1630497980296,-3.05
1630497980312,-3.89
1630497980328,-5.02
1630497980343,-6.05
1630497980359,-6.87
1630497980375,-7.64
1630497980390,-8.73
1630497980406,-10.44
1630497980421,-12.77
1630497980437,-15.39
1630497980453,-17.66
1630497980468,-18.94
1630497980484,-18.76
1630497980500,-17.04
1630497980515,-14.04
1630497980531,-10.26
1630497980546,-6.2
1630497980562,-2.23
1630497980578,1.43
1630497980593,4.65
1630497980609,7.33
1630497980625,9.41
1630497980640,10.9
1630497980656,11.78
1630497980671,12.04
1630497980687,11.66
1630497980703,10.63
1630497980718,9.02
1630497980734,7.08
1630497980750,5.17
1630497980765,3.68
1630497980781,2.9
1630497980796,2.88
1630497980812,3.54
1630497980828,4.7
1630497980843,6.16
1630497980859,7.74
1630497980875,9.19
1630497980890,10.2
1630497980906,10.42
1630497980921,9.62
1630497980937,7.84
1630497980953,5.47
1630497980968,3.06
1630497980984,1.22
1630497981000,0.39
1630497981015,0.72
1630497981031,2.06
1630497981046,4.13
1630497981062,6.71
1630497981078,9.7
1630497981093,13.21
1630497981109,17.34
1630497981125,22.05
1630497981140,27.07
1630497981156,31.94
1630497981171,36.13
1630497981187,39.3
1630497981203,41.34
1630497981218,42.31
1630497981234,42.41
1630497981250,41.76
1630497981265,40.43
1630497981281,38.53
1630497981296,36.29
1630497981312,33.99
1630497981328,31.99
1630497981343,30.41
1630497981359,29.19
1630497981375,28.07
1630497981390,26.72
1630497981406,24.89
1630497981421,22.54
1630497981437,19.8
1630497981453,16.88
1630497981468,13.95
1630497981484,10.97
1630497981500,7.69
1630497981515,3.71
1630497981531,-1.42
1630497981546,-7.9
1630497981562,-15.48
1630497981578,-23.45
1630497981593,-30.82
1630497981609,-36.66
1630497981625,-40.5
1630497981640,-42.54
1630497981656,-43.5
1630497981671,-44.35
1630497981687,-45.88
1630497981703,-48.51
1630497981718,-52.21
1630497981734,-56.73
1630497981750,-61.76
1630497981765,-67.11
1630497981781,-72.6
1630497981796,-78.1
1630497981812,-83.36
1630497981828,-87.95
1630497981843,-91.42
1630497981859,-93.36
1630497981875,-93.41
1630497981890,-91.41
1630497981906,-87.41
1630497981921,-81.58
1630497981937,-74.24
1630497981953,-65.67
1630497981968,-56.08
1630497981984,-45.64
1630497982000,-34.57
1630497982015,-23.35
1630497982031,-12.79
1630497982046,-4.01
1630497982062,1.83
1630497982078,3.9
1630497982093,2.09
1630497982109,-2.87
1630497982125,-9.64
1630497982140,-16.64
1630497982156,-22.66
1630497982171,-26.99
1630497982187,-29.61
1630497982203,-30.78
1630497982218,-30.96
1630497982234,-30.61
1630497982250,-30.3
1630497982265,-30.67
1630497982281,-32.04
1630497982296,-33.97
1630497982312,-34.82
1630497982328,-32.13
1630497982343,-23.53
1630497982359,-8.12
1630497982375,12.69
1630497982390,35.31
1630497982406,55.31
1630497982421,69.17
1630497982437,75.6
1630497982453,75.62
1630497982468,71.65
1630497982484,65.9
1630497982500,59.46
1630497982515,52.04
1630497982531,42.81
1630497982546,31.28
1630497982562,17.97
1630497982578,4.28
1630497982593,-8.11
1630497982609,-18.0
1630497982625,-25.09
1630497982640,-30.08
1630497982656,-34.29
1630497982671,-39.1
1630497982687,-45.38
1630497982703,-53.06
1630497982718,-61.03
1630497982734,-67.3
1630497982750,-69.35
1630497982765,-64.86
1630497982781,-52.2
1630497982796,-30.98
1630497982812,-2.18
1630497982828,31.97
1630497982843,68.41
1630497982859,103.66
1630497982875,134.38
1630497982890,157.72
1630497982906,171.97
1630497982921,177.31
1630497982937,176.59
1630497982953,175.21
1630497982968,179.76
1630497982984,195.5
1630497983000,223.77
1630497983015,260.73
1630497983031,298.52
1630497983046,328.33
1630497983062,344.04
1630497983078,344.38
1630497983093,332.51
1630497983109,313.55
1630497983125,291.65
1630497983140,268.52
1630497983156,243.88
1630497983171,217.23
1630497983187,189.28
1630497983203,161.82
1630497983218,136.56
1630497983234,113.77
1630497983250,92.18
1630497983265,69.92
1630497983281,46.03
1630497983296,21.05
1630497983312,-3.37
1630497983328,-25.73
1630497983343,-45.76
1630497983359,-64.67
1630497983375,-84.55
1630497983390,-107.17
1630497983406,-133.3
1630497983421,-162.6
1630497983437,-194.14
1630497983453,-226.99
1630497983468,-260.9
1630497983484,-296.41
1630497983500,-334.22
1630497983515,-374.15
1630497983531,-413.87
1630497983546,-448.4
1630497983562,-470.8
1630497983578,-474.39
1630497983593,-455.35
1630497983609,-414.65
1630497983625,-357.91
1630497983640,-293.17
1630497983656,-227.75
1630497983671,-165.8
1630497983687,-107.85
1630497983703,-52.55
1630497983718,0.87
1630497983734,50.83
1630497983750,93.59
1630497983765,125.05
1630497983781,142.99
1630497983796,148.07
1630497983812,143.12
1630497983828,131.23
1630497983843,113.91
1630497983859,90.63
1630497983875,59.86
1630497983890,21.16
1630497983906,-23.16
1630497983921,-67.93
1630497983937,-106.55
1630497983953,-133.31
1630497983968,-145.36
1630497983984,-143.24
1630497984000,-130.02
1630497984015,-109.57
1630497984031,-84.98
1630497984046,-58.03
1630497984062,-29.46
1630497984078,-0.02
1630497984093,28.77
1630497984109,54.59
1630497984125,74.88
1630497984140,87.8
1630497984156,93.0
1630497984171,91.63
1630497984187,85.79
1630497984203,77.65
1630497984218,68.76
1630497984234,59.91
1630497984250,51.44
1630497984265,43.62
1630497984281,36.83
1630497984296,31.46
1630497984312,27.55
1630497984328,24.75
1630497984343,22.42
1630497984359,19.95
1630497984375,17.06
1630497984390,13.9
1630497984406,10.96
1630497984421,8.86
1630497984437,8.15
1630497984453,9.13
1630497984468,11.78
1630497984484,15.74
1630497984500,20.29
1630497984515,24.43
1630497984531,27.21
1630497984546,27.93
1630497984562,26.39
1630497984578,23.0
1630497984593,18.59
1630497984609,14.14
1630497984625,10.49
1630497984640,8.12
1630497984656,7.17
1630497984671,7.54
1630497984687,8.97
1630497984703,11.11
1630497984718,13.54
1630497984734,15.77
1630497984750,17.29
1630497984765,17.67
1630497984781,16.74
1630497984796,14.63
1630497984812,11.86
1630497984828,9.13
1630497984843,7.22
1630497984859,6.68
1630497984875,7.59
1630497984890,9.4
1630497984906,10.93
1630497984921,10.73
1630497984937,7.56
1630497984953,1.05
1630497984968,-8.02
1630497984984,-17.88
1630497985000,-26.39
1630497985015,-31.93
1630497985031,-33.81
1630497985046,-32.4
1630497985062,-28.64
1630497985078,-23.45
1630497985093,-17.38
1630497985109,-10.63
1630497985125,-3.4
1630497985140,3.84
1630497985156,10.32
1630497985171,15.14
1630497985187,17.78
1630497985203,18.25
1630497985218,17.17
1630497985234,15.62
1630497985250,14.71
1630497985265,15.2
1630497985281,17.09
1630497985296,19.39
1630497985312,20.24
1630497985328,17.47
1630497985343,9.44
1630497985359,-4.06
1630497985375,-21.32
1630497985390,-39.01
1630497985406,-53.14
1630497985421,-60.28
1630497985437,-58.66
1630497985453,-48.5
1630497985468,-31.76
1630497985484,-11.42
1630497985500,9.36
1630497985515,27.75
1630497985531,41.55
1630497985546,49.32
1630497985562,50.51
1630497985578,45.52
1630497985593,35.63
1630497985609,22.83
1630497985625,9.22
1630497985640,-3.38
1630497985656,-13.75
1630497985671,-21.35
1630497985687,-26.17
1630497985703,-28.47
1630497985718,-28.62
1630497985734,-26.9
1630497985750,-23.5
1630497985765,-18.48
1630497985781,-11.91
1630497985796,-3.95
1630497985812,5.06
1630497985828,14.44
1630497985843,23.23
1630497985859,30.32
1630497985875,34.69
1630497985890,35.77
1630497985906,33.61
1630497985921,28.94
1630497985937,22.94
1630497985953,16.87
1630497985968,11.79
1630497985984,8.25
1630497986000,6.34
1630497986015,5.77
1630497986031,6.12
1630497986046,7.03
1630497986062,8.36
1630497986078,10.07
1630497986093,12.12
1630497986109,14.32
1630497986125,16.34
1630497986140,17.71
1630497986156,18.06
1630497986171,17.3
1630497986187,15.69
1630497986203,13.75
1630497986218,12.08
1630497986234,11.02
1630497986250,10.5
1630497986265,10.05
1630497986281,9.1
1630497986296,7.33
1630497986312,4.95
1630497986328,2.65
1630497986343,1.28
1630497986359,1.41
1630497986375,3.0
1630497986390,5.42
1630497986406,7.69
1630497986421,9.02
1630497986437,9.12
1630497986453,8.32
1630497986468,7.35
1630497986484,6.92
1630497986500,7.44
1630497986515,8.92
1630497986531,10.9
1630497986546,12.51
1630497986562,12.36
1630497986578,8.66
1630497986593,-0.36
1630497986609,-15.69
1630497986625,-36.73
1630497986640,-60.94
1630497986656,-84.22
1630497986671,-102.03
1630497986687,-110.82
1630497986703,-109.0
1630497986718,-97.13
1630497986734,-77.3
1630497986750,-52.16
1630497986765,-24.28
1630497986781,3.97
1630497986796,30.22
1630497986812,52.12
1630497986828,67.54
1630497986843,75.23
1630497986859,75.35
1630497986875,69.45
1630497986890,60.04
1630497986906,49.68
1630497986921,40.25
1630497986937,32.65
1630497986953,26.93
1630497986968,22.74
1630497986984,19.73
1630497987000,17.71
1630497987015,16.57
1630497987031,16.1
1630497987046,16.01
1630497987062,15.91
1630497987078,15.61
1630497987093,15.18
1630497987109,14.88
1630497987125,15.0
1630497987140,15.59
1630497987156,16.36
1630497987171,16.75
1630497987187,16.27
1630497987203,14.73
1630497987218,12.45
1630497987234,10.04
1630497987250,8.17
1630497987265,7.24
1630497987281,7.31
1630497987296,8.1
1630497987312,9.26
1630497987328,10.46
1630497987343,11.35
1630497987359,11.48
1630497987375,10.24
1630497987390,6.96
1630497987406,1.21
1630497987421,-6.92
1630497987437,-16.86
1630497987453,-27.81
1630497987468,-39.28
1630497987484,-51.45
1630497987500,-65.0
1630497987515,-80.44
1630497987531,-97.35
1630497987546,-113.83
1630497987562,-126.83
1630497987578,-133.09
1630497987593,-130.34
1630497987609,-117.98
1630497987625,-97.13
1630497987640,-69.98
1630497987656,-38.93
1630497987671,-6.12
1630497987687,26.58
1630497987703,57.26
1630497987718,83.79
1630497987734,103.8
1630497987750,115.37
1630497987765,117.52
1630497987781,110.69
1630497987796,96.75
1630497987812,78.54
1630497987828,59.21
1630497987843,41.46
1630497987859,27.1
1630497987875,16.76
1630497987890,10.16
1630497987906,6.49
1630497987921,4.82
1630497987937,4.42
1630497987953,4.79
1630497987968,5.51
1630497987984,6.15
1630497988000,6.23
1630497988015,5.42
1630497988031,3.7
1630497988046,1.49
1630497988062,-0.51
1630497988078,-1.57
1630497988093,-1.3
1630497988109,0.15
1630497988125,2.04
1630497988140,3.33
1630497988156,3.01
1630497988171,0.56
1630497988187,-3.87
1630497988203,-9.58
1630497988218,-15.47
1630497988234,-20.53
1630497988250,-24.1
1630497988265,-26.01
1630497988281,-26.5
1630497988296,-25.97
1630497988312,-24.73
1630497988328,-22.94
1630497988343,-20.64
1630497988359,-17.81
1630497988375,-14.55
1630497988390,-11.1
1630497988406,-7.7
1630497988421,-4.6
1630497988437,-1.94
1630497988453,0.21
1630497988468,1.83
1630497988484,2.87
1630497988500,3.3
1630497988515,3.2
1630497988531,2.8
1630497988546,2.55
1630497988562,2.92
1630497988578,4.24
1630497988593,6.57
1630497988609,9.61
1630497988625,12.84
1630497988640,15.62
1630497988656,17.42
1630497988671,17.94
1630497988687,17.17
1630497988703,15.28
1630497988718,12.51
1630497988734,9.12
1630497988750,5.25
1630497988765,1.05
1630497988781,-3.31
1630497988796,-7.57
1630497988812,-11.4
1630497988828,-14.43
1630497988843,-16.43
1630497988859,-17.4
1630497988875,-17.55
1630497988890,-17.23
1630497988906,-16.73
1630497988921,-16.17
1630497988937,-15.47
1630497988953,-14.48
1630497988968,-13.09
1630497988984,-11.37
1630497989000,-9.53
1630497989015,-7.77
1630497989031,-6.23
1630497989046,-4.91
1630497989062,-3.67
1630497989078,-2.39
1630497989093,-1.06
1630497989109,0.29
1630497989125,1.53
1630497989140,2.54
1630497989156,3.22
1630497989171,3.55
1630497989187,3.56
1630497989203,3.38
1630497989218,3.18
1630497989234,3.14
1630497989250,3.41
1630497989265,4.01
1630497989281,4.81
1630497989296,5.55
1630497989312,6.01
1630497989328,6.06
1630497989343,5.8
1630497989359,5.43
1630497989375,5.14
1630497989390,4.99
1630497989406,4.89
1630497989421,4.6
1630497989437,3.99
1630497989453,3.05
1630497989468,1.95
1630497989484,0.92
1630497989500,0.17
1630497989515,-0.18
1630497989531,-0.12
1630497989546,0.32
1630497989562,1.07
1630497989578,2.05
1630497989593,3.13
1630497989609,4.12
1630497989625,4.85
1630497989640,5.17
1630497989656,5.05
1630497989671,4.59
1630497989687,3.9
1630497989703,3.13
1630497989718,2.32
1630497989734,1.47
1630497989750,0.54
1630497989765,-0.49
1630497989781,-1.58
1630497989796,-2.67
1630497989812,-3.65
1630497989828,-4.42
1630497989843,-4.88
1630497989859,-5.0
1630497989875,-4.82
1630497989890,-4.45
1630497989906,-4.0
1630497989921,-3.59
1630497989937,-3.32
1630497989953,-3.25
1630497989968,-3.42
1630497989984,-3.92
1630497990000,-4.73
1630497990015,-5.81
1630497990031,-7.03
1630497990046,-8.2
1630497990062,-9.13
1630497990078,-9.74
1630497990093,-10.0
1630497990109,-9.95
1630497990125,-9.66
1630497990140,-9.17
1630497990156,-8.53
1630497990171,-7.78
1630497990187,-6.94
1630497990203,-6.01
1630497990218,-4.99
1630497990234,-3.84
1630497990250,-2.63
1630497990265,-1.5
1630497990281,-0.57
1630497990296,0.05
1630497990312,0.32
1630497990328,0.38
1630497990343,0.37
1630497990359,0.43
1630497990375,0.58
1630497990390,0.78
1630497990406,0.96
1630497990421,1.12
1630497990437,1.31
1630497990453,1.64
1630497990468,2.18
1630497990484,2.91
1630497990500,3.7
1630497990515,4.38
1630497990531,4.77
1630497990546,4.76
1630497990562,4.36
1630497990578,3.64
1630497990593,2.74
1630497990609,1.76
1630497990625,0.76
1630497990640,-0.28
1630497990656,-1.42
1630497990671,-2.71
1630497990687,-4.11
1630497990703,-5.46
1630497990718,-6.57
1630497990734,-7.22
1630497990750,-7.24
1630497990765,-6.62
1630497990781,-5.48
1630497990796,-4.07
1630497990812,-2.67
1630497990828,-1.56
1630497990843,-0.88
1630497990859,-0.66
1630497990875,-0.82
1630497990890,-1.22
1630497990906,-1.75
1630497990921,-2.32
1630497990937,-2.9
1630497990953,-3.4
1630497990968,-3.77
1630497990984,-3.87
1630497991000,-3.62
1630497991015,-3.03
1630497991031,-2.2
1630497991046,-1.36
1630497991062,-0.76
1630497991078,-0.62
1630497991093,-0.99
1630497991109,-1.75
1630497991125,-2.65
1630497991140,-3.43
1630497991156,-3.87
1630497991171,-3.93
1630497991187,-3.68
1630497991203,-3.29
1630497991218,-2.91
1630497991234,-2.68
1630497991250,-2.66
1630497991265,-2.84
1630497991281,-3.2
1630497991296,-3.67
1630497991312,-4.18
1630497991328,-4.56
1630497991343,-4.57
1630497991359,-4.01
1630497991375,-2.84
1630497991390,-1.23
1630497991406,0.43
1630497991421,1.7
1630497991437,2.26
1630497991453,2.11
1630497991468,1.51
1630497991484,0.83
1630497991500,0.41
1630497991515,0.33
1630497991531,0.47
1630497991546,0.59
1630497991562,0.59
1630497991578,0.52
1630497991593,0.61
1630497991609,1.01
1630497991625,1.75
1630497991640,2.64
1630497991656,3.34
1630497991671,3.61
1630497991687,3.39
1630497991703,2.87
1630497991718,2.35
1630497991734,2.05
1630497991750,2.03
1630497991765,2.14
1630497991781,2.17
1630497991796,1.93
1630497991812,1.38
1630497991828,0.6
1630497991843,-0.27
1630497991859,-1.13
1630497991875,-1.88
1630497991890,-2.47
1630497991906,-2.75
1630497991921,-2.62
1630497991937,-1.95
1630497991953,-0.74
1630497991968,0.89
1630497991984,2.74
1630497992000,4.59
1630497992015,6.25
1630497992031,7.52
1630497992046,8.21
1630497992062,8.21
1630497992078,7.56
1630497992093,6.52
1630497992109,5.49
1630497992125,4.89
1630497992140,4.97
1630497992156,5.68
1630497992171,6.74
1630497992187,7.8
1630497992203,8.58
1630497992218,8.98
1630497992234,9.04
1630497992250,8.78
1630497992265,8.2
1630497992281,7.24
1630497992296,5.91
1630497992312,4.35
1630497992328,2.79
1630497992343,1.51
1630497992359,0.63
1630497992375,0.17
1630497992390,-0.09
1630497992406,-0.41
1630497992421,-1.05
1630497992437,-2.12
1630497992453,-3.61
1630497992468,-5.28
1630497992484,-6.85
1630497992500,-8.03
1630497992515,-8.59
1630497992531,-8.45
1630497992546,-7.63
1630497992562,-6.25
1630497992578,-4.5
1630497992593,-2.6
1630497992609,-0.79
1630497992625,0.69
1630497992640,1.65
1630497992656,2.08
1630497992671,2.03
1630497992687,1.71
1630497992703,1.3
1630497992718,0.91
1630497992734,0.52
1630497992750,0.07
1630497992765,-0.46
1630497992781,-1.05
1630497992796,-1.7
1630497992812,-2.4
1630497992828,-3.19
1630497992843,-4.07
1630497992859,-4.99
1630497992875,-5.78
1630497992890,-6.3
1630497992906,-6.54
1630497992921,-6.6
1630497992937,-6.73
1630497992953,-7.14
1630497992968,-7.88
1630497992984,-8.83
1630497993000,-9.75
1630497993015,-10.41
1630497993031,-10.71
1630497993046,-10.74
1630497993062,-10.68
1630497993078,-10.68
1630497993093,-10.81
1630497993109,-10.93
1630497993125,-10.81
1630497993140,-10.24
1630497993156,-9.13
1630497993171,-7.62
1630497993187,-5.99
1630497993203,-4.48
1630497993218,-3.21
1630497993234,-2.1
1630497993250,-0.95
1630497993265,0.34
1630497993281,1.71
1630497993296,2.96
1630497993312,3.84
1630497993328,4.25
1630497993343,4.28
1630497993359,4.17
1630497993375,4.14
1630497993390,4.33
1630497993406,4.74
1630497993421,5.25
1630497993437,5.76
1630497993453,6.18
1630497993468,6.44
1630497993484,6.53
1630497993500,6.4
1630497993515,6.07
1630497993531,5.53
1630497993546,4.75
1630497993562,3.71
1630497993578,2.39
1630497993593,0.88
1630497993609,-0.72
1630497993625,-2.25
1630497993640,-3.62
1630497993656,-4.83
1630497993671,-5.96
1630497993687,-7.07
1630497993703,-8.17
1630497993718,-9.11
1630497993734,-9.62
1630497993750,-9.48
1630497993765,-8.58
1630497993781,-7.07
1630497993796,-5.18
1630497993812,-3.25
1630497993828,-1.51
1630497993843,-0.11
1630497993859,0.98
1630497993875,1.82
1630497993890,2.47
1630497993906,3.0
1630497993921,3.42
1630497993937,3.71
1630497993953,3.91
1630497993968,4.09
1630497993984,4.32
1630497994000,4.68
1630497994015,5.16
1630497994031,5.69
1630497994046,6.2
1630497994062,6.57
1630497994078,6.73
1630497994093,6.66
1630497994109,6.34
1630497994125,5.78
1630497994140,5.02
1630497994156,4.08
1630497994171,3.06
1630497994187,2.04
1630497994203,1.17
1630497994218,0.52
1630497994234,0.09
1630497994250,-0.19
1630497994265,-0.46
1630497994281,-0.89
1630497994296,-1.68
1630497994312,-2.86
1630497994328,-4.35
1630497994343,-5.9
1630497994359,-7.12
1630497994375,-7.61
1630497994390,-7.12
1630497994406,-5.65
1630497994421,-3.47
1630497994437,-0.97
1630497994453,1.48
1630497994468,3.63
1630497994484,5.38
1630497994500,6.74
1630497994515,7.73
1630497994531,8.39
1630497994546,8.74
1630497994562,8.84
1630497994578,8.86
1630497994593,8.94
1630497994609,9.22
1630497994625,9.71
1630497994640,10.3
1630497994656,10.77
1630497994671,10.9
1630497994687,10.55
1630497994703,9.76
1630497994718,8.73
1630497994734,7.76
1630497994750,7.12
1630497994765,6.9
1630497994781,7.04
1630497994796,7.27
1630497994812,7.35
1630497994828,7.08
1630497994843,6.43
1630497994859,5.48
1630497994875,4.39
1630497994890,3.25
1630497994906,2.12
1630497994921,0.96
1630497994937,-0.32
1630497994953,-1.72
1630497994968,-3.22
1630497994984,-4.66
1630497995000,-5.85
1630497995015,-6.56
1630497995031,-6.63
1630497995046,-6.01
1630497995062,-4.8
1630497995078,-3.15
1630497995093,-1.3
1630497995109,0.54
1630497995125,2.2
1630497995140,3.52
1630497995156,4.41
1630497995171,4.79
1630497995187,4.68
1630497995203,4.18
1630497995218,3.45
1630497995234,2.69
1630497995250,2.12
1630497995265,1.87
1630497995281,2.0
1630497995296,2.4
1630497995312,2.9
1630497995328,3.33
1630497995343,3.59
1630497995359,3.68
1630497995375,3.67
1630497995390,3.65
1630497995406,3.62
1630497995421,3.49
1630497995437,3.1
1630497995453,2.33
1630497995468,1.21
1630497995484,-0.13
1630497995500,-1.49
1630497995515,-2.73
1630497995531,-3.82
1630497995546,-4.86
1630497995562,-5.94
1630497995578,-7.08
1630497995593,-8.22
1630497995609,-9.18
1630497995625,-9.78
1630497995640,-9.9
1630497995656,-9.5
1630497995671,-8.59
1630497995687,-7.24
1630497995703,-5.57
1630497995718,-3.74
1630497995734,-1.96
1630497995750,-0.46
1630497995765,0.61
1630497995781,1.16
1630497995796,1.27
1630497995812,1.12
1630497995828,1.01
1630497995843,1.16
1630497995859,1.69
1630497995875,2.56
1630497995890,3.58
1630497995906,4.51
1630497995921,5.16
1630497995937,5.44
1630497995953,5.37
1630497995968,5.09
1630497995984,4.69
1630497996000,4.28
1630497996015,3.89
1630497996031,3.53
1630497996046,3.21
1630497996062,2.85
1630497996078,2.39
1630497996093,1.75
1630497996109,0.89
1630497996125,-0.15
1630497996140,-1.25
1630497996156,-2.3
1630497996171,-3.22
1630497996187,-4.03
1630497996203,-4.82
1630497996218,-5.69
1630497996234,-6.64
1630497996250,-7.57
1630497996265,-8.29
1630497996281,-8.53
1630497996296,-8.05
1630497996312,-6.71
1630497996328,-4.5
1630497996343,-1.63
1630497996359,1.51
1630497996375,4.41
1630497996390,6.58
1630497996406,7.75
1630497996421,7.91
1630497996437,7.34
1630497996453,6.45
1630497996468,5.67
1630497996484,5.26
1630497996500,5.3
1630497996515,5.68
1630497996531,6.18
1630497996546,6.55
1630497996562,6.64
1630497996578,6.42
1630497996593,5.91
1630497996609,5.28
1630497996625,4.67
1630497996640,4.21
1630497996656,3.95
1630497996671,3.86
1630497996687,3.84
1630497996703,3.71
1630497996718,3.33
1630497996734,2.6
1630497996750,1.54
1630497996765,0.25
1630497996781,-1.12
1630497996796,-2.48
1630497996812,-3.76
1630497996828,-4.98
1630497996843,-6.17
1630497996859,-7.29
1630497996875,-8.26
1630497996890,-8.88
1630497996906,-8.94
1630497996921,-8.33
1630497996937,-7.05
1630497996953,-5.24
1630497996968,-3.09
1630497996984,-0.81
1630497997000,1.43
1630497997015,3.52
1630497997031,5.33
1630497997046,6.78
1630497997062,7.76
1630497997078,8.27
1630497997093,8.38
1630497997109,8.21
1630497997125,7.86
1630497997140,7.36
1630497997156,6.68
1630497997171,5.77
1630497997187,4.68
1630497997203,3.54
1630497997218,2.58
1630497997234,1.98
1630497997250,1.79
1630497997265,1.89
1630497997281,2.08
1630497997296,2.15
1630497997312,1.96
1630497997328,1.49
1630497997343,0.73
1630497997359,-0.28
1630497997375,-1.46
1630497997390,-2.77
1630497997406,-4.15
1630497997421,-5.52
1630497997437,-6.86
1630497997453,-8.14
1630497997468,-9.31
1630497997484,-10.27
1630497997500,-10.83
1630497997515,-10.75
1630497997531,-9.87
1630497997546,-8.16
1630497997562,-5.78
1630497997578,-3.09
1630497997593,-0.53
1630497997609,1.52
1630497997625,2.86
1630497997640,3.51
1630497997656,3.68
1630497997671,3.63
1630497997687,3.56
1630497997703,3.52
1630497997718,3.47
1630497997734,3.35
1630497997750,3.15
1630497997765,2.95
1630497997781,2.87
1630497997796,2.98
1630497997812,3.25
1630497997828,3.54
1630497997843,3.67
1630497997859,3.51
1630497997875,3.04
1630497997890,2.35
1630497997906,1.62
1630497997921,0.98
1630497997937,0.51
1630497997953,0.13
1630497997968,-0.33
1630497997984,-1.06
1630497998000,-2.19
1630497998015,-3.72
1630497998031,-5.49
1630497998046,-7.28
1630497998062,-8.84
1630497998078,-9.96
1630497998093,-10.47
1630497998109,-10.25
1630497998125,-9.24
1630497998140,-7.47
1630497998156,-5.1
1630497998171,-2.46
1630497998187,0.04
1630497998203,2.02
1630497998218,3.29
1630497998234,3.83
1630497998250,3.82
1630497998265,3.49
1630497998281,3.04
1630497998296,2.59
1630497998312,2.17
1630497998328,1.82
1630497998343,1.55
1630497998359,1.4
1630497998375,1.37
1630497998390,1.39
1630497998406,1.37
1630497998421,1.18
1630497998437,0.77
1630497998453,0.16
1630497998468,-0.55
1630497998484,-1.26
1630497998500,-1.86
1630497998515,-2.32
1630497998531,-2.68
1630497998546,-3.04
1630497998562,-3.53
1630497998578,-4.3
1630497998593,-5.48
1630497998609,-7.08
1630497998625,-9.01
1630497998640,-10.98
1630497998656,-12.6
1630497998671,-13.49
1630497998687,-13.28
1630497998703,-11.88
1630497998718,-9.4
1630497998734,-6.22
1630497998750,-2.8
1630497998765,0.34
1630497998781,2.83
1630497998796,4.5
1630497998812,5.38
1630497998828,5.69
1630497998843,5.71
1630497998859,5.7
1630497998875,5.78
1630497998890,6.01
1630497998906,6.35
1630497998921,6.73
1630497998937,7.11
1630497998953,7.46
1630497998968,7.75
1630497998984,7.98
1630497999000,8.06
1630497999015,7.93
1630497999031,7.54
1630497999046,6.9
1630497999062,6.14
1630497999078,5.37
1630497999093,4.65
1630497999109,3.96
1630497999125,3.2
1630497999140,2.23
1630497999156,0.97
1630497999171,-0.55
1630497999187,-2.21
1630497999203,-3.84
1630497999218,-5.24
1630497999234,-6.26
1630497999250,-6.79
1630497999265,-6.71
1630497999281,-5.91
1630497999296,-4.31
1630497999312,-1.85
1630497999328,1.44
1630497999343,5.42
1630497999359,9.77
1630497999375,14.1
1630497999390,17.98
1630497999406,21.11
1630497999421,23.34
1630497999437,24.77
1630497999453,25.66
1630497999468,26.38
1630497999484,27.27
1630497999500,28.59
1630497999515,30.42
1630497999531,32.58
1630497999546,34.69
1630497999562,36.3
1630497999578,37.05
1630497999593,36.99
1630497999609,36.58
1630497999625,36.55
1630497999640,37.54
1630497999656,39.8
1630497999671,42.96
1630497999687,46.16
1630497999703,48.43
1630497999718,49.05
1630497999734,47.84
1630497999750,45.25
1630497999765,42.24
1630497999781,39.99
1630497999796,39.45
1630497999812,40.61
1630497999828,42.1
1630497999843,40.99
1630497999859,33.32
1630497999875,15.16
1630497999890,-16.13
1630497999906,-60.68
1630497999921,-115.6
1630497999937,-175.24
1630497999953,-232.24
1630497999968,-279.06
1630497999984,-309.41
1630498000000,-319.37
1630498000015,-307.83
1630498000031,-276.45
1630498000046,-229.14
1630498000062,-171.43
1630498000078,-109.59
1630498000093,-49.82
1630498000109,2.65
1630498000125,44.22
1630498000140,73.35
1630498000156,90.67
1630498000171,98.43
1630498000187,99.64
1630498000203,97.17
1630498000218,93.03
1630498000234,88.25
1630498000250,83.11
1630498000265,77.58
1630498000281,71.64
1630498000296,65.51
1630498000312,59.46
1630498000328,53.72
1630498000343,48.34
1630498000359,43.18
1630498000375,38.09
1630498000390,32.9
1630498000406,27.67
1630498000421,22.55
1630498000437,17.9
1630498000453,14.12
1630498000468,11.56
1630498000484,10.4
1630498000500,10.52
1630498000515,11.57
1630498000531,12.96
1630498000546,14.12
1630498000562,14.65
1630498000578,14.45
1630498000593,13.61
1630498000609,12.36
1630498000625,10.88
1630498000640,9.23
1630498000656,7.45
1630498000671,5.55
1630498000687,3.65
1630498000703,1.87
1630498000718,0.42
1630498000734,-0.6
1630498000750,-1.09
1630498000765,-1.03
1630498000781,-0.44
1630498000796,0.57
1630498000812,1.83
1630498000828,3.12
1630498000843,4.21
1630498000859,5.02
1630498000875,5.51
1630498000890,5.73
1630498000906,5.71
1630498000921,5.39
1630498000937,4.72
1630498000953,3.66
1630498000968,2.31
1630498000984,0.83
1630498001000,-0.62
1630498001015,-1.9
1630498001031,-2.97
1630498001046,-3.79
1630498001062,-4.33
1630498001078,-4.53
1630498001093,-4.32
1630498001109,-3.72
1630498001125,-2.81
1630498001140,-1.75
1630498001156,-0.66
1630498001171,0.34
1630498001187,1.24
1630498001203,1.98
1630498001218,2.47
1630498001234,2.59
1630498001250,2.22
1630498001265,1.36
1630498001281,0.13
1630498001296,-1.2
1630498001312,-2.31
1630498001328,-2.94
1630498001343,-3.01
1630498001359,-2.63
1630498001375,-2.04
1630498001390,-1.55
1630498001406,-1.38
1630498001421,-1.65
1630498001437,-2.34
1630498001453,-3.34
1630498001468,-4.46
1630498001484,-5.52
1630498001500,-6.39
1630498001515,-6.99
1630498001531,-7.31
1630498001546,-7.4
1630498001562,-7.34
1630498001578,-7.25
1630498001593,-7.22
1630498001609,-7.29
1630498001625,-7.42
1630498001640,-7.57
1630498001656,-7.59
1630498001671,-7.34
1630498001687,-6.68
1630498001703,-5.52
1630498001718,-3.85
1630498001734,-1.81
1630498001750,0.42
1630498001765,2.6
1630498001781,4.55
1630498001796,6.18
1630498001812,7.46
1630498001828,8.41
1630498001843,9.05
1630498001859,9.3
1630498001875,9.1
1630498001890,8.38
1630498001906,7.25
1630498001921,5.94
1630498001937,4.72
1630498001953,3.81
1630498001968,3.27
1630498001984,3.0
1630498002000,2.84
1630498002015,2.67
1630498002031,2.42
1630498002046,2.13
1630498002062,1.81
1630498002078,1.45
1630498002093,0.96
1630498002109,0.3
1630498002125,-0.48
1630498002140,-1.29
1630498002156,-2.01
1630498002171,-2.61
1630498002187,-3.14
1630498002203,-3.7
1630498002218,-4.36
1630498002234,-5.12
1630498002250,-5.93
1630498002265,-6.74
1630498002281,-7.46
1630498002296,-7.97
1630498002312,-8.14
1630498002328,-7.79
1630498002343,-6.84
1630498002359,-5.35
1630498002375,-3.53
1630498002390,-1.65
1630498002406,0.05
1630498002421,1.43
1630498002437,2.5
1630498002453,3.28
1630498002468,3.78
1630498002484,4.01
1630498002500,4.03
1630498002515,3.91
1630498002531,3.83
1630498002546,3.91
1630498002562,4.19
1630498002578,4.59
1630498002593,4.95
1630498002609,5.14
1630498002625,5.07
1630498002640,4.79
1630498002656,4.36
1630498002671,3.86
1630498002687,3.35
1630498002703,2.86
1630498002718,2.4
1630498002734,1.96
1630498002750,1.52
1630498002765,1.01
1630498002781,0.41
1630498002796,-0.3
1630498002812,-1.08
1630498002828,-1.86
1630498002843,-2.57
1630498002859,-3.17
1630498002875,-3.69
1630498002890,-4.19
1630498002906,-4.77
1630498002921,-5.53
1630498002937,-6.48
1630498002953,-7.56
1630498002968,-8.56
1630498002984,-9.18
1630498003000,-9.08
1630498003015,-8.04
1630498003031,-6.1
1630498003046,-3.55
1630498003062,-0.88
1630498003078,1.41
1630498003093,3.0
1630498003109,3.84
1630498003125,4.12
1630498003140,4.15
1630498003156,4.15
1630498003171,4.18
1630498003187,4.23
1630498003203,4.22
1630498003218,4.18
1630498003234,4.22
1630498003250,4.5
1630498003265,5.04
1630498003281,5.74
1630498003296,6.36
1630498003312,6.68
1630498003328,6.57
1630498003343,6.06
1630498003359,5.34
1630498003375,4.63
1630498003390,4.08
1630498003406,3.72
1630498003421,3.47
1630498003437,3.21
1630498003453,2.81
1630498003468,2.25
1630498003484,1.54
1630498003500,0.75
1630498003515,-0.02
1630498003531,-0.68
1630498003546,-1.2
1630498003562,-1.6
1630498003578,-1.98
1630498003593,-2.44
1630498003609,-3.03
1630498003625,-3.68
1630498003640,-4.25
1630498003656,-4.51
1630498003671,-4.36
1630498003687,-3.79
1630498003703,-2.95
1630498003718,-1.99
1630498003734,-1.06
1630498003750,-0.16
1630498003765,0.68
1630498003781,1.49
1630498003796,2.19
1630498003812,2.72
1630498003828,3.03
1630498003843,3.17
1630498003859,3.26
1630498003875,3.38
1630498003890,3.51
1630498003906,3.54
1630498003921,3.34
1630498003937,2.9
1630498003953,2.32
1630498003968,1.78
1630498003984,1.45
1630498004000,1.34
1630498004015,1.36
1630498004031,1.33
1630498004046,1.09
1630498004062,0.58
1630498004078,-0.21
1630498004093,-1.23
1630498004109,-2.37
1630498004125,-3.54
1630498004140,-4.66
1630498004156,-5.65
1630498004171,-6.5
1630498004187,-7.21
1630498004203,-7.81
1630498004218,-8.3
1630498004234,-8.67
1630498004250,-8.86
1630498004265,-8.81
1630498004281,-8.46
1630498004296,-7.79
1630498004312,-6.81
1630498004328,-5.52
1630498004343,-4.01
1630498004359,-2.37
1630498004375,-0.77
1630498004390,0.61
1630498004406,1.64
1630498004421,2.29
1630498004437,2.57
1630498004453,2.6
1630498004468,2.46
1630498004484,2.23
1630498004500,1.95
1630498004515,1.66
1630498004531,1.43
1630498004546,1.31
1630498004562,1.3
1630498004578,1.39
1630498004593,1.51
1630498004609,1.63
1630498004625,1.72
1630498004640,1.77
1630498004656,1.75
1630498004671,1.56
1630498004687,1.12
1630498004703,0.4
1630498004718,-0.52
1630498004734,-1.4
1630498004750,-2.03
1630498004765,-2.31
1630498004781,-2.29
1630498004796,-2.2
1630498004812,-2.26
1630498004828,-2.57
1630498004843,-3.05
1630498004859,-3.52
1630498004875,-3.77
1630498004890,-3.69
1630498004906,-3.3
1630498004921,-2.67
1630498004937,-1.88
1630498004953,-0.98
1630498004968,0.04
1630498004984,1.17
1630498005000,2.36
1630498005015,3.48
1630498005031,4.39
1630498005046,4.97
1630498005062,5.2
1630498005078,5.13
1630498005093,4.88
1630498005109,4.53
1630498005125,4.08
1630498005140,3.49
1630498005156,2.69
1630498005171,1.72
1630498005187,0.73
1630498005203,-0.08
1630498005218,-0.58
1630498005234,-0.71
1630498005250,-0.57
1630498005265,-0.33
1630498005281,-0.18
1630498005296,-0.2
1630498005312,-0.44
1630498005328,-0.84
1630498005343,-1.35
1630498005359,-1.91
1630498005375,-2.5
1630498005390,-3.12
1630498005406,-3.79
1630498005421,-4.57
1630498005437,-5.49
1630498005453,-6.57
1630498005468,-7.72
1630498005484,-8.84
1630498005500,-9.75
1630498005515,-10.28
1630498005531,-10.26
1630498005546,-9.6
1630498005562,-8.35
1630498005578,-6.66
1630498005593,-4.8
1630498005609,-3.01
1630498005625,-1.43
1630498005640,-0.11
1630498005656,1.03
1630498005671,2.02
1630498005687,2.83
1630498005703,3.4
1630498005718,3.69
1630498005734,3.76
1630498005750,3.75
1630498005765,3.89
1630498005781,4.27
1630498005796,4.84
1630498005812,5.41
1630498005828,5.74
1630498005843,5.69
1630498005859,5.28
1630498005875,4.69
1630498005890,4.14
1630498005906,3.83
1630498005921,3.71
1630498005937,3.64
1630498005953,3.27
1630498005968,2.32
1630498005984,0.67
1630498006000,-1.55
1630498006015,-4.03
1630498006031,-6.41
1630498006046,-8.34
1630498006062,-9.71
1630498006078,-10.44
1630498006093,-10.52
1630498006109,-9.91
1630498006125,-8.57
1630498006140,-6.53
1630498006156,-4.0
1630498006171,-1.29
1630498006187,1.22
1630498006203,3.24
1630498006218,4.66
1630498006234,5.53
1630498006250,6.0
1630498006265,6.19
1630498006281,6.18
1630498006296,5.99
1630498006312,5.61
1630498006328,5.06
1630498006343,4.38
1630498006359,3.68
1630498006375,3.05
1630498006390,2.52
1630498006406,2.1
1630498006421,1.72
1630498006437,1.33
1630498006453,0.89
1630498006468,0.4
1630498006484,-0.1
1630498006500,-0.58
1630498006515,-1.08
1630498006531,-1.65
1630498006546,-2.3
1630498006562,-3.05
1630498006578,-3.84
1630498006593,-4.64
1630498006609,-5.38
1630498006625,-6.02
1630498006640,-6.47
1630498006656,-6.68
1630498006671,-6.59
1630498006687,-6.18
1630498006703,-5.51
1630498006718,-4.58
1630498006734,-3.46
1630498006750,-2.2
1630498006765,-0.86
1630498006781,0.42
1630498006796,1.46
1630498006812,2.08
1630498006828,2.24
1630498006843,2.03
1630498006859,1.69
1630498006875,1.45
1630498006890,1.42
1630498006906,1.59
1630498006921,1.84
1630498006937,2.04
1630498006953,2.16
1630498006968,2.26
1630498006984,2.39
1630498007000,2.58
1630498007015,2.76
1630498007031,2.86
1630498007046,2.8
1630498007062,2.51
1630498007078,2.03
1630498007093,1.41
1630498007109,0.74
1630498007125,0.06
1630498007140,-0.59
1630498007156,-1.26
1630498007171,-2.09
1630498007187,-3.23
1630498007203,-4.73
1630498007218,-6.52
1630498007234,-8.28
1630498007250,-9.61
1630498007265,-10.14
1630498007281,-9.62
1630498007296,-8.1
1630498007312,-5.88
1630498007328,-3.33
1630498007343,-0.87
1630498007359,1.27
1630498007375,2.95
1630498007390,4.15
1630498007406,4.9
1630498007421,5.26
1630498007437,5.26
1630498007453,4.89
1630498007468,4.1
1630498007484,2.95
1630498007500,1.58
1630498007515,0.28
1630498007531,-0.64
1630498007546,-1.0
1630498007562,-0.82
1630498007578,-0.33
1630498007593,0.1
1630498007609,0.19
1630498007625,-0.18
1630498007640,-0.88
1630498007656,-1.71
1630498007671,-2.48
1630498007687,-3.08
1630498007703,-3.54
1630498007718,-3.97
1630498007734,-4.46
1630498007750,-5.1
1630498007765,-5.95
1630498007781,-7.01
1630498007796,-8.2
1630498007812,-9.33
1630498007828,-10.17
1630498007843,-10.44
1630498007859,-9.92
1630498007875,-8.54
1630498007890,-6.41
1630498007906,-3.75
1630498007921,-0.94
1630498007937,1.67
1630498007953,3.8
1630498007968,5.34
1630498007984,6.33
1630498008000,6.95
1630498008015,7.36
1630498008031,7.64
1630498008046,7.77
1630498008062,7.61
1630498008078,7.09
1630498008093,6.26
1630498008109,5.35
1630498008125,4.59
1630498008140,4.17
1630498008156,4.1
1630498008171,4.2
1630498008187,4.21
1630498008203,3.95
1630498008218,3.36
1630498008234,2.59
1630498008250,1.86
1630498008265,1.33
1630498008281,1.03
1630498008296,0.78
1630498008312,0.35
1630498008328,-0.47
1630498008343,-1.72
1630498008359,-3.27
1630498008375,-4.93
1630498008390,-6.49
1630498008406,-7.86
1630498008421,-8.96
1630498008437,-9.64
1630498008453,-9.67
1630498008468,-8.79
1630498008484,-6.83
1630498008500,-3.93
1630498008515,-0.49
1630498008531,2.92
1630498008546,5.76
1630498008562,7.71
1630498008578,8.7
1630498008593,8.88
1630498008609,8.5
1630498008625,7.79
1630498008640,6.95
1630498008656,6.17
1630498008671,5.62
1630498008687,5.45
1630498008703,5.72
1630498008718,6.38
1630498008734,7.3
1630498008750,8.26
1630498008765,9.01
1630498008781,9.34
1630498008796,9.08
1630498008812,8.23
1630498008828,6.89
1630498008843,5.29
1630498008859,3.72
1630498008875,2.37
1630498008890,1.34
1630498008906,0.58
1630498008921,-0.09
1630498008937,-0.8
1630498008953,-1.67
1630498008968,-2.65
1630498008984,-3.61
1630498009000,-4.38
1630498009015,-4.78
1630498009031,-4.7
1630498009046,-4.14
1630498009062,-3.16
1630498009078,-1.92
1630498009093,-0.6
1630498009109,0.66
1630498009125,1.73
1630498009140,2.55
1630498009156,3.09
1630498009171,3.38
1630498009187,3.49
1630498009203,3.47
1630498009218,3.37
1630498009234,3.15
1630498009250,2.8
1630498009265,2.22
1630498009281,1.42
1630498009296,0.44
1630498009312,-0.58
1630498009328,-1.45
1630498009343,-2.06
1630498009359,-2.37
1630498009375,-2.41
1630498009390,-2.27
1630498009406,-2.03
1630498009421,-1.75
1630498009437,-1.53
1630498009453,-1.51
1630498009468,-1.77
1630498009484,-2.35
1630498009500,-3.2
1630498009515,-4.22
1630498009531,-5.25
1630498009546,-6.25
1630498009562,-7.2
1630498009578,-8.12
1630498009593,-8.98
1630498009609,-9.66
1630498009625,-9.99
1630498009640,-9.8
1630498009656,-9.03
1630498009671,-7.69
1630498009687,-5.9
1630498009703,-3.79
1630498009718,-1.54
1630498009734,0.65
1630498009750,2.63
1630498009765,4.18
1630498009781,5.18
1630498009796,5.58
1630498009812,5.43
1630498009828,4.89
1630498009843,4.17
1630498009859,3.46
1630498009875,2.9
1630498009890,2.58
1630498009906,2.5
1630498009921,2.6
1630498009937,2.79
1630498009953,2.96
1630498009968,3.05
1630498009984,3.02
1630498010000,2.89
1630498010015,2.67
1630498010031,2.36
1630498010046,1.9
1630498010062,1.18
1630498010078,0.15
1630498010093,-1.18
1630498010109,-2.67
1630498010125,-4.15
1630498010140,-5.46
1630498010156,-6.54
1630498010171,-7.48
1630498010187,-8.41
1630498010203,-9.42
1630498010218,-10.4
1630498010234,-11.15
1630498010250,-11.36
1630498010265,-10.79
1630498010281,-9.37
1630498010296,-7.18
1630498010312,-4.46
1630498010328,-1.52
1630498010343,1.38
1630498010359,4.03
1630498010375,6.27
1630498010390,7.99
1630498010406,9.16
1630498010421,9.82
1630498010437,10.07
1630498010453,10.05
1630498010468,9.86
1630498010484,9.6
1630498010500,9.27
1630498010515,8.88
1630498010531,8.39
1630498010546,7.87
1630498010562,7.43
1630498010578,7.21
1630498010593,7.27
1630498010609,7.58
1630498010625,7.97
1630498010640,8.19
1630498010656,8.03
1630498010671,7.34
1630498010687,6.17
1630498010703,4.69
1630498010718,3.14
1630498010734,1.72
1630498010750,0.53
1630498010765,-0.45
1630498010781,-1.35
1630498010796,-2.36
1630498010812,-3.61
1630498010828,-5.16
1630498010843,-6.93
1630498010859,-8.73
1630498010875,-10.21
1630498010890,-10.99
1630498010906,-10.74
1630498010921,-9.29
1630498010937,-6.78
1630498010953,-3.58
1630498010968,-0.23
1630498010984,2.79
1630498011000,5.13
1630498011015,6.75
1630498011031,7.76
1630498011046,8.33
1630498011062,8.56
1630498011078,8.47
1630498011093,8.05
1630498011109,7.37
1630498011125,6.59
1630498011140,5.9
1630498011156,5.47
1630498011171,5.3
1630498011187,5.3
1630498011203,5.3
1630498011218,5.18
1630498011234,4.88
1630498011250,4.46
1630498011265,3.95
1630498011281,3.36
1630498011296,2.69
1630498011312,1.91
1630498011328,1.02
1630498011343,0.14
1630498011359,-0.64
1630498011375,-1.24
1630498011390,-1.68
1630498011406,-2.12
1630498011421,-2.78
1630498011437,-3.82
1630498011453,-5.27
1630498011468,-7.0
1630498011484,-8.72
1630498011500,-10.1
1630498011515,-10.81
1630498011531,-10.63
1630498011546,-9.46
1630498011562,-7.42
1630498011578,-4.82
1630498011593,-2.09
1630498011609,0.39
1630498011625,2.32
1630498011640,3.63
1630498011656,4.37
1630498011671,4.65
1630498011687,4.64
1630498011703,4.42
1630498011718,4.14
1630498011734,3.94
1630498011750,3.94
1630498011765,4.15
1630498011781,4.47
1630498011796,4.65
1630498011812,4.49
1630498011828,3.98
1630498011843,3.26
1630498011859,2.63
1630498011875,2.29
1630498011890,2.25
1630498011906,2.36
1630498011921,2.33
1630498011937,1.97
1630498011953,1.19
1630498011968,0.06
1630498011984,-1.28
1630498012000,-2.67
1630498012015,-4.0
1630498012031,-5.2
1630498012046,-6.21
1630498012062,-7.07
1630498012078,-7.87
1630498012093,-8.72
1630498012109,-9.7
1630498012125,-10.79
1630498012140,-11.82
1630498012156,-12.48
1630498012171,-12.39
1630498012187,-11.26
1630498012203,-9.03
1630498012218,-5.95
1630498012234,-2.5
1630498012250,0.74
1630498012265,3.27
1630498012281,4.87
1630498012296,5.57
1630498012312,5.59
1630498012328,5.21
1630498012343,4.67
1630498012359,4.13
1630498012375,3.71
1630498012390,3.48
1630498012406,3.47
1630498012421,3.66
1630498012437,3.93
1630498012453,4.17
1630498012468,4.31
1630498012484,4.31
1630498012500,4.22
1630498012515,4.1
1630498012531,3.94
1630498012546,3.66
1630498012562,3.16
1630498012578,2.39
1630498012593,1.38
1630498012609,0.2
1630498012625,-1.04
1630498012640,-2.23
1630498012656,-3.3
1630498012671,-4.21
1630498012687,-4.94
1630498012703,-5.54
1630498012718,-6.15
1630498012734,-6.93
1630498012750,-8.01
1630498012765,-9.36
1630498012781,-10.71
1630498012796,-11.65
1630498012812,-11.73
1630498012828,-10.67
1630498012843,-8.49
1630498012859,-5.56
1630498012875,-2.36
1630498012890,0.59
1630498012906,2.95
1630498012921,4.62
1630498012937,5.68
1630498012953,6.27
1630498012968,6.56
1630498012984,6.62
1630498013000,6.49
1630498013015,6.22
1630498013031,5.93
1630498013046,5.75
1630498013062,5.75
1630498013078,5.89
1630498013093,5.99
1630498013109,5.82
1630498013125,5.29
1630498013140,4.46
1630498013156,3.58
1630498013171,2.95
1630498013187,2.74
1630498013203,2.91
1630498013218,3.2
1630498013234,3.34
1630498013250,3.12
1630498013265,2.55
1630498013281,1.75
1630498013296,0.89
1630498013312,0.02
1630498013328,-0.91
1630498013343,-2.03
1630498013359,-3.38
1630498013375,-4.92
1630498013390,-6.47
1630498013406,-7.8
1630498013421,-8.67
1630498013437,-8.89
1630498013453,-8.38
1630498013468,-7.2
1630498013484,-5.48
1630498013500,-3.39
1630498013515,-1.08
1630498013531,1.32
1630498013546,3.69
1630498013562,5.85
1630498013578,7.58
1630498013593,8.67
1630498013609,9.01
1630498013625,8.66
1630498013640,7.86
1630498013656,6.87
1630498013671,5.93
1630498013687,5.17
1630498013703,4.59
1630498013718,4.16
1630498013734,3.83
1630498013750,3.57
1630498013765,3.35
1630498013781,3.12
1630498013796,2.81
1630498013812,2.34
1630498013828,1.67
1630498013843,0.76
1630498013859,-0.35
1630498013875,-1.6
1630498013890,-2.84
1630498013906,-3.94
1630498013921,-4.74
1630498013937,-5.24
1630498013953,-5.54
1630498013968,-5.81
1630498013984,-6.21
1630498014000,-6.8
1630498014015,-7.43
1630498014031,-7.87
1630498014046,-7.9
1630498014062,-7.38
1630498014078,-6.32
1630498014093,-4.87
1630498014109,-3.16
1630498014125,-1.33
1630498014140,0.5
1630498014156,2.24
1630498014171,3.76
1630498014187,4.91
1630498014203,5.52
1630498014218,5.47
1630498014234,4.75
1630498014250,3.5
1630498014265,1.99
1630498014281,0.59
1630498014296,-0.41
1630498014312,-0.81
1630498014328,-0.62
1630498014343,0.01
1630498014359,0.84
1630498014375,1.7
1630498014390,2.43
1630498014406,2.92
1630498014421,3.08
1630498014437,2.82
1630498014453,2.1
1630498014468,0.99
1630498014484,-0.32
1630498014500,-1.59
1630498014515,-2.63
1630498014531,-3.36
1630498014546,-3.88
1630498014562,-4.4
1630498014578,-5.12
1630498014593,-6.16
1630498014609,-7.47
1630498014625,-8.85
1630498014640,-9.94
1630498014656,-10.36
1630498014671,-9.83
1630498014687,-8.26
1630498014703,-5.84
1630498014718,-2.96
1630498014734,-0.08
1630498014750,2.37
1630498014765,4.13
1630498014781,5.1
1630498014796,5.31
1630498014812,4.87
1630498014828,3.98
1630498014843,2.88
1630498014859,1.82
1630498014875,1.05
1630498014890,0.72
1630498014906,0.83
1630498014921,1.2
1630498014937,1.57
1630498014953,1.65
1630498014968,1.34
1630498014984,0.65
1630498015000,-0.28
1630498015015,-1.25
1630498015031,-2.09
1630498015046,-2.76
1630498015062,-3.29
1630498015078,-3.78
1630498015093,-4.32
1630498015109,-4.98
1630498015125,-5.77
1630498015140,-6.7
1630498015156,-7.77
1630498015171,-8.99
1630498015187,-10.29
1630498015203,-11.48
1630498015218,-12.3
1630498015234,-12.47
1630498015250,-11.73
1630498015265,-10.05
1630498015281,-7.57
1630498015296,-4.59
1630498015312,-1.47
1630498015328,1.47
1630498015343,3.99
1630498015359,5.98
1630498015375,7.36
1630498015390,8.13
1630498015406,8.33
1630498015421,8.03
1630498015437,7.41
1630498015453,6.63
1630498015468,5.88
1630498015484,5.28
1630498015500,4.91
1630498015515,4.72
1630498015531,4.64
1630498015546,4.56
1630498015562,4.37
1630498015578,4.02
1630498015593,3.48
1630498015609,2.81
1630498015625,2.06
1630498015640,1.29
1630498015656,0.52
1630498015671,-0.24
1630498015687,-1.02
1630498015703,-1.87
1630498015718,-2.88
1630498015734,-4.12
1630498015750,-5.61
1630498015765,-7.24
1630498015781,-8.78
1630498015796,-9.94
1630498015812,-10.46
1630498015828,-10.19
1630498015843,-9.15
1630498015859,-7.47
1630498015875,-5.33
1630498015890,-2.92
1630498015906,-0.36
1630498015921,2.21
1630498015937,4.66
1630498015953,6.81
1630498015968,8.5
1630498015984,9.59
1630498016000,10.04
1630498016015,9.9
1630498016031,9.29
1630498016046,8.41
1630498016062,7.44
1630498016078,6.55
1630498016093,5.82
1630498016109,5.3
1630498016125,4.96
1630498016140,4.75
1630498016156,4.57
1630498016171,4.33
1630498016187,3.98
1630498016203,3.52
1630498016218,3.01
1630498016234,2.56
1630498016250,2.22
1630498016265,1.97
1630498016281,1.67
1630498016296,1.15
1630498016312,0.28
1630498016328,-0.97
1630498016343,-2.5
1630498016359,-4.09
1630498016375,-5.48
1630498016390,-6.45
1630498016406,-6.82
1630498016421,-6.54
1630498016437,-5.62
1630498016453,-4.2
1630498016468,-2.46
1630498016484,-0.6
1630498016500,1.18
1630498016515,2.7
1630498016531,3.84
1630498016546,4.49
1630498016562,4.63
1630498016578,4.31
1630498016593,3.62
1630498016609,2.73
1630498016625,1.8
1630498016640,0.99
1630498016656,0.4
1630498016671,0.07
1630498016687,0.02
1630498016703,0.23
1630498016718,0.64
1630498016734,1.14
1630498016750,1.6
1630498016765,1.85
1630498016781,1.81
1630498016796,1.45
1630498016812,0.8
1630498016828,-0.04
1630498016843,-0.99
1630498016859,-1.96
1630498016875,-2.9
1630498016890,-3.79
1630498016906,-4.63
1630498016921,-5.41
1630498016937,-6.11
1630498016953,-6.69
1630498016968,-7.07
1630498016984,-7.19
1630498017000,-6.97
1630498017015,-6.38
1630498017031,-5.39
1630498017046,-4.04
1630498017062,-2.38
1630498017078,-0.5
1630498017093,1.49
1630498017109,3.38
1630498017125,4.97
1630498017140,6.03
1630498017156,6.46
1630498017171,6.23
1630498017187,5.49
1630498017203,4.46
1630498017218,3.39
1630498017234,2.47
1630498017250,1.84
1630498017265,1.48
1630498017281,1.37
1630498017296,1.42
1630498017312,1.54
1630498017328,1.64
1630498017343,1.62
1630498017359,1.41
1630498017375,0.97
1630498017390,0.31
1630498017406,-0.49
1630498017421,-1.38
1630498017437,-2.3
1630498017453,-3.28
1630498017468,-4.38
1630498017484,-5.66
1630498017500,-7.12
1630498017515,-8.64
1630498017531,-10.05
1630498017546,-11.11
1630498017562,-11.66
1630498017578,-11.57
1630498017593,-10.83
1630498017609,-9.48
1630498017625,-7.61
1630498017640,-5.38
1630498017656,-2.96
1630498017671,-0.57
1630498017687,1.59
1630498017703,3.35
1630498017718,4.7
1630498017734,5.7
1630498017750,6.47
1630498017765,7.05
1630498017781,7.38
1630498017796,7.37
1630498017812,6.92
1630498017828,6.09
1630498017843,5.06
1630498017859,4.11
1630498017875,3.44
1630498017890,3.14
1630498017906,3.12
1630498017921,3.22
1630498017937,3.25
1630498017953,3.05
1630498017968,2.47
1630498017984,1.46
1630498018000,-0.03
1630498018015,-1.92
1630498018031,-4.02
1630498018046,-6.08
1630498018062,-7.84
1630498018078,-9.17
1630498018093,-10.03
1630498018109,-10.54
1630498018125,-10.8
1630498018140,-10.85
1630498018156,-10.59
1630498018171,-9.88
1630498018187,-8.6
1630498018203,-6.76
1630498018218,-4.46
1630498018234,-1.86
1630498018250,0.81
1630498018265,3.34
1630498018281,5.56
1630498018296,7.37
1630498018312,8.71
1630498018328,9.62
1630498018343,10.14
1630498018359,10.36
1630498018375,10.35
1630498018390,10.14
1630498018406,9.75
1630498018421,9.24
1630498018437,8.69
1630498018453,8.2
1630498018468,7.86
1630498018484,7.62
1630498018500,7.42
1630498018515,7.14
1630498018531,6.65
1630498018546,5.94
1630498018562,5.03
1630498018578,3.98
1630498018593,2.86
1630498018609,1.7
1630498018625,0.51
1630498018640,-0.75
1630498018656,-2.08
1630498018671,-3.48
1630498018687,-4.89
1630498018703,-6.24
1630498018718,-7.45
1630498018734,-8.47
1630498018750,-9.24
1630498018765,-9.66
1630498018781,-9.58
1630498018796,-8.86
1630498018812,-7.42
1630498018828,-5.31
1630498018843,-2.76
1630498018859,-0.09
1630498018875,2.37
1630498018890,4.49
1630498018906,6.22
1630498018921,7.68
1630498018937,8.96
1630498018953,10.04
1630498018968,10.82
1630498018984,11.17
1630498019000,10.96
1630498019015,10.24
1630498019031,9.15
1630498019046,7.92
1630498019062,6.74
1630498019078,5.72
1630498019093,4.86
1630498019109,4.07
1630498019125,3.28
1630498019140,2.45
1630498019156,1.67
1630498019171,1.06
1630498019187,0.66
1630498019203,0.42
1630498019218,0.17
1630498019234,-0.26
1630498019250,-1.04
1630498019265,-2.16
1630498019281,-3.53
1630498019296,-5.0
1630498019312,-6.44
1630498019328,-7.78
1630498019343,-8.94
1630498019359,-9.83
1630498019375,-10.29
1630498019390,-10.09
1630498019406,-8.99
1630498019421,-6.9
1630498019437,-3.93
1630498019453,-0.52
1630498019468,2.74
1630498019484,5.29
1630498019500,6.75
1630498019515,7.18
1630498019531,7.01
1630498019546,6.83
1630498019562,7.09
1630498019578,7.9
1630498019593,8.97
1630498019609,9.81
1630498019625,10.03
1630498019640,9.52
1630498019656,8.5
1630498019671,7.34
1630498019687,6.37
1630498019703,5.69
1630498019718,5.17
1630498019734,4.62
1630498019750,3.87
1630498019765,2.93
1630498019781,1.89
1630498019796,0.86
1630498019812,-0.14
1630498019828,-1.12
1630498019843,-2.17
1630498019859,-3.34
1630498019875,-4.64
1630498019890,-6.03
1630498019906,-7.46
1630498019921,-8.89
1630498019937,-10.26
1630498019953,-11.53
1630498019968,-12.65
1630498019984,-13.45
1630498020000,-13.78
1630498020015,-13.45
1630498020031,-12.35
1630498020046,-10.5
1630498020062,-8.09
1630498020078,-5.42
1630498020093,-2.84
1630498020109,-0.62
1630498020125,1.17
1630498020140,2.58
1630498020156,3.78
1630498020171,4.93
1630498020187,6.06
1630498020203,7.08
1630498020218,7.79
1630498020234,7.98
1630498020250,7.55
1630498020265,6.57
1630498020281,5.3
1630498020296,4.07
1630498020312,3.19
1630498020328,2.8
1630498020343,2.82
1630498020359,3.06
1630498020375,3.21
1630498020390,3.07
1630498020406,2.56
1630498020421,1.68
1630498020437,0.56
1630498020453,-0.71
1630498020468,-2.07
1630498020484,-3.47
1630498020500,-4.86
1630498020515,-6.19
1630498020531,-7.37
1630498020546,-8.4
1630498020562,-9.28
1630498020578,-10.07
1630498020593,-10.78
1630498020609,-11.35
1630498020625,-11.59
1630498020640,-11.24
1630498020656,-10.08
1630498020671,-7.95
1630498020687,-4.93
1630498020703,-1.34
1630498020718,2.38
1630498020734,5.75
1630498020750,8.43
1630498020765,10.25
1630498020781,11.21
1630498020796,11.43
1630498020812,11.12
1630498020828,10.46
1630498020843,9.59
1630498020859,8.66
1630498020875,7.77
1630498020890,6.98
1630498020906,6.32
1630498020921,5.81
1630498020937,5.44
1630498020953,5.17
1630498020968,4.92
1630498020984,4.58
1630498021000,4.04
1630498021015,3.19
1630498021031,2.03
1630498021046,0.61
1630498021062,-0.89
1630498021078,-2.3
1630498021093,-3.46
1630498021109,-4.33
1630498021125,-4.99
1630498021140,-5.58
1630498021156,-6.28
1630498021171,-7.24
1630498021187,-8.44
1630498021203,-9.72
1630498021218,-10.81
1630498021234,-11.37
1630498021250,-11.15
1630498021265,-10.01
1630498021281,-8.01
1630498021296,-5.4
1630498021312,-2.48
1630498021328,0.39
1630498021343,2.95
1630498021359,4.97
1630498021375,6.35
1630498021390,7.07
1630498021406,7.22
1630498021421,7.02
1630498021437,6.63
1630498021453,6.22
1630498021468,5.86
1630498021484,5.58
1630498021500,5.36
1630498021515,5.24
1630498021531,5.28
1630498021546,5.52
1630498021562,5.95
1630498021578,6.48
1630498021593,6.95
1630498021609,7.16
1630498021625,6.93
1630498021640,6.11
1630498021656,4.67
1630498021671,2.71
1630498021687,0.45
1630498021703,-1.78
1630498021718,-3.73
1630498021734,-5.29
1630498021750,-6.56
1630498021765,-7.74
1630498021781,-8.97
1630498021796,-10.25
1630498021812,-11.35
1630498021828,-11.99
1630498021843,-11.89
1630498021859,-10.91
1630498021875,-9.09
1630498021890,-6.61
1630498021906,-3.73
1630498021921,-0.76
1630498021937,2.03
1630498021953,4.41
1630498021968,6.23
1630498021984,7.43
1630498022000,8.04
1630498022015,8.11
1630498022031,7.74
1630498022046,7.04
1630498022062,6.14
1630498022078,5.16
1630498022093,4.24
1630498022109,3.45
1630498022125,2.82
1630498022140,2.33
1630498022156,1.91
1630498022171,1.5
1630498022187,1.04
1630498022203,0.47
1630498022218,-0.25
1630498022234,-1.13
1630498022250,-2.1
1630498022265,-3.08
1630498022281,-3.99
1630498022296,-4.82
1630498022312,-5.57
1630498022328,-6.32
1630498022343,-7.14
1630498022359,-8.06
1630498022375,-9.06
1630498022390,-10.06
1630498022406,-10.86
1630498022421,-11.25
1630498022437,-11.02
1630498022453,-10.0
1630498022468,-8.21
1630498022484,-5.8
1630498022500,-3.05
1630498022515,-0.3
1630498022531,2.17
1630498022546,4.17
1630498022562,5.67
1630498022578,6.72
1630498022593,7.36
1630498022609,7.64
1630498022625,7.56
1630498022640,7.09
1630498022656,6.29
1630498022671,5.22
1630498022687,4.06
1630498022703,3.02
1630498022718,2.28
1630498022734,1.93
1630498022750,1.88
1630498022765,1.96
1630498022781,1.96
1630498022796,1.76
1630498022812,1.35
1630498022828,0.81
1630498022843,0.2
1630498022859,-0.51
1630498022875,-1.41
1630498022890,-2.63
1630498022906,-4.16
1630498022921,-5.89
1630498022937,-7.57
1630498022953,-8.99
1630498022968,-10.05
1630498022984,-10.78
1630498023000,-11.25
1630498023015,-11.45
1630498023031,-11.27
1630498023046,-10.54
1630498023062,-9.14
1630498023078,-7.1
1630498023093,-4.63
1630498023109,-1.98
1630498023125,0.55
1630498023140,2.77
1630498023156,4.63
1630498023171,6.11
1630498023187,7.22
1630498023203,7.97
1630498023218,8.33
1630498023234,8.27
1630498023250,7.8
1630498023265,7.0
1630498023281,6.01
1630498023296,5.01
1630498023312,4.2
1630498023328,3.7
1630498023343,3.51
1630498023359,3.54
1630498023375,3.59
1630498023390,3.52
1630498023406,3.25
1630498023421,2.78
1630498023437,2.19
1630498023453,1.54
1630498023468,0.84
1630498023484,0.06
1630498023500,-0.9
1630498023515,-2.12
1630498023531,-3.59
1630498023546,-5.19
1630498023562,-6.76
1630498023578,-8.09
1630498023593,-9.05
1630498023609,-9.59
1630498023625,-9.64
1630498023640,-9.12
1630498023656,-7.94
1630498023671,-6.06
1630498023687,-3.62
1630498023703,-0.91
1630498023718,1.67
1630498023734,3.79
1630498023750,5.31
1630498023765,6.3
1630498023781,6.99
1630498023796,7.56
1630498023812,8.08
1630498023828,8.45
1630498023843,8.55
1630498023859,8.32
1630498023875,7.82
1630498023890,7.26
1630498023906,6.81
1630498023921,6.6
1630498023937,6.59
1630498023953,6.62
1630498023968,6.44
1630498023984,5.86
1630498024000,4.82
1630498024015,3.49
1630498024031,2.15
1630498024046,1.08
1630498024062,0.39
1630498024078,-0.07
1630498024093,-0.62
1630498024109,-1.59
1630498024125,-3.11
1630498024140,-5.07
1630498024156,-7.11
1630498024171,-8.87
1630498024187,-10.02
1630498024203,-10.43
1630498024218,-10.1
1630498024234,-9.11
1630498024250,-7.54
1630498024265,-5.49
1630498024281,-3.11
1630498024296,-0.61
1630498024312,1.77
1630498024328,3.81
1630498024343,5.35
1630498024359,6.29
1630498024375,6.57
1630498024390,6.27
1630498024406,5.51
1630498024421,4.53
1630498024437,3.6
1630498024453,3.01
1630498024468,2.94
1630498024484,3.41
1630498024500,4.2
1630498024515,4.97
1630498024531,5.33
1630498024546,5.02
1630498024562,4.06
1630498024578,2.66
1630498024593,1.17
1630498024609,-0.11
1630498024625,-1.06
1630498024640,-1.74
1630498024656,-2.35
1630498024671,-3.07
1630498024687,-3.97
1630498024703,-5.04
1630498024718,-6.2
1630498024734,-7.38
1630498024750,-8.53
1630498024765,-9.59
1630498024781,-10.4
1630498024796,-10.73
1630498024812,-10.36
1630498024828,-9.17
1630498024843,-7.24
1630498024859,-4.77
1630498024875,-2.05
1630498024890,0.59
1630498024906,2.87
1630498024921,4.64
1630498024937,5.8
1630498024953,6.39
1630498024968,6.53
1630498024984,6.43
1630498025000,6.27
1630498025015,6.18
1630498025031,6.19
1630498025046,6.23
1630498025062,6.2
1630498025078,6.02
1630498025093,5.66
1630498025109,5.1
1630498025125,4.36
1630498025140,3.42
1630498025156,2.34
1630498025171,1.18
1630498025187,0.1
1630498025203,-0.74
1630498025218,-1.27
1630498025234,-1.49
1630498025250,-1.57
1630498025265,-1.77
1630498025281,-2.31
1630498025296,-3.36
1630498025312,-4.91
1630498025328,-6.84
1630498025343,-8.95
1630498025359,-11.01
1630498025375,-12.71
1630498025390,-13.75
1630498025406,-13.86
1630498025421,-12.88
1630498025437,-10.86
1630498025453,-8.08
1630498025468,-4.94
1630498025484,-1.9
1630498025500,0.68
1630498025515,2.62
1630498025531,3.91
1630498025546,4.66
1630498025562,5.04
1630498025578,5.19
1630498025593,5.24
1630498025609,5.28
1630498025625,5.4
1630498025640,5.62
1630498025656,5.9
1630498025671,6.18
1630498025687,6.38
1630498025703,6.45
1630498025718,6.36
1630498025734,6.08
1630498025750,5.58
1630498025765,4.85
1630498025781,3.84
1630498025796,2.57
1630498025812,1.12
1630498025828,-0.4
1630498025843,-1.89
1630498025859,-3.35
1630498025875,-4.79
1630498025890,-6.27
1630498025906,-7.78
1630498025921,-9.25
1630498025937,-10.53
1630498025953,-11.5
1630498025968,-12.04
1630498025984,-12.08
1630498026000,-11.52
1630498026015,-10.28
1630498026031,-8.34
1630498026046,-5.79
1630498026062,-2.86
1630498026078,0.13
1630498026093,2.82
1630498026109,4.93
1630498026125,6.38
1630498026140,7.26
1630498026156,7.72
1630498026171,7.95
1630498026187,8.03
1630498026203,7.99
1630498026218,7.81
1630498026234,7.48
1630498026250,7.06
1630498026265,6.67
1630498026281,6.47
1630498026296,6.48
1630498026312,6.61
1630498026328,6.66
1630498026343,6.41
1630498026359,5.77
1630498026375,4.8
1630498026390,3.7
1630498026406,2.64
1630498026421,1.7
1630498026437,0.77
1630498026453,-0.31
1630498026468,-1.6
1630498026484,-3.08
1630498026500,-4.52
1630498026515,-5.73
1630498026531,-6.57
1630498026546,-7.06
1630498026562,-7.31
1630498026578,-7.42
1630498026593,-7.4
1630498026609,-7.19
1630498026625,-6.68
1630498026640,-5.79
1630498026656,-4.51
1630498026671,-2.93
1630498026687,-1.16
1630498026703,0.64
1630498026718,2.3
1630498026734,3.63
1630498026750,4.51
1630498026765,4.86
1630498026781,4.77
1630498026796,4.41
1630498026812,4.0
1630498026828,3.72
1630498026843,3.66
1630498026859,3.78
1630498026875,3.97
1630498026890,4.11
1630498026906,4.15
1630498026921,4.05
1630498026937,3.8
1630498026953,3.4
1630498026968,2.82
1630498026984,2.04
1630498027000,1.11
1630498027015,0.08
1630498027031,-0.92
1630498027046,-1.83
1630498027062,-2.64
1630498027078,-3.45
1630498027093,-4.4
1630498027109,-5.57
1630498027125,-6.93
1630498027140,-8.3
1630498027156,-9.4
1630498027171,-9.94
1630498027187,-9.71
1630498027203,-8.62
1630498027218,-6.73
1630498027234,-4.23
1630498027250,-1.42
1630498027265,1.4
1630498027281,3.93
1630498027296,5.98
1630498027312,7.45
1630498027328,8.36
1630498027343,8.81
1630498027359,8.93
1630498027375,8.77
1630498027390,8.34
1630498027406,7.65
1630498027421,6.71
1630498027437,5.64
1630498027453,4.6
1630498027468,3.75
1630498027484,3.17
1630498027500,2.85
1630498027515,2.67
1630498027531,2.5
1630498027546,2.24
1630498027562,1.82
1630498027578,1.23
1630498027593,0.46
1630498027609,-0.49
1630498027625,-1.59
1630498027640,-2.81
1630498027656,-4.09
1630498027671,-5.38
1630498027687,-6.64
1630498027703,-7.89
1630498027718,-9.11
1630498027734,-10.26
1630498027750,-11.27
1630498027765,-11.99
1630498027781,-12.22
1630498027796,-11.77
1630498027812,-10.51
1630498027828,-8.45
1630498027843,-5.75
1630498027859,-2.72
1630498027875,0.25
1630498027890,2.8
1630498027906,4.68
1630498027921,5.85
1630498027937,6.4
1630498027953,6.52
1630498027968,6.39
1630498027984,6.13
1630498028000,5.79
1630498028015,5.39
1630498028031,4.93
1630498028046,4.44
1630498028062,3.98
1630498028078,3.6
1630498028093,3.31
1630498028109,3.1
1630498028125,2.88
1630498028140,2.55
1630498028156,2.08
1630498028171,1.5
1630498028187,0.87
1630498028203,0.24
1630498028218,-0.42
1630498028234,-1.22
1630498028250,-2.25
1630498028265,-3.57
1630498028281,-5.1
1630498028296,-6.68
1630498028312,-8.17
1630498028328,-9.43
1630498028343,-10.44
1630498028359,-11.1
1630498028375,-11.33
1630498028390,-10.94
1630498028406,-9.79
1630498028421,-7.84
1630498028437,-5.25
1630498028453,-2.36
1630498028468,0.48
1630498028484,2.93
1630498028500,4.86
1630498028515,6.26
1630498028531,7.21
1630498028546,7.83
1630498028562,8.16
1630498028578,8.22
1630498028593,8.03
1630498028609,7.62
1630498028625,7.08
1630498028640,6.56
1630498028656,6.17
1630498028671,5.99
1630498028687,6.0
1630498028703,6.12
1630498028718,6.26
1630498028734,6.34
1630498028750,6.32
1630498028765,6.13
1630498028781,5.67
1630498028796,4.79
1630498028812,3.35
1630498028828,1.27
1630498028843,-1.37
1630498028859,-4.33
1630498028875,-7.31
1630498028890,-9.99
1630498028906,-12.19
1630498028921,-13.82
1630498028937,-14.84
1630498028953,-15.24
1630498028968,-14.95
1630498028984,-13.96
1630498029000,-12.24
1630498029015,-9.84
1630498029031,-6.89
1630498029046,-3.58
1630498029062,-0.12
1630498029078,3.23
1630498029093,6.26
1630498029109,8.77
1630498029125,10.65
1630498029140,11.87
1630498029156,12.49
1630498029171,12.6
1630498029187,12.26
1630498029203,11.54
1630498029218,10.53
1630498029234,9.35
1630498029250,8.19
1630498029265,7.26
1630498029281,6.7
1630498029296,6.56
1630498029312,6.72
1630498029328,6.95
1630498029343,7.0
1630498029359,6.65
1630498029375,5.75
1630498029390,4.34
1630498029406,2.57
1630498029421,0.67
1630498029437,-1.13
1630498029453,-2.7
1630498029468,-4.01
1630498029484,-5.09
1630498029500,-6.03
1630498029515,-6.87
1630498029531,-7.63
1630498029546,-8.36
1630498029562,-9.07
1630498029578,-9.75
1630498029593,-10.26
1630498029609,-10.4
1630498029625,-9.9
1630498029640,-8.61
1630498029656,-6.53
1630498029671,-3.87
1630498029687,-1.0
1630498029703,1.7
1630498029718,3.99
1630498029734,5.76
1630498029750,6.99
1630498029765,7.71
1630498029781,7.95
1630498029796,7.77
1630498029812,7.25
1630498029828,6.56
1630498029843,5.85
1630498029859,5.26
1630498029875,4.82
1630498029890,4.51
1630498029906,4.25
1630498029921,3.96
1630498029937,3.6
1630498029953,3.14
1630498029968,2.6
1630498029984,1.97
1630498030000,1.22
1630498030015,0.32
1630498030031,-0.83
1630498030046,-2.27
1630498030062,-4.02
1630498030078,-6.03
1630498030093,-8.13
1630498030109,-10.09
1630498030125,-11.71
1630498030140,-12.81
1630498030156,-13.28
1630498030171,-13.1
1630498030187,-12.24
1630498030203,-10.74
1630498030218,-8.67
1630498030234,-6.17
1630498030250,-3.46
1630498030265,-0.79
1630498030281,1.58
1630498030296,3.48
1630498030312,4.84
1630498030328,5.7
1630498030343,6.17
1630498030359,6.38
1630498030375,6.46
1630498030390,6.46
1630498030406,6.42
1630498030421,6.3
1630498030437,6.05
1630498030453,5.68
1630498030468,5.28
1630498030484,4.94
1630498030500,4.74
1630498030515,4.67
1630498030531,4.55
1630498030546,4.2
1630498030562,3.43
1630498030578,2.2
1630498030593,0.64
1630498030609,-1.04
1630498030625,-2.55
1630498030640,-3.73
1630498030656,-4.58
1630498030671,-5.23
1630498030687,-5.87
1630498030703,-6.65
1630498030718,-7.65
1630498030734,-8.79
1630498030750,-9.87
1630498030765,-10.61
1630498030781,-10.73
1630498030796,-10.04
1630498030812,-8.51
1630498030828,-6.33
1630498030843,-3.8
1630498030859,-1.3
1630498030875,0.91
1630498030890,2.68
1630498030906,4.02
1630498030921,4.95
1630498030937,5.5
1630498030953,5.62
1630498030968,5.24
1630498030984,4.38
1630498031000,3.2
1630498031015,2.03
1630498031031,1.21
1630498031046,1.01
1630498031062,1.44
1630498031078,2.31
1630498031093,3.24
1630498031109,3.82
1630498031125,3.81
1630498031140,3.14
1630498031156,2.02
1630498031171,0.77
1630498031187,-0.32
1630498031203,-1.05
1630498031218,-1.4
1630498031234,-1.54
1630498031250,-1.71
1630498031265,-2.12
1630498031281,-2.92
1630498031296,-4.09
1630498031312,-5.47
1630498031328,-6.78
1630498031343,-7.7
1630498031359,-7.95
1630498031375,-7.39
1630498031390,-6.06
1630498031406,-4.15
1630498031421,-2.01
1630498031437,0.08
1630498031453,1.94
1630498031468,3.46
1630498031484,4.67
1630498031500,5.52
1630498031515,5.94
1630498031531,5.83
1630498031546,5.14
1630498031562,3.98
1630498031578,2.62
1630498031593,1.44
1630498031609,0.7
1630498031625,0.49
1630498031640,0.61
1630498031656,0.76
1630498031671,0.62
1630498031687,0.05
1630498031703,-0.86
1630498031718,-1.83
1630498031734,-2.56
1630498031750,-2.88
1630498031765,-2.78
1630498031781,-2.5
1630498031796,-2.27
1630498031812,-2.3
1630498031828,-2.66
1630498031843,-3.29
1630498031859,-4.15
1630498031875,-5.18
1630498031890,-6.3
1630498031906,-7.36
1630498031921,-8.08
1630498031937,-8.15
1630498031953,-7.32
1630498031968,-5.54
1630498031984,-3.01
1630498032000,-0.13
1630498032015,2.71
1630498032031,5.2
1630498032046,7.22
1630498032062,8.72
1630498032078,9.65
1630498032093,9.92
1630498032109,9.46
1630498032125,8.31
1630498032140,6.69
1630498032156,4.96
1630498032171,3.47
1630498032187,2.45
1630498032203,1.94
1630498032218,1.79
1630498032234,1.78
1630498032250,1.65
1630498032265,1.28
1630498032281,0.63
1630498032296,-0.2
1630498032312,-1.08
1630498032328,-1.86
1630498032343,-2.48
1630498032359,-3.0
1630498032375,-3.5
1630498032390,-4.06
1630498032406,-4.68
1630498032421,-5.22
1630498032437,-5.43
1630498032453,-5.1
1630498032468,-4.14
1630498032484,-2.7
1630498032500,-1.02
1630498032515,0.55
1630498032531,1.8
1630498032546,2.7
1630498032562,3.36
1630498032578,3.99
1630498032593,4.73
1630498032609,5.57
1630498032625,6.32
1630498032640,6.72
1630498032656,6.57
1630498032671,5.83
1630498032687,4.66
1630498032703,3.36
1630498032718,2.23
1630498032734,1.46
1630498032750,1.09
1630498032765,0.98
1630498032781,0.95
1630498032796,0.82
1630498032812,0.5
1630498032828,0.01
1630498032843,-0.58
1630498032859,-1.19
1630498032875,-1.83
1630498032890,-2.59
1630498032906,-3.56
1630498032921,-4.78
1630498032937,-6.12
1630498032953,-7.31
1630498032968,-8.01
1630498032984,-7.98
1630498033000,-7.15
1630498033015,-5.65
1630498033031,-3.71
1630498033046,-1.58
1630498033062,0.6
1630498033078,2.69
1630498033093,4.57
1630498033109,6.07
1630498033125,7.0
1630498033140,7.25
1630498033156,6.86
1630498033171,6.01
1630498033187,5.01
1630498033203,4.09
1630498033218,3.39
1630498033234,2.92
1630498033250,2.55
1630498033265,2.18
1630498033281,1.72
1630498033296,1.18
1630498033312,0.62
1630498033328,0.09
1630498033343,-0.41
1630498033359,-0.9
1630498033375,-1.43
1630498033390,-2.03
1630498033406,-2.7
1630498033421,-3.42
1630498033437,-4.17
1630498033453,-4.94
1630498033468,-5.75
1630498033484,-6.6
1630498033500,-7.44
1630498033515,-8.1
1630498033531,-8.33
1630498033546,-7.9
1630498033562,-6.7
1630498033578,-4.78
1630498033593,-2.35
1630498033609,0.28
1630498033625,2.8
1630498033640,4.96
1630498033656,6.57
1630498033671,7.55
1630498033687,7.96
1630498033703,7.93
1630498033718,7.67
1630498033734,7.35
1630498033750,7.03
1630498033765,6.67
1630498033781,6.21
1630498033796,5.59
1630498033812,4.9
1630498033828,4.26
1630498033843,3.77
1630498033859,3.41
1630498033875,3.02
1630498033890,2.41
1630498033906,1.45
1630498033921,0.17
1630498033937,-1.29
1630498033953,-2.74
1630498033968,-4.03
1630498033984,-5.16
1630498034000,-6.19
1630498034015,-7.23
1630498034031,-8.31
1630498034046,-9.35
1630498034062,-10.15
1630498034078,-10.46
1630498034093,-10.06
1630498034109,-8.84
1630498034125,-6.92
1630498034140,-4.56
1630498034156,-2.12
1630498034171,0.1
1630498034187,1.93
1630498034203,3.4
1630498034218,4.59
1630498034234,5.6
1630498034250,6.41
1630498034265,6.93
1630498034281,7.05
1630498034296,6.69
1630498034312,5.93
1630498034328,4.88
1630498034343,3.76
1630498034359,2.72
1630498034375,1.89
1630498034390,1.3
1630498034406,0.94
1630498034421,0.75
1630498034437,0.64
1630498034453,0.52
1630498034468,0.29
1630498034484,-0.13
1630498034500,-0.84
1630498034515,-1.94
1630498034531,-3.54
1630498034546,-5.61
1630498034562,-7.97
1630498034578,-10.28
1630498034593,-12.11
1630498034609,-13.08
1630498034625,-12.98
1630498034640,-11.83
1630498034656,-9.84
1630498034671,-7.26
1630498034687,-4.42
1630498034703,-1.53
1630498034718,1.15
1630498034734,3.48
1630498034750,5.37
1630498034765,6.79
1630498034781,7.8
1630498034796,8.45
1630498034812,8.81
1630498034828,8.88
1630498034843,8.63
1630498034859,8.04
1630498034875,7.15
1630498034890,6.03
1630498034906,4.86
1630498034921,3.81
1630498034937,3.03
1630498034953,2.6
1630498034968,2.46
1630498034984,2.5
1630498035000,2.52
1630498035015,2.37
1630498035031,1.94
1630498035046,1.26
1630498035062,0.42
1630498035078,-0.53
1630498035093,-1.56
1630498035109,-2.72
1630498035125,-4.02
1630498035140,-5.44
1630498035156,-6.83
1630498035171,-7.98
1630498035187,-8.65
1630498035203,-8.65
1630498035218,-7.86
1630498035234,-6.31
1630498035250,-4.13
1630498035265,-1.58
1630498035281,1.01
1630498035296,3.28
1630498035312,5.03
1630498035328,6.2
1630498035343,6.89
1630498035359,7.33
1630498035375,7.65
1630498035390,7.87
1630498035406,7.87
1630498035421,7.48
1630498035437,6.63
1630498035453,5.44
1630498035468,4.12
1630498035484,2.92
1630498035500,1.97
1630498035515,1.25
1630498035531,0.64
1630498035546,0.0
1630498035562,-0.67
1630498035578,-1.31
1630498035593,-1.75
1630498035609,-1.93
1630498035625,-1.92
1630498035640,-1.89
1630498035656,-2.11
1630498035671,-2.75
1630498035687,-3.83
1630498035703,-5.21
1630498035718,-6.66
1630498035734,-7.91
1630498035750,-8.73
1630498035765,-8.97
1630498035781,-8.53
1630498035796,-7.39
1630498035812,-5.58
1630498035828,-3.24
1630498035843,-0.55
1630498035859,2.2
1630498035875,4.69
1630498035890,6.67
1630498035906,7.94
1630498035921,8.48
1630498035937,8.36
1630498035953,7.77
1630498035968,6.86
1630498035984,5.77
1630498036000,4.58
1630498036015,3.36
1630498036031,2.23
1630498036046,1.33
1630498036062,0.84
1630498036078,0.85
1630498036093,1.29
1630498036109,1.95
1630498036125,2.55
1630498036140,2.87
1630498036156,2.83
1630498036171,2.51
1630498036187,2.02
1630498036203,1.49
1630498036218,0.94
1630498036234,0.3
1630498036250,-0.58
1630498036265,-1.82
1630498036281,-3.46
1630498036296,-5.41
1630498036312,-7.48
1630498036328,-9.4
1630498036343,-10.79
1630498036359,-11.39
1630498036375,-11.04
1630498036390,-9.73
1630498036406,-7.64
1630498036421,-5.07
1630498036437,-2.31
1630498036453,0.37
1630498036468,2.75
1630498036484,4.71
1630498036500,6.11
1630498036515,6.86
1630498036531,6.92
1630498036546,6.36
1630498036562,5.32
1630498036578,4.1
1630498036593,2.97
1630498036609,2.19
1630498036625,1.86
1630498036640,1.94
1630498036656,2.26
1630498036671,2.62
1630498036687,2.83
1630498036703,2.78
1630498036718,2.45
1630498036734,1.9
1630498036750,1.19
1630498036765,0.43
1630498036781,-0.32
1630498036796,-1.05
1630498036812,-1.78
1630498036828,-2.62
1630498036843,-3.64
1630498036859,-4.89
1630498036875,-6.37
1630498036890,-8.0
1630498036906,-9.6
1630498036921,-10.97
1630498036937,-11.87
1630498036953,-12.02
1630498036968,-11.23
1630498036984,-9.44
1630498037000,-6.73
1630498037015,-3.41
1630498037031,0.04
1630498037046,3.2
1630498037062,5.67
1630498037078,7.29
1630498037093,8.09
1630498037109,8.25
1630498037125,7.97
1630498037140,7.37
1630498037156,6.55
1630498037171,5.56
1630498037187,4.59
1630498037203,3.82
1630498037218,3.48
1630498037234,3.64
1630498037250,4.15
1630498037265,4.65
1630498037281,4.8
1630498037296,4.33
1630498037312,3.25
1630498037328,1.81
1630498037343,0.34
1630498037359,-0.88
1630498037375,-1.74
1630498037390,-2.35
1630498037406,-2.9
1630498037421,-3.58
1630498037437,-4.5
1630498037453,-5.69
1630498037468,-7.05
1630498037484,-8.44
1630498037500,-9.7
1630498037515,-10.66
1630498037531,-11.22
1630498037546,-11.24
1630498037562,-10.55
1630498037578,-9.02
1630498037593,-6.61
1630498037609,-3.46
1630498037625,0.05
1630498037640,3.39
1630498037656,6.1
1630498037671,7.91
1630498037687,8.83
1630498037703,9.13
1630498037718,9.08
1630498037734,8.83
1630498037750,8.46
1630498037765,7.87
1630498037781,7.07
1630498037796,6.19
1630498037812,5.43
1630498037828,4.97
1630498037843,4.92
1630498037859,5.15
1630498037875,5.4
1630498037890,5.37
1630498037906,4.84
1630498037921,3.8
1630498037937,2.4
1630498037953,0.94
1630498037968,-0.3
1630498037984,-1.16
1630498038000,-1.64
1630498038015,-1.93
1630498038031,-2.24
1630498038046,-2.79
1630498038062,-3.64
1630498038078,-4.78
1630498038093,-6.07
1630498038109,-7.32
1630498038125,-8.29
1630498038140,-8.7
1630498038156,-8.34
1630498038171,-7.08
1630498038187,-4.99
1630498038203,-2.29
1630498038218,0.67
1630498038234,3.52
1630498038250,5.98
1630498038265,7.82
1630498038281,8.93
1630498038296,9.27
1630498038312,8.86
1630498038328,7.84
1630498038343,6.4
1630498038359,4.86
1630498038375,3.51
1630498038390,2.58
1630498038406,2.11
1630498038421,2.03
1630498038437,2.15
1630498038453,2.26
1630498038468,2.27
1630498038484,2.15
1630498038500,1.96
1630498038515,1.71
1630498038531,1.43
1630498038546,1.04
1630498038562,0.5
1630498038578,-0.24
1630498038593,-1.17
1630498038609,-2.2
1630498038625,-3.33
1630498038640,-4.56
1630498038656,-5.94
1630498038671,-7.45
1630498038687,-8.95
1630498038703,-10.16
1630498038718,-10.73
1630498038734,-10.38
1630498038750,-9.01
1630498038765,-6.82
1630498038781,-4.13
1630498038796,-1.4
1630498038812,1.01
1630498038828,2.91
1630498038843,4.33
1630498038859,5.35
1630498038875,6.05
1630498038890,6.45
1630498038906,6.5
1630498038921,6.19
1630498038937,5.55
1630498038953,4.7
1630498038968,3.83
1630498038984,3.11
1630498039000,2.63
1630498039015,2.38
1630498039031,2.31
1630498039046,2.3
1630498039062,2.26
1630498039078,2.1
1630498039093,1.77
1630498039109,1.24
1630498039125,0.49
1630498039140,-0.44
1630498039156,-1.49
1630498039171,-2.62
1630498039187,-3.79
1630498039203,-4.95
1630498039218,-6.09
1630498039234,-7.22
1630498039250,-8.29
1630498039265,-9.3
1630498039281,-10.11
1630498039296,-10.53
1630498039312,-10.34
1630498039328,-9.36
1630498039343,-7.51
1630498039359,-4.96
1630498039375,-2.09
1630498039390,0.65
1630498039406,2.87
1630498039421,4.42
1630498039437,5.4
1630498039453,6.05
1630498039468,6.6
1630498039484,7.12
1630498039500,7.53
1630498039515,7.68
1630498039531,7.44
1630498039546,6.85
1630498039562,6.07
1630498039578,5.29
1630498039593,4.62
1630498039609,4.04
1630498039625,3.43
1630498039640,2.69
1630498039656,1.82
1630498039671,0.95
1630498039687,0.22
1630498039703,-0.29
1630498039718,-0.66
1630498039734,-1.09
1630498039750,-1.8
1630498039765,-2.94
1630498039781,-4.52
1630498039796,-6.4
1630498039812,-8.34
1630498039828,-10.1
1630498039843,-11.42
1630498039859,-12.05
1630498039875,-11.83
1630498039890,-10.67
1630498039906,-8.67
1630498039921,-6.11
1630498039937,-3.34
1630498039953,-0.73
1630498039968,1.54
1630498039984,3.4
1630498040000,4.93
1630498040015,6.2
1630498040031,7.19
1630498040046,7.8
1630498040062,7.95
1630498040078,7.63
1630498040093,6.97
1630498040109,6.16
1630498040125,5.4
1630498040140,4.77
1630498040156,4.23
1630498040171,3.69
1630498040187,3.1
1630498040203,2.48
1630498040218,1.89
1630498040234,1.39
1630498040250,0.94
1630498040265,0.5
1630498040281,-0.03
1630498040296,-0.69
1630498040312,-1.47
1630498040328,-2.35
1630498040343,-3.31
1630498040359,-4.38
1630498040375,-5.56
1630498040390,-6.82
1630498040406,-8.02
1630498040421,-8.9
1630498040437,-9.22
1630498040453,-8.74
1630498040468,-7.42
1630498040484,-5.34
1630498040500,-2.76
1630498040515,-0.07
1630498040531,2.32
1630498040546,4.07
1630498040562,5.03
1630498040578,5.28
1630498040593,5.08
1630498040609,4.72
1630498040625,4.45
1630498040640,4.3
1630498040656,4.18
1630498040671,4.01
1630498040687,3.75
1630498040703,3.47
1630498040718,3.28
1630498040734,3.27
1630498040750,3.39
1630498040765,3.55
1630498040781,3.63
1630498040796,3.53
1630498040812,3.21
1630498040828,2.67
1630498040843,1.92
1630498040859,0.99
1630498040875,-0.12
1630498040890,-1.39
1630498040906,-2.8
1630498040921,-4.34
1630498040937,-5.97
1630498040953,-7.59
1630498040968,-9.06
1630498040984,-10.17
1630498041000,-10.7
1630498041015,-10.54
1630498041031,-9.66
1630498041046,-8.18
1630498041062,-6.3
1630498041078,-4.22
1630498041093,-2.08
1630498041109,0.01
1630498041125,1.96
1630498041140,3.69
1630498041156,5.07
1630498041171,5.99
1630498041187,6.43
1630498041203,6.44
1630498041218,6.17
1630498041234,5.82
1630498041250,5.56
1630498041265,5.44
1630498041281,5.45
1630498041296,5.49
1630498041312,5.43
1630498041328,5.2
1630498041343,4.75
1630498041359,4.14
1630498041375,3.43
1630498041390,2.67
1630498041406,1.91
1630498041421,1.17
1630498041437,0.45
1630498041453,-0.24
1630498041468,-0.95
1630498041484,-1.72
1630498041500,-2.61
1630498041515,-3.67
1630498041531,-4.87
1630498041546,-6.11
1630498041562,-7.2
1630498041578,-7.89
1630498041593,-7.95
1630498041609,-7.23
1630498041625,-5.73
1630498041640,-3.61
1630498041656,-1.13
1630498041671,1.38
1630498041687,3.71
1630498041703,5.68
1630498041718,7.24
1630498041734,8.33
1630498041750,8.89
1630498041765,8.86
1630498041781,8.22
1630498041796,7.04
1630498041812,5.54
1630498041828,4.0
1630498041843,2.64
1630498041859,1.6
1630498041875,0.84
1630498041890,0.24
1630498041906,-0.25
1630498041921,-0.69
1630498041937,-1.06
1630498041953,-1.35
1630498041968,-1.61
1630498041984,-1.93
1630498042000,-2.4
1630498042015,-3.14
1630498042031,-4.19
1630498042046,-5.51
1630498042062,-7.0
1630498042078,-8.36
1630498042093,-9.28
1630498042109,-9.42
1630498042125,-8.6
1630498042140,-6.86
1630498042156,-4.49
1630498042171,-1.93
1630498042187,0.44
1630498042203,2.39
1630498042218,3.92
1630498042234,5.2
1630498042250,6.38
1630498042265,7.45
1630498042281,8.27
1630498042296,8.62
1630498042312,8.33
1630498042328,7.43
1630498042343,6.12
1630498042359,4.72
1630498042375,3.49
1630498042390,2.55
1630498042406,1.85
1630498042421,1.31
1630498042437,0.83
1630498042453,0.4
1630498042468,0.04
1630498042484,-0.24
1630498042500,-0.49
1630498042515,-0.86
1630498042531,-1.48
1630498042546,-2.41
1630498042562,-3.61
1630498042578,-4.95
1630498042593,-6.28
1630498042609,-7.48
1630498042625,-8.5
1630498042640,-9.25
1630498042656,-9.63
1630498042671,-9.44
1630498042687,-8.52
1630498042703,-6.73
1630498042718,-4.17
1630498042734,-1.12
1630498042750,2.0
1630498042765,4.7
1630498042781,6.63
1630498042796,7.62
1630498042812,7.75
1630498042828,7.29
1630498042843,6.59
1630498042859,5.94
1630498042875,5.45
1630498042890,5.07
1630498042906,4.65
1630498042921,4.03
1630498042937,3.16
1630498042953,2.12
1630498042968,1.09
1630498042984,0.21
1630498043000,-0.42
1630498043015,-0.84
1630498043031,-1.15
1630498043046,-1.48
1630498043062,-1.93
1630498043078,-2.53
1630498043093,-3.31
1630498043109,-4.25
1630498043125,-5.38
1630498043140,-6.71
1630498043156,-8.2
1630498043171,-9.74
1630498043187,-11.07
1630498043203,-11.83
1630498043218,-11.65
1630498043234,-10.31
1630498043250,-7.83
1630498043265,-4.56
1630498043281,-1.02
1630498043296,2.18
1630498043312,4.63
1630498043328,6.15
1630498043343,6.8
1630498043359,6.78
1630498043375,6.33
1630498043390,5.57
1630498043406,4.63
1630498043421,3.67
1630498043437,2.85
1630498043453,2.35
1630498043468,2.19
1630498043484,2.29
1630498043500,2.44
1630498043515,2.4
1630498043531,2.0
1630498043546,1.25
1630498043562,0.25
1630498043578,-0.78
1630498043593,-1.7
1630498043609,-2.39
1630498043625,-2.88
1630498043640,-3.24
1630498043656,-3.6
1630498043671,-4.1
1630498043687,-4.83
1630498043703,-5.87
1630498043718,-7.12
1630498043734,-8.36
1630498043750,-9.28
1630498043765,-9.5
1630498043781,-8.74
1630498043796,-6.92
1630498043812,-4.21
1630498043828,-0.93
1630498043843,2.44
1630498043859,5.51
1630498043875,7.97
1630498043890,9.64
1630498043906,10.46
1630498043921,10.49
1630498043937,9.85
1630498043953,8.71
1630498043968,7.36
1630498043984,6.04
1630498044000,5.0
1630498044015,4.31
1630498044031,3.95
1630498044046,3.78
1630498044062,3.66
1630498044078,3.46
1630498044093,3.18
1630498044109,2.83
1630498044125,2.44
1630498044140,1.99
1630498044156,1.43
1630498044171,0.7
1630498044187,-0.23
1630498044203,-1.34
1630498044218,-2.56
1630498044234,-3.8
1630498044250,-5.02
1630498044265,-6.17
1630498044281,-7.18
1630498044296,-7.96
1630498044312,-8.39
1630498044328,-8.29
1630498044343,-7.49
1630498044359,-5.92
1630498044375,-3.57
1630498044390,-0.6
1630498044406,2.74
1630498044421,6.15
1630498044437,9.37
1630498044453,12.2
1630498044468,14.55
1630498044484,16.38
1630498044500,17.71
1630498044515,18.61
1630498044531,19.16
1630498044546,19.51
1630498044562,19.83
1630498044578,20.26
1630498044593,20.85
1630498044609,21.56
1630498044625,22.28
1630498044640,22.96
1630498044656,23.68
1630498044671,24.67
1630498044687,26.21
1630498044703,28.42
1630498044718,31.15
1630498044734,34.02
1630498044750,36.52
1630498044765,38.32
1630498044781,39.43
1630498044796,40.28
1630498044812,41.46
1630498044828,43.44
1630498044843,46.31
1630498044859,49.77
1630498044875,53.32
1630498044890,56.58
1630498044906,59.59
1630498044921,62.78
1630498044937,66.68
1630498044953,71.59
1630498044968,77.37
1630498044984,83.46
1630498045000,89.21
1630498045015,94.15
1630498045031,98.12
1630498045046,100.88
1630498045062,101.75
1630498045078,99.23
1630498045093,91.07
1630498045109,75.0
1630498045125,49.58
1630498045140,15.19
1630498045156,-25.91
1630498045171,-70.02
1630498045187,-113.16
1630498045203,-152.2
1630498045218,-185.39
1630498045234,-211.79
1630498045250,-230.03
1630498045265,-237.73
1630498045281,-232.16
1630498045296,-212.02
1630498045312,-179.08
1630498045328,-138.3
1630498045343,-96.05
1630498045359,-57.27
1630498045375,-23.63
1630498045390,6.09
1630498045406,33.44
1630498045421,57.42
1630498045437,73.5
1630498045453,75.44
1630498045468,59.03
1630498045484,25.31
1630498045500,-18.92
1630498045515,-63.68
1630498045531,-99.82
1630498045546,-122.35
1630498045562,-131.0
1630498045578,-128.59
1630498045593,-118.47
1630498045609,-102.81
1630498045625,-82.64
1630498045640,-58.66
1630498045656,-32.58
1630498045671,-7.31
1630498045687,13.76
1630498045703,28.21
1630498045718,35.53
1630498045734,37.15
1630498045750,35.6
1630498045765,33.16
1630498045781,31.0
1630498045796,29.06
1630498045812,26.71
1630498045828,23.52
1630498045843,19.89
1630498045859,16.81
1630498045875,15.33
1630498045890,15.95
1630498045906,18.33
1630498045921,21.46
1630498045937,24.13
1630498045953,25.44
1630498045968,25.01
1630498045984,23.03
1630498046000,19.94
1630498046015,16.11
1630498046031,11.64
1630498046046,6.37
1630498046062,0.13
1630498046078,-6.99
1630498046093,-14.44
1630498046109,-21.28
1630498046125,-26.5
1630498046140,-29.47
1630498046156,-30.36
1630498046171,-30.03
1630498046187,-29.69
1630498046203,-30.18
1630498046218,-31.66
1630498046234,-33.46
1630498046250,-34.57
1630498046265,-34.12
1630498046281,-31.86
1630498046296,-28.09
1630498046312,-23.47
1630498046328,-18.62
1630498046343,-13.94
1630498046359,-9.61
1630498046375,-5.66
1630498046390,-2.15
1630498046406,0.99
1630498046421,3.91
1630498046437,6.91
1630498046453,10.35
1630498046468,14.41
1630498046484,18.96
1630498046500,23.53
1630498046515,27.45
1630498046531,30.08
1630498046546,30.99
1630498046562,30.15
1630498046578,27.75
1630498046593,24.22
1630498046609,20.03
1630498046625,15.58
1630498046640,11.2
1630498046656,7.14
1630498046671,3.63
1630498046687,0.91
1630498046703,-0.78
1630498046718,-1.32
1630498046734,-0.79
1630498046750,0.43
1630498046765,1.74
1630498046781,2.51
1630498046796,2.3
1630498046812,1.07
1630498046828,-0.88
1630498046843,-3.05
1630498046859,-5.05
1630498046875,-6.74
1630498046890,-8.24
1630498046906,-9.71
1630498046921,-11.09
1630498046937,-11.93
1630498046953,-11.41
1630498046968,-8.68
1630498046984,-3.26
1630498047000,4.59
1630498047015,13.82
1630498047031,22.86
1630498047046,30.14
1630498047062,34.56
1630498047078,35.87
1630498047093,34.52
1630498047109,31.39
1630498047125,27.34
1630498047140,23.05
1630498047156,18.87
1630498047171,15.02
1630498047187,11.69
1630498047203,9.04
1630498047218,7.05
1630498047234,5.53
1630498047250,4.11
1630498047265,2.53
1630498047281,0.85
1630498047296,-0.49
1630498047312,-0.86
1630498047328,0.19
1630498047343,2.64
1630498047359,5.86
1630498047375,8.83
1630498047390,10.55
1630498047406,10.39
1630498047421,8.27
1630498047437,4.71
1630498047453,0.64
1630498047468,-2.86
1630498047484,-4.77
1630498047500,-4.37
1630498047515,-1.42
1630498047531,3.66
1630498047546,9.87
1630498047562,15.73
1630498047578,19.74
1630498047593,20.77
1630498047609,18.41
1630498047625,13.18
1630498047640,6.36
1630498047656,-0.44
1630498047671,-5.74
1630498047687,-8.63
1630498047703,-9.07
1630498047718,-7.81
1630498047734,-6.04
1630498047750,-5.0
1630498047765,-5.49
1630498047781,-7.61
1630498047796,-10.78
1630498047812,-14.03
1630498047828,-16.38
1630498047843,-17.23
1630498047859,-16.5
1630498047875,-14.56
1630498047890,-11.92
1630498047906,-9.05
1630498047921,-6.16
1630498047937,-3.27
1630498047953,-0.3
1630498047968,2.81
1630498047984,6.12
1630498048000,9.63
1630498048015,13.27
1630498048031,16.86
1630498048046,20.0
1630498048062,22.05
1630498048078,22.24
1630498048093,19.88
1630498048109,14.78
1630498048125,7.39
1630498048140,-1.07
1630498048156,-8.95
1630498048171,-14.56
1630498048187,-16.71
1630498048203,-15.01
1630498048218,-10.09
1630498048234,-3.3
1630498048250,3.6
1630498048265,8.94
1630498048281,11.48
1630498048296,10.65
1630498048312,6.6
1630498048328,0.1
1630498048343,-7.64
1630498048359,-15.27
1630498048375,-21.57
1630498048390,-25.71
1630498048406,-27.41
1630498048421,-26.85
1630498048437,-24.46
1630498048453,-20.73
1630498048468,-16.08
1630498048484,-10.83
1630498048500,-5.31
1630498048515,0.03
1630498048531,4.64
1630498048546,8.02
1630498048562,9.83
1630498048578,10.07
1630498048593,9.03
1630498048609,7.24
1630498048625,5.29
1630498048640,3.63
1630498048656,2.55
1630498048671,2.07
1630498048687,2.07
1630498048703,2.44
1630498048718,3.26
1630498048734,4.71
1630498048750,7.14
1630498048765,10.7
1630498048781,15.2
1630498048796,19.98
1630498048812,24.05
1630498048828,26.49
1630498048843,26.91
1630498048859,25.75
1630498048875,24.2
1630498048890,23.74
1630498048906,25.49
1630498048921,29.67
1630498048937,35.46
1630498048953,41.06
1630498048968,44.14
1630498048984,42.3
1630498049000,33.74
1630498049015,17.72
1630498049031,-4.81
1630498049046,-31.08
1630498049062,-56.88
1630498049078,-77.67
1630498049093,-89.96
1630498049109,-92.46
1630498049125,-86.45
1630498049140,-75.08
1630498049156,-61.99
1630498049171,-49.95
1630498049187,-40.11
1630498049203,-32.12
1630498049218,-24.78
1630498049234,-17.0
1630498049250,-8.24
1630498049265,1.32
1630498049281,11.1
1630498049296,20.34
1630498049312,28.15
1630498049328,33.63
1630498049343,35.76
1630498049359,33.95
1630498049375,28.43
1630498049390,20.68
1630498049406,13.31
1630498049421,9.04
1630498049437,9.17
1630498049453,12.22
1630498049468,13.85
1630498049484,8.4
1630498049500,-8.18
1630498049515,-35.57
1630498049531,-68.08
1630498049546,-96.41
1630498049562,-111.38
1630498049578,-107.85
1630498049593,-86.71
1630498049609,-54.08
1630498049625,-18.3
1630498049640,13.53
1630498049656,37.7
1630498049671,54.01
1630498049687,64.72
1630498049703,73.02
1630498049718,81.97
1630498049734,94.03
1630498049750,110.5
1630498049765,130.93
1630498049781,152.86
1630498049796,172.26
1630498049812,184.74
1630498049828,187.18
1630498049843,178.87
1630498049859,161.54
1630498049875,138.3
1630498049890,112.09
1630498049906,84.57
1630498049921,55.87
1630498049937,25.01
1630498049953,-9.12
1630498049968,-46.88
1630498049984,-87.41
1630498050000,-128.84
1630498050015,-168.6
1630498050031,-203.94
1630498050046,-231.99
1630498050062,-249.87
1630498050078,-254.92
1630498050093,-245.21
1630498050109,-220.44
1630498050125,-182.69
1630498050140,-136.42
1630498050156,-87.48
1630498050171,-41.43
1630498050187,-1.95
1630498050203,29.9
1630498050218,55.03
1630498050234,75.15
1630498050250,91.5
1630498050265,104.34
1630498050281,113.31
1630498050296,118.32
1630498050312,120.0
1630498050328,119.66
1630498050343,118.85
1630498050359,118.68
1630498050375,119.56
1630498050390,121.21
1630498050406,123.02
1630498050421,124.48
1630498050437,125.42
1630498050453,125.91
1630498050468,125.83
1630498050484,124.24
1630498050500,119.22
1630498050515,108.06
1630498050531,88.19
1630498050546,58.16
1630498050562,18.47
1630498050578,-28.58
1630498050593,-79.71
1630498050609,-131.94
1630498050625,-183.18
1630498050640,-232.11
1630498050656,-277.24
1630498050671,-316.02
1630498050687,-344.61
1630498050703,-358.75
1630498050718,-355.2
1630498050734,-333.0
1630498050750,-293.88
1630498050765,-241.63
1630498050781,-180.98
1630498050796,-116.64
1630498050812,-52.81
1630498050828,6.69
1630498050843,58.53
1630498050859,99.99
1630498050875,129.52
1630498050890,147.14
1630498050906,154.4
1630498050921,153.88
1630498050937,148.32
1630498050953,139.94
1630498050968,130.18
1630498050984,119.67
1630498051000,108.64
1630498051015,97.23
1630498051031,85.66
1630498051046,74.31
1630498051062,63.57
1630498051078,53.77
1630498051093,45.1
1630498051109,37.58
1630498051125,31.06
1630498051140,25.38
1630498051156,20.37
1630498051171,16.01
1630498051187,12.37
1630498051203,9.6
1630498051218,7.82
1630498051234,7.07
1630498051250,7.16
1630498051265,7.78
1630498051281,8.64
1630498051296,9.53
1630498051312,10.39
1630498051328,11.19
1630498051343,11.82
1630498051359,12.07
1630498051375,11.62
1630498051390,10.24
1630498051406,7.96
1630498051421,5.06
1630498051437,2.06
1630498051453,-0.52
1630498051468,-2.3
1630498051484,-3.2
1630498051500,-3.38
1630498051515,-3.15
1630498051531,-2.86
1630498051546,-2.75
1630498051562,-2.99
1630498051578,-3.61
1630498051593,-4.56
1630498051609,-5.72
1630498051625,-6.97
1630498051640,-8.2
1630498051656,-9.31
1630498051671,-10.21
1630498051687,-10.87
1630498051703,-11.28
1630498051718,-11.47
1630498051734,-11.47
1630498051750,-11.25
1630498051765,-10.72
1630498051781,-9.69
1630498051796,-8.01
1630498051812,-5.67
1630498051828,-2.83
1630498051843,0.18
1630498051859,3.0
1630498051875,5.32
1630498051890,6.97
1630498051906,7.91
1630498051921,8.17
1630498051937,7.84
1630498051953,6.97
1630498051968,5.68
1630498051984,4.15
1630498052000,2.63
1630498052015,1.39
1630498052031,0.62
1630498052046,0.34
1630498052062,0.4
1630498052078,0.51
1630498052093,0.31
1630498052109,-0.45
1630498052125,-1.83
1630498052140,-3.71
1630498052156,-5.85
1630498052171,-8.01
1630498052187,-10.04
1630498052203,-11.86
1630498052218,-13.38
1630498052234,-14.53
1630498052250,-15.25
1630498052265,-15.56
1630498052281,-15.62
1630498052296,-15.66
1630498052312,-15.78
1630498052328,-15.86
1630498052343,-15.52
1630498052359,-14.3
1630498052375,-11.93
1630498052390,-8.52
1630498052406,-4.59
1630498052421,-0.84
1630498052437,2.19
1630498052453,4.26
1630498052468,5.5
1630498052484,6.23
1630498052500,6.69
1630498052515,6.98
1630498052531,7.01
1630498052546,6.72
1630498052562,6.14
1630498052578,5.48
1630498052593,5.01
1630498052609,4.92
1630498052625,5.23
1630498052640,5.74
1630498052656,6.17
1630498052671,6.28
1630498052687,6.0
1630498052703,5.38
1630498052718,4.54
1630498052734,3.59
1630498052750,2.51
1630498052765,1.25
1630498052781,-0.23
1630498052796,-1.89
1630498052812,-3.54
1630498052828,-4.94
1630498052843,-5.93
1630498052859,-6.5
1630498052875,-6.75
1630498052890,-6.82
1630498052906,-6.78
1630498052921,-6.53
1630498052937,-5.85
1630498052953,-4.54
1630498052968,-2.48
1630498052984,0.23
1630498053000,3.35
1630498053015,6.54
1630498053031,9.49
1630498053046,12.01
1630498053062,14.01
1630498053078,15.5
1630498053093,16.49
1630498053109,17.04
1630498053125,17.19
1630498053140,17.02
1630498053156,16.67
1630498053171,16.31
1630498053187,16.1
1630498053203,16.15
1630498053218,16.47
1630498053234,16.96
1630498053250,17.47
1630498053265,17.82
1630498053281,17.89
1630498053296,17.56
1630498053312,16.76
1630498053328,15.43
1630498053343,13.57
1630498053359,11.22
1630498053375,8.47
1630498053390,5.46
1630498053406,2.36
1630498053421,-0.65
1630498053437,-3.42
1630498053453,-5.86
1630498053468,-7.9
1630498053484,-9.54
1630498053500,-10.76
1630498053515,-11.55
1630498053531,-11.8
1630498053546,-11.41
1630498053562,-10.22
1630498053578,-8.15
1630498053593,-5.24
1630498053609,-1.73
1630498053625,2.01
1630498053640,5.49
1630498053656,8.3
1630498053671,10.14
1630498053687,10.99
1630498053703,11.01
1630498053718,10.52
1630498053734,9.84
1630498053750,9.21
1630498053765,8.69
1630498053781,8.23
1630498053796,7.76
1630498053812,7.22
1630498053828,6.64
1630498053843,6.07
1630498053859,5.55
1630498053875,5.12
1630498053890,4.72
1630498053906,4.25
1630498053921,3.62
1630498053937,2.78
1630498053953,1.69
1630498053968,0.43
1630498053984,-0.93
1630498054000,-2.28
1630498054015,-3.56
1630498054031,-4.74
1630498054046,-5.83
1630498054062,-6.91
1630498054078,-8.04
1630498054093,-9.27
1630498054109,-10.61
1630498054125,-12.02
1630498054140,-13.34
1630498054156,-14.35
1630498054171,-14.73
1630498054187,-14.15
1630498054203,-12.38
1630498054218,-9.49
1630498054234,-5.84
1630498054250,-2.06
1630498054265,1.14
1630498054281,3.25
1630498054296,4.1
1630498054312,3.92
1630498054328,3.2
1630498054343,2.41
1630498054359,1.82
1630498054375,1.48
1630498054390,1.23
1630498054406,0.87
1630498054421,0.33
1630498054437,-0.33
1630498054453,-1.01
1630498054468,-1.57
1630498054484,-1.97
1630498054500,-2.21
1630498054515,-2.35
1630498054531,-2.45
1630498054546,-2.62
1630498054562,-2.93
1630498054578,-3.51
1630498054593,-4.43
1630498054609,-5.69
1630498054625,-7.24
1630498054640,-8.93
1630498054656,-10.58
1630498054671,-12.04
1630498054687,-13.27
1630498054703,-14.33
1630498054718,-15.31
1630498054734,-16.25
1630498054750,-17.02
1630498054765,-17.4
1630498054781,-17.12
1630498054796,-15.97
1630498054812,-13.95
1630498054828,-11.26
1630498054843,-8.22
1630498054859,-5.21
1630498054875,-2.56
1630498054890,-0.49
1630498054906,0.83
1630498054921,1.35
1630498054937,1.11
1630498054953,0.25
1630498054968,-0.95
1630498054984,-2.15
1630498055000,-3.09
1630498055015,-3.57
1630498055031,-3.57
1630498055046,-3.19
1630498055062,-2.57
1630498055078,-1.9
1630498055093,-1.34
1630498055109,-1.0
1630498055125,-0.97
1630498055140,-1.29
1630498055156,-1.96
1630498055171,-2.92
1630498055187,-4.02
1630498055203,-5.1
1630498055218,-6.0
1630498055234,-6.67
1630498055250,-7.14
1630498055265,-7.55
1630498055281,-8.03
1630498055296,-8.66
1630498055312,-9.39
1630498055328,-10.08
1630498055343,-10.47
1630498055359,-10.29
1630498055375,-9.38
1630498055390,-7.67
1630498055406,-5.32
1630498055421,-2.58
1630498055437,0.19
1630498055453,2.65
1630498055468,4.6
1630498055484,5.93
1630498055500,6.68
1630498055515,6.9
1630498055531,6.71
1630498055546,6.19
1630498055562,5.49
1630498055578,4.8
1630498055593,4.29
1630498055609,4.11
1630498055625,4.29
1630498055640,4.76
1630498055656,5.36
1630498055671,5.9
1630498055687,6.27
1630498055703,6.33
1630498055718,6.07
1630498055734,5.52
1630498055750,4.74
1630498055765,3.87
1630498055781,3.03
1630498055796,2.35
1630498055812,1.9
1630498055828,1.65
1630498055843,1.48
1630498055859,1.18
1630498055875,0.58
1630498055890,-0.36
1630498055906,-1.48
1630498055921,-2.43
1630498055937,-2.78
1630498055953,-2.18
1630498055968,-0.5
1630498055984,2.09
1630498056000,5.21
1630498056015,8.43
1630498056031,11.39
1630498056046,13.86
1630498056062,15.72
1630498056078,16.92
1630498056093,17.38
1630498056109,17.02
1630498056125,15.83
1630498056140,13.95
1630498056156,11.65
1630498056171,9.35
1630498056187,7.46
1630498056203,6.26
1630498056218,5.8
1630498056234,5.92
1630498056250,6.28
1630498056265,6.57
1630498056281,6.61
1630498056296,6.38
1630498056312,6.0
1630498056328,5.58
1630498056343,5.16
1630498056359,4.65
1630498056375,3.87
1630498056390,2.7
1630498056406,1.12
1630498056421,-0.7
1630498056437,-2.5
1630498056453,-3.98
1630498056468,-4.95
1630498056484,-5.31
1630498056500,-5.06
1630498056515,-4.24
1630498056531,-2.96
1630498056546,-1.34
1630498056562,0.47
1630498056578,2.25
1630498056593,3.8
1630498056609,4.97
1630498056625,5.71
1630498056640,6.1
1630498056656,6.27
1630498056671,6.28
1630498056687,6.14
1630498056703,5.73
1630498056718,4.9
1630498056734,3.59
1630498056750,1.86
1630498056765,-0.02
1630498056781,-1.78
1630498056796,-3.2
1630498056812,-4.26
1630498056828,-5.07
1630498056843,-5.88
1630498056859,-6.8
1630498056875,-7.87
1630498056890,-8.92
1630498056906,-9.76
1630498056921,-10.27
1630498056937,-10.47
1630498056953,-10.48
1630498056968,-10.5
1630498056984,-10.69
1630498057000,-11.11
1630498057015,-11.73
1630498057031,-12.4
1630498057046,-12.88
1630498057062,-12.91
1630498057078,-12.21
1630498057093,-10.66
1630498057109,-8.3
1630498057125,-5.45
1630498057140,-2.53
1630498057156,0.03
1630498057171,1.94
1630498057187,3.18
1630498057203,3.88
1630498057218,4.27
1630498057234,4.5
1630498057250,4.58
1630498057265,4.48
1630498057281,4.17
1630498057296,3.68
1630498057312,3.17
1630498057328,2.78
1630498057343,2.57
1630498057359,2.47
1630498057375,2.34
1630498057390,1.96
1630498057406,1.25
1630498057421,0.23
1630498057437,-0.95
1630498057453,-2.16
1630498057468,-3.31
1630498057484,-4.43
1630498057500,-5.6
1630498057515,-6.93
1630498057531,-8.43
1630498057546,-10.07
1630498057562,-11.76
1630498057578,-13.42
1630498057593,-14.91
1630498057609,-16.06
1630498057625,-16.61
1630498057640,-16.34
1630498057656,-15.09
1630498057671,-12.95
1630498057687,-10.21
1630498057703,-7.3
1630498057718,-4.66
1630498057734,-2.59
1630498057750,-1.2
1630498057765,-0.39
1630498057781,0.03
1630498057796,0.26
1630498057812,0.38
1630498057828,0.42
1630498057843,0.4
1630498057859,0.34
1630498057875,0.3
1630498057890,0.37
1630498057906,0.53
1630498057921,0.72
1630498057937,0.79
1630498057953,0.56
1630498057968,-0.06
1630498057984,-1.07
1630498058000,-2.35
1630498058015,-3.72
1630498058031,-5.03
1630498058046,-6.13
1630498058062,-7.0
1630498058078,-7.66
1630498058093,-8.2
1630498058109,-8.73
1630498058125,-9.35
1630498058140,-10.05
1630498058156,-10.72
1630498058171,-11.13
1630498058187,-10.97
1630498058203,-9.97
1630498058218,-8.04
1630498058234,-5.3
1630498058250,-2.08
1630498058265,1.19
1630498058281,4.15
1630498058296,6.49
1630498058312,8.15
1630498058328,9.11
1630498058343,9.48
1630498058359,9.38
1630498058375,8.96
1630498058390,8.39
1630498058406,7.89
1630498058421,7.6
1630498058437,7.58
1630498058453,7.76
1630498058468,8.0
1630498058484,8.17
1630498058500,8.16
1630498058515,7.96
1630498058531,7.59
1630498058546,7.08
1630498058562,6.47
1630498058578,5.81
1630498058593,5.2
1630498058609,4.73
1630498058625,4.44
1630498058640,4.27
1630498058656,4.04
1630498058671,3.51
1630498058687,2.54
1630498058703,1.19
1630498058718,-0.28
1630498058734,-1.42
1630498058750,-1.8
1630498058765,-1.14
1630498058781,0.63
1630498058796,3.29
1630498058812,6.51
1630498058828,9.9
1630498058843,13.13
1630498058859,15.95
1630498058875,18.17
1630498058890,19.64
1630498058906,20.19
1630498058921,19.73
1630498058937,18.29
1630498058953,16.09
1630498058968,13.54
1630498058984,11.11
1630498059000,9.2
1630498059015,8.03
1630498059031,7.5
1630498059046,7.32
1630498059062,7.15
1630498059078,6.73
1630498059093,5.98
1630498059109,4.95
1630498059125,3.77
1630498059140,2.54
1630498059156,1.31
1630498059171,0.04
1630498059187,-1.24
1630498059203,-2.44
1630498059218,-3.46
1630498059234,-4.27
1630498059250,-4.95
1630498059265,-5.72
1630498059281,-6.72
1630498059296,-7.93
1630498059312,-9.06
1630498059328,-9.65
1630498059343,-9.24
1630498059359,-7.66
1630498059375,-5.08
1630498059390,-1.95
1630498059406,1.14
1630498059421,3.75
1630498059437,5.62
1630498059453,6.75
1630498059468,7.21
1630498059484,7.11
1630498059500,6.58
1630498059515,5.78
1630498059531,4.93
1630498059546,4.22
1630498059562,3.78
1630498059578,3.6
1630498059593,3.55
1630498059609,3.49
1630498059625,3.33
1630498059640,3.04
1630498059656,2.63
1630498059671,2.12
1630498059687,1.37
1630498059703,0.28
1630498059718,-1.19
1630498059734,-2.87
1630498059750,-4.42
1630498059765,-5.46
1630498059781,-5.85
1630498059796,-5.71
1630498059812,-5.47
1630498059828,-5.61
1630498059843,-6.44
1630498059859,-7.94
1630498059875,-9.7
1630498059890,-11.17
1630498059906,-11.79
1630498059921,-11.23
1630498059937,-9.45
1630498059953,-6.67
1630498059968,-3.33
1630498059984,0.09
1630498060000,3.15
1630498060015,5.52
1630498060031,7.05
1630498060046,7.74
1630498060062,7.71
1630498060078,7.12
1630498060093,6.16
1630498060109,4.99
1630498060125,3.78
1630498060140,2.65
1630498060156,1.74
1630498060171,1.14
1630498060187,0.88
1630498060203,0.94
1630498060218,1.17
1630498060234,1.42
1630498060250,1.45
1630498060265,1.07
1630498060281,0.22
1630498060296,-1.11
1630498060312,-2.79
1630498060328,-4.69
1630498060343,-6.72
1630498060359,-8.83
1630498060375,-11.03
1630498060390,-13.31
1630498060406,-15.6
1630498060421,-17.78
1630498060437,-19.72
1630498060453,-21.31
1630498060468,-22.46
1630498060484,-23.04
1630498060500,-22.82
1630498060515,-21.56
1630498060531,-19.13
1630498060546,-15.7
1630498060562,-11.69
1630498060578,-7.69
1630498060593,-4.24
1630498060609,-1.59
1630498060625,0.29
1630498060640,1.65
1630498060656,2.72
1630498060671,3.6
1630498060687,4.22
1630498060703,4.49
1630498060718,4.39
1630498060734,4.02
1630498060750,3.59
1630498060765,3.31
1630498060781,3.26
1630498060796,3.42
1630498060812,3.68
1630498060828,3.88
1630498060843,3.89
1630498060859,3.64
1630498060875,3.12
1630498060890,2.42
1630498060906,1.62
1630498060921,0.8
1630498060937,-0.07
1630498060953,-1.04
1630498060968,-2.21
1630498060984,-3.62
1630498061000,-5.27
1630498061015,-7.06
1630498061031,-8.83
1630498061046,-10.44
1630498061062,-11.72
1630498061078,-12.51
1630498061093,-12.61
1630498061109,-11.81
1630498061125,-9.94
1630498061140,-7.04
1630498061156,-3.39
1630498061171,0.51
1630498061187,4.1
1630498061203,6.92
1630498061218,8.8
1630498061234,9.84
1630498061250,10.31
1630498061265,10.5
1630498061281,10.62
1630498061296,10.68
1630498061312,10.7
1630498061328,10.69
1630498061343,10.71
1630498061359,10.84
1630498061375,11.11
1630498061390,11.47
1630498061406,11.87
1630498061421,12.25
1630498061437,12.6
1630498061453,12.91
1630498061468,13.14
1630498061484,13.14
1630498061500,12.78
1630498061515,11.97
1630498061531,10.78
1630498061546,9.33
1630498061562,7.83
1630498061578,6.37
1630498061593,4.97
1630498061609,3.59
1630498061625,2.26
1630498061640,1.11
1630498061656,0.29
1630498061671,-0.11
1630498061687,-0.08
1630498061703,0.3
1630498061718,0.97
1630498061734,1.9
1630498061750,3.11
1630498061765,4.6
1630498061781,6.3
1630498061796,8.07
1630498061812,9.72
1630498061828,11.12
1630498061843,12.11
1630498061859,12.55
1630498061875,12.32
1630498061890,11.36
1630498061906,9.75
1630498061921,7.76
1630498061937,5.82
1630498061953,4.3
1630498061968,3.47
1630498061984,3.37
1630498062000,3.83
1630498062015,4.62
1630498062031,5.52
1630498062046,6.28
1630498062062,6.62
1630498062078,6.28
1630498062093,5.06
1630498062109,2.94
1630498062125,0.21
1630498062140,-2.66
1630498062156,-5.09
1630498062171,-6.73
1630498062187,-7.51
1630498062203,-7.78
1630498062218,-8.01
1630498062234,-8.7
1630498062250,-10.02
1630498062265,-11.71
1630498062281,-13.23
1630498062296,-13.91
1630498062312,-13.24
1630498062328,-11.11
1630498062343,-7.77
1630498062359,-3.74
1630498062375,0.38
1630498062390,4.11
1630498062406,7.12
1630498062421,9.2
1630498062437,10.28
1630498062453,10.34
1630498062468,9.51
1630498062484,8.04
1630498062500,6.35
1630498062515,4.84
1630498062531,3.76
1630498062546,3.21
1630498062562,3.06
1630498062578,3.1
1630498062593,3.17
1630498062609,3.15
1630498062625,2.99
1630498062640,2.66
1630498062656,2.08
1630498062671,1.19
1630498062687,-0.08
1630498062703,-1.7
1630498062718,-3.51
1630498062734,-5.33
1630498062750,-6.94
1630498062765,-8.25
1630498062781,-9.27
1630498062796,-10.22
1630498062812,-11.29
1630498062828,-12.63
1630498062843,-14.15
1630498062859,-15.54
1630498062875,-16.33
1630498062890,-16.08
1630498062906,-14.57
1630498062921,-11.92
1630498062937,-8.54
1630498062953,-4.97
1630498062968,-1.67
1630498062984,1.1
1630498063000,3.32
1630498063015,5.03
1630498063031,6.27
1630498063046,6.98
1630498063062,7.07
1630498063078,6.48
1630498063093,5.29
1630498063109,3.69
1630498063125,1.99
1630498063140,0.53
1630498063156,-0.49
1630498063171,-1.0
1630498063187,-1.09
1630498063203,-1.03
1630498063218,-1.1
1630498063234,-1.57
1630498063250,-2.56
1630498063265,-4.05
1630498063281,-5.89
1630498063296,-7.88
1630498063312,-9.84
1630498063328,-11.64
1630498063343,-13.21
1630498063359,-14.52
1630498063375,-15.62
1630498063390,-16.59
1630498063406,-17.53
1630498063421,-18.46
1630498063437,-19.29
1630498063453,-19.74
1630498063468,-19.45
1630498063484,-18.09
1630498063500,-15.54
1630498063515,-11.96
1630498063531,-7.74
1630498063546,-3.42
1630498063562,0.52
1630498063578,3.74
1630498063593,6.04
1630498063609,7.39
1630498063625,7.83
1630498063640,7.47
1630498063656,6.48
1630498063671,5.13
1630498063687,3.73
1630498063703,2.61
1630498063718,2.0
1630498063734,2.02
1630498063750,2.58
1630498063765,3.42
1630498063781,4.19
1630498063796,4.54
1630498063812,4.29
1630498063828,3.47
1630498063843,2.3
1630498063859,1.07
1630498063875,0.02
1630498063890,-0.76
1630498063906,-1.34
1630498063921,-1.94
1630498063937,-2.73
1630498063953,-3.81
1630498063968,-5.12
1630498063984,-6.53
1630498064000,-7.8
1630498064015,-8.77
1630498064031,-9.23
1630498064046,-9.04
1630498064062,-8.08
1630498064078,-6.33
1630498064093,-3.92
1630498064109,-1.08
1630498064125,1.89
1630498064140,4.68
1630498064156,7.09
1630498064171,9.01
1630498064187,10.46
1630498064203,11.46
1630498064218,12.05
1630498064234,12.23
1630498064250,12.1
1630498064265,11.84
1630498064281,11.71
1630498064296,11.93
1630498064312,12.6
1630498064328,13.63
1630498064343,14.77
1630498064359,15.72
1630498064375,16.28
1630498064390,16.4
1630498064406,16.16
1630498064421,15.72
1630498064437,15.17
1630498064453,14.53
1630498064468,13.67
1630498064484,12.45
1630498064500,10.71
1630498064515,8.37
1630498064531,5.46
1630498064546,2.12
1630498064562,-1.37
1630498064578,-4.65
1630498064593,-7.27
1630498064609,-8.88
1630498064625,-9.22
1630498064640,-8.34
1630498064656,-6.5
1630498064671,-4.2
1630498064687,-1.93
1630498064703,-0.08
1630498064718,1.23
1630498064734,2.08
1630498064750,2.64
1630498064765,3.08
1630498064781,3.43
1630498064796,3.63
1630498064812,3.64
1630498064828,3.44
1630498064843,3.1
1630498064859,2.77
1630498064875,2.53
1630498064890,2.38
1630498064906,2.29
1630498064921,2.17
1630498064937,1.96
1630498064953,1.64
1630498064968,1.23
1630498064984,0.77
1630498065000,0.29
1630498065015,-0.24
1630498065031,-0.93
1630498065046,-1.88
1630498065062,-3.17
1630498065078,-4.83
1630498065093,-6.77
1630498065109,-8.87
1630498065125,-10.96
1630498065140,-12.88
1630498065156,-14.43
1630498065171,-15.37
1630498065187,-15.36
1630498065203,-14.13
1630498065218,-11.58
1630498065234,-7.93
1630498065250,-3.7
1630498065265,0.45
1630498065281,3.9
1630498065296,6.33
1630498065312,7.73
1630498065328,8.33
1630498065343,8.41
1630498065359,8.19
1630498065375,7.79
1630498065390,7.28
1630498065406,6.71
1630498065421,6.14
1630498065437,5.64
1630498065453,5.2
1630498065468,4.8
1630498065484,4.35
1630498065500,3.8
1630498065515,3.09
1630498065531,2.22
1630498065546,1.19
1630498065562,0.04
1630498065578,-1.14
1630498065593,-2.3
1630498065609,-3.39
1630498065625,-4.47
1630498065640,-5.68
1630498065656,-7.21
1630498065671,-9.17
1630498065687,-11.46
1630498065703,-13.77
1630498065718,-15.57
1630498065734,-16.34
1630498065750,-15.7
1630498065765,-13.61
1630498065781,-10.38
1630498065796,-6.57
1630498065812,-2.83
1630498065828,0.35
1630498065843,2.66
1630498065859,4.08
1630498065875,4.76
1630498065890,4.92
1630498065906,4.68
1630498065921,4.13
1630498065937,3.26
1630498065953,2.12
1630498065968,0.85
1630498065984,-0.33
1630498066000,-1.22
1630498066015,-1.74
1630498066031,-2.0
1630498066046,-2.23
1630498066062,-2.73
1630498066078,-3.69
1630498066093,-5.14
1630498066109,-6.89
1630498066125,-8.66
1630498066140,-10.16
1630498066156,-11.21
1630498066171,-11.77
1630498066187,-11.99
1630498066203,-12.04
1630498066218,-12.12
1630498066234,-12.39
1630498066250,-12.88
1630498066265,-13.52
1630498066281,-14.08
1630498066296,-14.27
1630498066312,-13.7
1630498066328,-12.07
1630498066343,-9.3
1630498066359,-5.61
1630498066375,-1.53
1630498066390,2.29
1630498066406,5.28
1630498066421,7.13
1630498066437,7.84
1630498066453,7.67
1630498066468,6.94
1630498066484,5.96
1630498066500,4.91
1630498066515,3.95
1630498066531,3.25
1630498066546,3.01
1630498066562,3.31
1630498066578,4.11
1630498066593,5.13
1630498066609,5.94
1630498066625,6.19
1630498066640,5.69
1630498066656,4.55
1630498066671,3.12
1630498066687,1.82
1630498066703,0.88
1630498066718,0.32
1630498066734,-0.09
1630498066750,-0.63
1630498066765,-1.5
1630498066781,-2.69
1630498066796,-4.07
1630498066812,-5.46
1630498066828,-6.77
1630498066843,-7.96
1630498066859,-8.96
1630498066875,-9.51
1630498066890,-9.22
1630498066906,-7.69
1630498066921,-4.76
1630498066937,-0.66
1630498066953,4.0
1630498066968,8.47
1630498066984,12.12
1630498067000,14.7
1630498067015,16.32
1630498067031,17.26
1630498067046,17.83
1630498067062,18.14
1630498067078,18.19
1630498067093,17.94
1630498067109,17.47
1630498067125,17.0
1630498067140,16.77
1630498067156,16.93
1630498067171,17.44
1630498067187,18.01
1630498067203,18.27
1630498067218,17.84
1630498067234,16.56
1630498067250,14.48
1630498067265,11.9
1630498067281,9.17
1630498067296,6.62
1630498067312,4.39
1630498067328,2.43
1630498067343,0.52
1630498067359,-1.6
1630498067375,-4.08
1630498067390,-6.9
1630498067406,-9.82
1630498067421,-12.41
1630498067437,-14.17
1630498067453,-14.66
1630498067468,-13.59
1630498067484,-10.97
1630498067500,-7.08
1630498067515,-2.47
1630498067531,2.2
1630498067546,6.26
1630498067562,9.27
1630498067578,10.99
1630498067593,11.44
1630498067609,10.85
1630498067625,9.59
1630498067640,8.06
1630498067656,6.64
1630498067671,5.64
1630498067687,5.17
1630498067703,5.2
1630498067718,5.54
1630498067734,5.9
1630498067750,6.05
1630498067765,5.88
1630498067781,5.42
1630498067796,4.73
1630498067812,3.91
1630498067828,2.97
1630498067843,1.85
1630498067859,0.42
1630498067875,-1.38
1630498067890,-3.49
1630498067906,-5.77
1630498067921,-7.98
1630498067937,-9.89
1630498067953,-11.42
1630498067968,-12.6
1630498067984,-13.58
1630498068000,-14.41
1630498068015,-14.96
1630498068031,-14.88
1630498068046,-13.79
1630498068062,-11.44
1630498068078,-7.95
1630498068093,-3.76
1630498068109,0.49
1630498068125,4.24
1630498068140,7.16
1630498068156,9.22
1630498068171,10.57
1630498068187,11.37
1630498068203,11.7
1630498068218,11.53
1630498068234,10.86
1630498068250,9.78
1630498068265,8.46
1630498068281,7.2
1630498068296,6.17
1630498068312,5.47
1630498068328,5.01
1630498068343,4.6
1630498068359,4.02
1630498068375,3.12
1630498068390,1.84
1630498068406,0.23
1630498068421,-1.59
1630498068437,-3.55
1630498068453,-5.64
1630498068468,-7.85
1630498068484,-10.17
1630498068500,-12.48
1630498068515,-14.63
1630498068531,-16.44
1630498068546,-17.82
1630498068562,-18.74
1630498068578,-19.19
1630498068593,-19.1
1630498068609,-18.3
1630498068625,-16.61
1630498068640,-13.94
1630498068656,-10.46
1630498068671,-6.56
1630498068687,-2.8
1630498068703,0.32
1630498068718,2.54
1630498068734,3.89
1630498068750,4.63
1630498068765,5.06
1630498068781,5.36
1630498068796,5.51
1630498068812,5.33
1630498068828,4.65
1630498068843,3.43
1630498068859,1.84
1630498068875,0.21
1630498068890,-1.12
1630498068906,-1.93
1630498068921,-2.23
1630498068937,-2.18
1630498068953,-2.05
1630498068968,-2.02
1630498068984,-2.19
1630498069000,-2.59
1630498069015,-3.16
1630498069031,-3.93
1630498069046,-4.87
1630498069062,-6.02
1630498069078,-7.35
1630498069093,-8.85
1630498069109,-10.44
1630498069125,-12.06
1630498069140,-13.61
1630498069156,-14.96
1630498069171,-15.91
1630498069187,-16.2
1630498069203,-15.6
1630498069218,-13.95
1630498069234,-11.25
1630498069250,-7.7
1630498069265,-3.67
1630498069281,0.42
1630498069296,4.16
1630498069312,7.25
1630498069328,9.52
1630498069343,10.95
1630498069359,11.58
1630498069375,11.5
1630498069390,10.79
1630498069406,9.66
1630498069421,8.35
1630498069437,7.2
1630498069453,6.43
1630498069468,6.1
1630498069484,6.07
1630498069500,6.07
1630498069515,5.87
1630498069531,5.41
1630498069546,4.82
1630498069562,4.32
1630498069578,4.07
1630498069593,4.03
1630498069609,4.02
1630498069625,3.79
1630498069640,3.16
1630498069656,2.12
1630498069671,0.76
1630498069687,-0.73
1630498069703,-2.21
1630498069718,-3.58
1630498069734,-4.8
1630498069750,-5.8
1630498069765,-6.45
1630498069781,-6.56
1630498069796,-5.9
1630498069812,-4.31
1630498069828,-1.78
1630498069843,1.57
1630498069859,5.4
1630498069875,9.33
1630498069890,12.99
1630498069906,16.13
1630498069921,18.61
1630498069937,20.35
1630498069953,21.32
1630498069968,21.46
1630498069984,20.77
1630498070000,19.36
1630498070015,17.46
1630498070031,15.39
1630498070046,13.46
1630498070062,11.86
1630498070078,10.66
1630498070093,9.76
1630498070109,9.04
1630498070125,8.38
1630498070140,7.74
1630498070156,7.09
1630498070171,6.36
1630498070187,5.48
1630498070203,4.36
1630498070218,2.97
1630498070234,1.31
1630498070250,-0.55
1630498070265,-2.5
1630498070281,-4.47
1630498070296,-6.4
1630498070312,-8.26
1630498070328,-9.98
1630498070343,-11.41
1630498070359,-12.29
1630498070375,-12.39
1630498070390,-11.52
1630498070406,-9.67
1630498070421,-7.03
1630498070437,-3.94
1630498070453,-0.81
1630498070468,1.97
1630498070484,4.21
1630498070500,5.86
1630498070515,6.99
1630498070531,7.66
1630498070546,7.93
1630498070562,7.75
1630498070578,7.08
1630498070593,5.97
1630498070609,4.57
1630498070625,3.15
1630498070640,1.98
1630498070656,1.26
1630498070671,1.02
1630498070687,1.12
1630498070703,1.34
1630498070718,1.43
1630498070734,1.25
1630498070750,0.71
1630498070765,-0.2
1630498070781,-1.44
1630498070796,-2.93
1630498070812,-4.55
1630498070828,-6.15
1630498070843,-7.62
1630498070859,-8.93
1630498070875,-10.16
1630498070890,-11.44
1630498070906,-12.88
1630498070921,-14.42
1630498070937,-15.78
1630498070953,-16.54
1630498070968,-16.33
1630498070984,-14.99
1630498071000,-12.62
1630498071015,-9.54
1630498071031,-6.18
1630498071046,-2.87
1630498071062,0.16
1630498071078,2.79
1630498071093,4.9
1630498071109,6.36
1630498071125,7.05
1630498071140,6.92
1630498071156,6.04
1630498071171,4.67
1630498071187,3.17
1630498071203,1.97
1630498071218,1.31
1630498071234,1.23
1630498071250,1.54
1630498071265,1.87
1630498071281,1.86
1630498071296,1.33
1630498071312,0.3
1630498071328,-1.0
1630498071343,-2.27
1630498071359,-3.33
1630498071375,-4.2
1630498071390,-5.03
1630498071406,-5.98
1630498071421,-7.17
1630498071437,-8.61
1630498071453,-10.26
1630498071468,-12.09
1630498071484,-14.09
1630498071500,-16.19
1630498071515,-18.21
1630498071531,-19.78
1630498071546,-20.51
1630498071562,-20.01
1630498071578,-18.12
1630498071593,-14.98
1630498071609,-11.01
1630498071625,-6.82
1630498071640,-3.0
1630498071656,0.01
1630498071671,2.07
1630498071687,3.29
1630498071703,3.94
1630498071718,4.33
1630498071734,4.62
1630498071750,4.82
1630498071765,4.81
1630498071781,4.49
1630498071796,3.89
1630498071812,3.17
1630498071828,2.55
1630498071843,2.21
1630498071859,2.15
1630498071875,2.29
1630498071890,2.45
1630498071906,2.51
1630498071921,2.4
1630498071937,2.12
1630498071953,1.7
1630498071968,1.12
1630498071984,0.32
1630498072000,-0.76
1630498072015,-2.14
1630498072031,-3.79
1630498072046,-5.61
1630498072062,-7.51
1630498072078,-9.43
1630498072093,-11.28
1630498072109,-12.93
1630498072125,-14.12
1630498072140,-14.48
1630498072156,-13.67
1630498072171,-11.52
1630498072187,-8.14
1630498072203,-4.0
1630498072218,0.23
1630498072234,3.89
1630498072250,6.56
1630498072265,8.12
1630498072281,8.78
1630498072296,8.87
1630498072312,8.73
1630498072328,8.51
1630498072343,8.24
1630498072359,7.87
1630498072375,7.4
1630498072390,6.94
1630498072406,6.68
1630498072421,6.77
1630498072437,7.21
1630498072453,7.84
1630498072468,8.37
1630498072484,8.58
1630498072500,8.36
1630498072515,7.84
1630498072531,7.25
1630498072546,6.79
1630498072562,6.52
1630498072578,6.35
1630498072593,6.09
1630498072609,5.55
1630498072625,4.66
1630498072640,3.43
1630498072656,1.98
1630498072671,0.47
1630498072687,-0.85
1630498072703,-1.66
1630498072718,-1.67
1630498072734,-0.64
1630498072750,1.46
1630498072765,4.36
1630498072781,7.56
1630498072796,10.48
1630498072812,12.65
1630498072828,13.82
1630498072843,14.03
1630498072859,13.43
1630498072875,12.24
1630498072890,10.64
1630498072906,8.82
1630498072921,6.99
1630498072937,5.41
1630498072953,4.32
1630498072968,3.81
1630498072984,3.8
1630498073000,3.99
1630498073015,4.06
1630498073031,3.8
1630498073046,3.19
1630498073062,2.4
1630498073078,1.62
1630498073093,0.97
1630498073109,0.4
1630498073125,-0.23
1630498073140,-1.04
1630498073156,-2.09
1630498073171,-3.36
1630498073187,-4.75
1630498073203,-6.22
1630498073218,-7.81
1630498073234,-9.56
1630498073250,-11.37
1630498073265,-12.94
1630498073281,-13.77
1630498073296,-13.32
1630498073312,-11.33
1630498073328,-7.91
1630498073343,-3.63
1630498073359,0.75
1630498073375,4.46
1630498073390,7.07
1630498073406,8.47
1630498073421,8.83
1630498073437,8.48
1630498073453,7.71
1630498073468,6.76
1630498073484,5.77
1630498073500,4.87
1630498073515,4.17
1630498073531,3.73
1630498073546,3.6
1630498073562,3.68
1630498073578,3.84
1630498073593,3.86
1630498073609,3.52
1630498073625,2.62
