timestamp,bvp
1630411793140,-14.32
1630411793156,-13.94
1630411793171,-12.89
1630411793187,-11.36
1630411793203,-9.61
1630411793218,-7.89
1630411793234,-6.44
1630411793250,-5.43
1630411793265,-4.88
1630411793281,-4.73
1630411793296,-4.79
1630411793312,-4.8
1630411793328,-4.57
1630411793343,-3.97
1630411793359,-3.02
1630411793375,-1.81
1630411793390,-0.5
1630411793406,0.75
1630411793421,1.86
1630411793437,2.8
1630411793453,3.63
1630411793468,4.36
1630411793484,5.04
1630411793500,5.61
1630411793515,6.03
1630411793531,6.25
1630411793546,6.2
1630411793562,5.84
1630411793578,5.11
1630411793593,3.98
1630411793609,2.5
1630411793625,0.82
1630411793640,-0.82
1630411793656,-2.19
1630411793671,-3.14
1630411793687,-3.65
1630411793703,-3.8
1630411793718,-3.75
1630411793734,-3.71
1630411793750,-3.86
1630411793765,-4.29
1630411793781,-5.02
1630411793796,-5.97
1630411793812,-7.03
1630411793828,-7.96
1630411793843,-8.63
1630411793859,-8.94
1630411793875,-8.92
1630411793890,-8.64
1630411793906,-8.12
1630411793921,-7.38
1630411793937,-6.43
1630411793953,-5.26
1630411793968,-3.94
1630411793984,-2.61
1630411794000,-1.38
1630411794015,-0.39
1630411794031,0.33
1630411794046,0.8
1630411794062,1.09
1630411794078,1.32
1630411794093,1.6
1630411794109,1.96
1630411794125,2.38
1630411794140,2.84
1630411794156,3.29
1630411794171,3.74
1630411794187,4.24
1630411794203,4.67
1630411794218,4.95
1630411794234,4.94
1630411794250,4.54
1630411794265,3.75
1630411794281,2.8
1630411794296,1.96
1630411794312,1.39
1630411794328,1.27
1630411794343,1.53
1630411794359,2.09
1630411794375,2.86
1630411794390,3.77
1630411794406,4.7
1630411794421,5.56
1630411794437,6.19
1630411794453,6.39
1630411794468,6.12
1630411794484,5.37
1630411794500,4.29
1630411794515,3.11
1630411794531,2.08
1630411794546,1.34
1630411794562,0.92
1630411794578,0.65
1630411794593,0.32
1630411794609,-0.22
1630411794625,-1.06
1630411794640,-2.14
1630411794656,-3.35
1630411794671,-4.64
1630411794687,-5.97
1630411794703,-7.31
1630411794718,-8.6
1630411794734,-9.67
1630411794750,-10.29
1630411794765,-10.34
1630411794781,-9.78
1630411794796,-8.8
1630411794812,-7.7
1630411794828,-6.79
1630411794843,-6.22
1630411794859,-5.94
1630411794875,-5.69
1630411794890,-5.22
1630411794906,-4.39
1630411794921,-3.19
1630411794937,-1.75
1630411794953,-0.25
1630411794968,1.18
1630411794984,2.47
1630411795000,3.57
1630411795015,4.4
1630411795031,4.83
1630411795046,4.77
1630411795062,4.27
1630411795078,3.51
1630411795093,2.76
1630411795109,2.28
1630411795125,2.18
1630411795140,2.43
1630411795156,2.87
1630411795171,3.32
1630411795187,3.6
1630411795203,3.71
1630411795218,3.67
1630411795234,3.51
1630411795250,3.25
1630411795265,2.84
1630411795281,2.19
1630411795296,1.23
1630411795312,0.03
1630411795328,-1.34
1630411795343,-2.71
1630411795359,-3.92
1630411795375,-4.9
1630411795390,-5.56
1630411795406,-5.89
1630411795421,-5.89
1630411795437,-5.58
1630411795453,-5.04
1630411795468,-4.45
1630411795484,-3.98
1630411795500,-3.82
1630411795515,-4.08
1630411795531,-4.69
1630411795546,-5.5
1630411795562,-6.32
1630411795578,-6.9
1630411795593,-7.05
1630411795609,-6.64
1630411795625,-5.67
1630411795640,-4.33
1630411795656,-2.85
1630411795671,-1.5
1630411795687,-0.41
1630411795703,0.39
1630411795718,1.1
1630411795734,1.92
1630411795750,2.94
1630411795765,4.21
1630411795781,5.67
1630411795796,7.17
1630411795812,8.67
1630411795828,10.05
1630411795843,11.23
1630411795859,12.12
1630411795875,12.65
1630411795890,12.8
1630411795906,12.65
1630411795921,12.32
1630411795937,11.89
1630411795953,11.42
1630411795968,10.9
1630411795984,10.33
1630411796000,9.68
1630411796015,8.93
1630411796031,8.03
1630411796046,6.98
1630411796062,5.78
1630411796078,4.46
1630411796093,3.16
1630411796109,1.96
1630411796125,0.95
1630411796140,0.14
1630411796156,-0.55
1630411796171,-1.23
1630411796187,-1.95
1630411796203,-2.72
1630411796218,-3.47
1630411796234,-4.08
1630411796250,-4.5
1630411796265,-4.7
1630411796281,-4.72
1630411796296,-4.74
1630411796312,-4.9
1630411796328,-5.34
1630411796343,-6.14
1630411796359,-7.21
1630411796375,-8.39
1630411796390,-9.4
1630411796406,-10.03
1630411796421,-10.13
1630411796437,-9.66
1630411796453,-8.73
1630411796468,-7.55
1630411796484,-6.29
1630411796500,-5.09
1630411796515,-4.02
1630411796531,-3.06
1630411796546,-2.21
1630411796562,-1.45
1630411796578,-0.72
1630411796593,0.04
1630411796609,0.87
1630411796625,1.82
1630411796640,2.87
1630411796656,3.94
1630411796671,4.9
1630411796687,5.66
1630411796703,6.15
1630411796718,6.46
1630411796734,6.64
1630411796750,6.74
1630411796765,6.85
1630411796781,7.02
1630411796796,7.31
1630411796812,7.78
1630411796828,8.39
1630411796843,8.97
1630411796859,9.27
1630411796875,8.97
1630411796890,7.85
1630411796906,5.88
1630411796921,3.27
1630411796937,0.37
1630411796953,-2.37
1630411796968,-4.72
1630411796984,-6.63
1630411797000,-8.22
1630411797015,-9.86
1630411797031,-11.85
1630411797046,-14.36
1630411797062,-17.3
1630411797078,-20.34
1630411797093,-23.02
1630411797109,-25.13
1630411797125,-26.74
1630411797140,-28.19
1630411797156,-29.98
1630411797171,-32.39
1630411797187,-35.29
1630411797203,-38.25
1630411797218,-40.79
1630411797234,-42.72
1630411797250,-44.36
1630411797265,-46.31
1630411797281,-49.09
1630411797296,-52.77
1630411797312,-56.83
1630411797328,-60.45
1630411797343,-62.87
1630411797359,-63.65
1630411797375,-62.68
1630411797390,-60.01
1630411797406,-55.42
1630411797421,-48.4
1630411797437,-38.37
1630411797453,-25.07
1630411797468,-9.0
1630411797484,8.72
1630411797500,26.88
1630411797515,44.71
1630411797531,62.22
1630411797546,79.82
1630411797562,97.79
1630411797578,115.72
1630411797593,132.45
1630411797609,146.54
1630411797625,157.08
1630411797640,164.26
1630411797656,169.45
1630411797671,174.46
1630411797687,180.53
1630411797703,187.56
1630411797718,193.92
1630411797734,197.14
1630411797750,194.98
1630411797765,186.7
1630411797781,173.41
1630411797796,157.95
1630411797812,143.78
1630411797828,133.81
1630411797843,129.25
1630411797859,129.38
1630411797875,131.95
1630411797890,134.05
1630411797906,133.24
1630411797921,128.03
1630411797937,117.99
1630411797953,103.18
1630411797968,83.53
1630411797984,58.57
1630411798000,27.54
1630411798015,-10.01
1630411798031,-53.57
1630411798046,-101.14
1630411798062,-149.46
1630411798078,-194.43
1630411798093,-232.03
1630411798109,-259.11
1630411798125,-273.77
1630411798140,-275.47
1630411798156,-264.91
1630411798171,-244.08
1630411798187,-216.07
1630411798203,-184.77
1630411798218,-154.2
1630411798234,-127.66
1630411798250,-107.22
1630411798265,-93.47
1630411798281,-86.0
1630411798296,-83.78
1630411798312,-85.76
1630411798328,-90.9
1630411798343,-98.04
1630411798359,-105.83
1630411798375,-112.85
1630411798390,-118.13
1630411798406,-121.37
1630411798421,-123.1
1630411798437,-124.14
1630411798453,-125.12
1630411798468,-126.01
1630411798484,-126.42
1630411798500,-126.22
1630411798515,-126.19
1630411798531,-128.28
1630411798546,-134.61
1630411798562,-146.16
1630411798578,-161.25
1630411798593,-175.55
1630411798609,-183.32
1630411798625,-179.92
1630411798640,-163.65
1630411798656,-135.83
1630411798671,-99.55
1630411798687,-57.69
1630411798703,-11.91
1630411798718,36.82
1630411798734,86.76
1630411798750,134.56
1630411798765,175.78
1630411798781,206.57
1630411798796,225.59
1630411798812,234.31
1630411798828,235.94
1630411798843,233.69
1630411798859,229.91
1630411798875,226.32
1630411798890,224.85
1630411798906,227.81
1630411798921,236.75
1630411798937,250.74
1630411798953,265.59
1630411798968,275.0
1630411798984,273.1
1630411799000,257.04
1630411799015,228.12
1630411799031,190.82
1630411799046,150.58
1630411799062,111.7
1630411799078,76.64
1630411799093,46.57
1630411799109,22.57
1630411799125,6.27
1630411799140,-0.74
1630411799156,2.04
1630411799171,13.04
1630411799187,28.54
1630411799203,43.73
1630411799218,54.3
1630411799234,57.65
1630411799250,53.53
1630411799265,43.58
1630411799281,30.24
1630411799296,15.63
1630411799312,0.71
1630411799328,-14.61
1630411799343,-31.11
1630411799359,-49.35
1630411799375,-69.22
1630411799390,-89.69
1630411799406,-109.03
1630411799421,-125.39
1630411799437,-137.38
1630411799453,-144.5
1630411799468,-147.18
1630411799484,-146.53
1630411799500,-143.77
1630411799515,-139.8
1630411799531,-135.0
1630411799546,-129.34
1630411799562,-122.62
1630411799578,-114.83
1630411799593,-106.23
1630411799609,-97.2
1630411799625,-88.05
1630411799640,-78.81
1630411799656,-69.21
1630411799671,-58.93
1630411799687,-47.89
1630411799703,-36.42
1630411799718,-25.26
1630411799734,-15.33
1630411799750,-7.4
1630411799765,-1.86
1630411799781,1.4
1630411799796,2.86
1630411799812,3.17
1630411799828,3.0
1630411799843,2.8
1630411799859,2.92
1630411799875,3.55
1630411799890,4.63
1630411799906,6.03
1630411799921,7.56
1630411799937,8.91
1630411799953,9.87
1630411799968,10.18
1630411799984,9.62
1630411800000,8.03
1630411800015,5.38
1630411800031,1.8
1630411800046,-2.42
1630411800062,-6.81
1630411800078,-10.88
1630411800093,-14.16
1630411800109,-16.38
1630411800125,-17.43
1630411800140,-17.43
1630411800156,-16.64
1630411800171,-15.44
1630411800187,-14.24
1630411800203,-13.49
1630411800218,-13.51
1630411800234,-14.4
1630411800250,-16.03
1630411800265,-18.0
1630411800281,-19.77
1630411800296,-20.77
1630411800312,-20.6
1630411800328,-19.11
1630411800343,-16.44
1630411800359,-12.96
1630411800375,-9.1
1630411800390,-5.32
1630411800406,-1.98
1630411800421,0.68
1630411800437,2.59
1630411800453,3.84
1630411800468,4.62
1630411800484,5.18
1630411800500,5.68
1630411800515,6.25
1630411800531,6.89
1630411800546,7.54
1630411800562,8.16
1630411800578,8.72
1630411800593,9.3
1630411800609,9.94
1630411800625,10.65
1630411800640,11.39
1630411800656,12.06
1630411800671,12.51
1630411800687,12.68
1630411800703,12.48
1630411800718,11.94
1630411800734,11.08
1630411800750,9.92
1630411800765,8.52
1630411800781,6.95
1630411800796,5.29
1630411800812,3.68
1630411800828,2.22
1630411800843,0.99
1630411800859,0.04
1630411800875,-0.66
1630411800890,-1.21
1630411800906,-1.66
1630411800921,-2.11
1630411800937,-2.66
1630411800953,-3.42
1630411800968,-4.45
1630411800984,-5.74
1630411801000,-7.23
1630411801015,-8.73
1630411801031,-10.11
1630411801046,-11.2
1630411801062,-11.9
1630411801078,-12.08
1630411801093,-11.62
1630411801109,-10.38
1630411801125,-8.26
1630411801140,-5.34
1630411801156,-1.87
1630411801171,1.7
1630411801187,4.9
1630411801203,7.34
1630411801218,8.85
1630411801234,9.39
1630411801250,9.12
1630411801265,8.31
1630411801281,7.25
1630411801296,6.21
1630411801312,5.41
1630411801328,5.0
1630411801343,5.02
1630411801359,5.44
1630411801375,6.13
1630411801390,6.89
1630411801406,7.57
1630411801421,8.01
1630411801437,8.08
1630411801453,7.75
1630411801468,7.08
1630411801484,6.25
1630411801500,5.46
1630411801515,4.93
1630411801531,4.8
1630411801546,5.05
1630411801562,5.54
1630411801578,6.08
1630411801593,6.49
1630411801609,6.62
1630411801625,6.41
1630411801640,5.85
1630411801656,4.9
1630411801671,3.63
1630411801687,2.1
1630411801703,0.45
1630411801718,-1.14
1630411801734,-2.46
1630411801750,-3.43
1630411801765,-3.98
1630411801781,-4.1
1630411801796,-3.87
1630411801812,-3.38
1630411801828,-2.74
1630411801843,-1.96
1630411801859,-0.97
1630411801875,0.31
1630411801890,1.93
1630411801906,3.86
1630411801921,5.97
1630411801937,7.95
1630411801953,9.54
1630411801968,10.57
1630411801984,10.99
1630411802000,11.01
1630411802015,10.85
1630411802031,10.65
1630411802046,10.42
1630411802062,10.03
1630411802078,9.29
1630411802093,8.16
1630411802109,6.71
1630411802125,5.1
1630411802140,3.6
1630411802156,2.28
1630411802171,1.2
1630411802187,0.35
1630411802203,-0.28
1630411802218,-0.71
1630411802234,-0.94
1630411802250,-1.03
1630411802265,-1.09
1630411802281,-1.14
1630411802296,-1.2
1630411802312,-1.25
1630411802328,-1.24
1630411802343,-1.23
1630411802359,-1.31
1630411802375,-1.65
1630411802390,-2.26
1630411802406,-3.12
1630411802421,-4.06
1630411802437,-4.96
1630411802453,-5.78
1630411802468,-6.47
1630411802484,-7.12
1630411802500,-7.72
1630411802515,-8.32
1630411802531,-8.93
1630411802546,-9.65
1630411802562,-10.49
1630411802578,-11.45
1630411802593,-12.31
1630411802609,-12.75
1630411802625,-12.44
1630411802640,-11.12
1630411802656,-8.87
1630411802671,-6.06
1630411802687,-3.2
1630411802703,-0.79
1630411802718,0.88
1630411802734,1.75
1630411802750,2.03
1630411802765,1.92
1630411802781,1.63
1630411802796,1.31
1630411802812,1.01
1630411802828,0.76
1630411802843,0.68
1630411802859,0.88
1630411802875,1.45
1630411802890,2.4
1630411802906,3.63
1630411802921,4.97
1630411802937,6.27
1630411802953,7.38
1630411802968,8.21
1630411802984,8.69
1630411803000,8.84
1630411803015,8.67
1630411803031,8.27
1630411803046,7.72
1630411803062,7.1
1630411803078,6.45
1630411803093,5.76
1630411803109,5.04
1630411803125,4.27
1630411803140,3.5
1630411803156,2.72
1630411803171,1.94
1630411803187,1.1
1630411803203,0.23
1630411803218,-0.66
1630411803234,-1.53
1630411803250,-2.28
1630411803265,-2.96
1630411803281,-3.62
1630411803296,-4.37
1630411803312,-5.26
1630411803328,-6.26
1630411803343,-7.22
1630411803359,-7.93
1630411803375,-8.19
1630411803390,-7.84
1630411803406,-6.84
1630411803421,-5.27
1630411803437,-3.31
1630411803453,-1.18
1630411803468,0.85
1630411803484,2.56
1630411803500,3.82
1630411803515,4.64
1630411803531,5.15
1630411803546,5.48
1630411803562,5.76
1630411803578,6.01
1630411803593,6.18
1630411803609,6.11
1630411803625,5.69
1630411803640,4.93
1630411803656,3.9
1630411803671,2.86
1630411803687,2.06
1630411803703,1.74
1630411803718,2.07
1630411803734,3.04
1630411803750,4.5
1630411803765,6.16
1630411803781,7.7
1630411803796,8.84
1630411803812,9.43
1630411803828,9.4
1630411803843,8.85
1630411803859,8.02
1630411803875,7.09
1630411803890,6.24
1630411803906,5.49
1630411803921,4.77
1630411803937,3.94
1630411803953,2.82
1630411803968,1.33
1630411803984,-0.51
1630411804000,-2.59
1630411804015,-4.7
1630411804031,-6.68
1630411804046,-8.39
1630411804062,-9.78
1630411804078,-10.91
1630411804093,-11.85
1630411804109,-12.7
1630411804125,-13.52
1630411804140,-14.31
1630411804156,-14.9
1630411804171,-15.03
1630411804187,-14.4
1630411804203,-12.82
1630411804218,-10.29
1630411804234,-7.06
1630411804250,-3.56
1630411804265,-0.33
1630411804281,2.22
1630411804296,3.94
1630411804312,4.92
1630411804328,5.46
1630411804343,5.9
1630411804359,6.44
1630411804375,7.14
1630411804390,7.95
1630411804406,8.69
1630411804421,9.29
1630411804437,9.69
1630411804453,9.91
1630411804468,9.99
1630411804484,9.93
1630411804500,9.67
1630411804515,9.19
1630411804531,8.55
1630411804546,7.78
1630411804562,7.03
1630411804578,6.35
1630411804593,5.76
1630411804609,5.22
1630411804625,4.71
1630411804640,4.21
1630411804656,3.74
1630411804671,3.33
1630411804687,2.95
1630411804703,2.62
1630411804718,2.25
1630411804734,1.81
1630411804750,1.25
1630411804765,0.56
1630411804781,-0.3
1630411804796,-1.3
1630411804812,-2.39
1630411804828,-3.51
1630411804843,-4.51
1630411804859,-5.32
1630411804875,-5.91
1630411804890,-6.26
1630411804906,-6.34
1630411804921,-6.17
1630411804937,-5.62
1630411804953,-4.59
1630411804968,-3.09
1630411804984,-1.11
1630411805000,1.13
1630411805015,3.38
1630411805031,5.43
1630411805046,7.14
1630411805062,8.36
1630411805078,9.07
1630411805093,9.28
1630411805109,9.0
1630411805125,8.35
1630411805140,7.4
1630411805156,6.31
1630411805171,5.24
1630411805187,4.33
1630411805203,3.67
1630411805218,3.33
1630411805234,3.32
1630411805250,3.58
1630411805265,4.08
1630411805281,4.71
1630411805296,5.35
1630411805312,5.92
1630411805328,6.32
1630411805343,6.49
1630411805359,6.37
1630411805375,5.91
1630411805390,5.03
1630411805406,3.82
1630411805421,2.37
1630411805437,0.85
1630411805453,-0.53
1630411805468,-1.7
1630411805484,-2.66
1630411805500,-3.49
1630411805515,-4.29
1630411805531,-5.23
1630411805546,-6.29
1630411805562,-7.47
1630411805578,-8.7
1630411805593,-9.85
1630411805609,-10.86
1630411805625,-11.61
1630411805640,-11.97
1630411805656,-11.79
1630411805671,-11.0
1630411805687,-9.58
1630411805703,-7.69
1630411805718,-5.57
1630411805734,-3.51
1630411805750,-1.79
1630411805765,-0.54
1630411805781,0.25
1630411805796,0.75
1630411805812,1.2
1630411805828,1.81
1630411805843,2.62
1630411805859,3.54
1630411805875,4.42
1630411805890,5.08
1630411805906,5.47
1630411805921,5.66
1630411805937,5.8
1630411805953,6.0
1630411805968,6.32
1630411805984,6.68
1630411806000,7.05
1630411806015,7.4
1630411806031,7.75
1630411806046,8.14
1630411806062,8.62
1630411806078,9.06
1630411806093,9.29
1630411806109,9.09
1630411806125,8.3
1630411806140,6.89
1630411806156,4.99
1630411806171,2.84
1630411806187,0.71
1630411806203,-1.15
1630411806218,-2.67
1630411806234,-3.83
1630411806250,-4.73
1630411806265,-5.45
1630411806281,-6.08
1630411806296,-6.61
1630411806312,-7.04
1630411806328,-7.37
1630411806343,-7.69
1630411806359,-8.07
1630411806375,-8.47
1630411806390,-8.76
1630411806406,-8.67
1630411806421,-7.93
1630411806437,-6.37
1630411806453,-4.07
1630411806468,-1.34
1630411806484,1.37
1630411806500,3.63
1630411806515,5.24
1630411806531,6.27
1630411806546,6.87
1630411806562,7.29
1630411806578,7.69
1630411806593,8.08
1630411806609,8.37
1630411806625,8.48
1630411806640,8.36
1630411806656,7.97
1630411806671,7.37
1630411806687,6.47
1630411806703,5.24
1630411806718,3.69
1630411806734,1.91
1630411806750,0.12
1630411806765,-1.41
1630411806781,-2.47
1630411806796,-2.97
1630411806812,-2.86
1630411806828,-2.26
1630411806843,-1.28
1630411806859,-0.11
1630411806875,1.03
1630411806890,1.91
1630411806906,2.3
1630411806921,2.17
1630411806937,1.6
1630411806953,0.9
1630411806968,0.33
1630411806984,0.06
1630411807000,-0.02
1630411807015,-0.19
1630411807031,-0.76
1630411807046,-1.98
1630411807062,-3.9
1630411807078,-6.46
1630411807093,-9.45
1630411807109,-12.6
1630411807125,-15.53
1630411807140,-17.87
1630411807156,-19.32
1630411807171,-19.61
1630411807187,-18.67
1630411807203,-16.67
1630411807218,-13.9
1630411807234,-10.78
1630411807250,-7.71
1630411807265,-4.91
1630411807281,-2.52
1630411807296,-0.48
1630411807312,1.37
1630411807328,3.22
1630411807343,5.18
1630411807359,7.3
1630411807375,9.51
1630411807390,11.62
1630411807406,13.46
1630411807421,14.81
1630411807437,15.47
1630411807453,15.27
1630411807468,14.14
1630411807484,12.19
1630411807500,9.64
1630411807515,6.84
1630411807531,4.15
1630411807546,1.83
1630411807562,0.06
1630411807578,-1.1
1630411807593,-1.73
1630411807609,-1.89
1630411807625,-1.65
1630411807640,-1.04
1630411807656,-0.17
1630411807671,0.93
1630411807687,2.24
1630411807703,3.76
1630411807718,5.47
1630411807734,7.31
1630411807750,9.14
1630411807765,10.72
1630411807781,11.91
1630411807796,12.46
1630411807812,12.34
1630411807828,11.57
1630411807843,10.2
1630411807859,8.39
1630411807875,6.37
1630411807890,4.39
1630411807906,2.74
1630411807921,1.73
1630411807937,1.56
1630411807953,2.3
1630411807968,3.84
1630411807984,5.87
1630411808000,8.02
1630411808015,9.88
1630411808031,11.16
1630411808046,11.66
1630411808062,11.38
1630411808078,10.45
1630411808093,9.02
1630411808109,7.36
1630411808125,5.64
1630411808140,4.13
1630411808156,2.96
1630411808171,2.23
1630411808187,1.94
1630411808203,1.91
1630411808218,1.94
1630411808234,1.76
1630411808250,1.19
1630411808265,0.22
1630411808281,-0.92
1630411808296,-1.96
1630411808312,-2.61
1630411808328,-2.72
1630411808343,-2.46
1630411808359,-2.08
1630411808375,-1.88
1630411808390,-1.97
1630411808406,-2.39
1630411808421,-2.99
1630411808437,-3.62
1630411808453,-4.21
1630411808468,-4.74
1630411808484,-5.26
1630411808500,-5.84
1630411808515,-6.48
1630411808531,-7.17
1630411808546,-7.86
1630411808562,-8.52
1630411808578,-9.12
1630411808593,-9.71
1630411808609,-10.23
1630411808625,-10.65
1630411808640,-10.81
1630411808656,-10.48
1630411808671,-9.43
1630411808687,-7.52
1630411808703,-4.85
1630411808718,-1.66
1630411808734,1.62
1630411808750,4.59
1630411808765,6.89
1630411808781,8.41
1630411808796,9.18
1630411808812,9.35
1630411808828,9.24
1630411808843,9.05
1630411808859,8.95
1630411808875,8.91
1630411808890,8.83
1630411808906,8.58
1630411808921,8.15
1630411808937,7.67
1630411808953,7.31
1630411808968,7.19
1630411808984,7.28
1630411809000,7.4
1630411809015,7.32
1630411809031,6.93
1630411809046,6.28
1630411809062,5.51
1630411809078,4.77
1630411809093,4.06
1630411809109,3.35
1630411809125,2.54
1630411809140,1.56
1630411809156,0.45
1630411809171,-0.7
1630411809187,-1.82
1630411809203,-2.89
1630411809218,-3.9
1630411809234,-4.8
1630411809250,-5.5
1630411809265,-5.86
1630411809281,-5.83
1630411809296,-5.51
1630411809312,-5.12
1630411809328,-4.92
1630411809343,-5.15
1630411809359,-5.92
1630411809375,-7.1
1630411809390,-8.36
1630411809406,-9.26
1630411809421,-9.35
1630411809437,-8.37
1630411809453,-6.3
1630411809468,-3.44
1630411809484,-0.28
1630411809500,2.6
1630411809515,4.82
1630411809531,6.17
1630411809546,6.69
1630411809562,6.53
1630411809578,5.94
1630411809593,5.12
1630411809609,4.21
1630411809625,3.36
1630411809640,2.63
1630411809656,2.12
1630411809671,1.85
1630411809687,1.75
1630411809703,1.76
1630411809718,1.82
1630411809734,1.88
1630411809750,1.9
1630411809765,1.9
1630411809781,1.93
1630411809796,2.07
1630411809812,2.31
1630411809828,2.57
1630411809843,2.76
1630411809859,2.77
1630411809875,2.57
1630411809890,2.18
1630411809906,1.74
1630411809921,1.36
1630411809937,1.14
1630411809953,1.13
1630411809968,1.26
1630411809984,1.42
1630411810000,1.38
1630411810015,1.02
1630411810031,0.24
1630411810046,-0.8
1630411810062,-1.9
1630411810078,-2.78
1630411810093,-3.22
1630411810109,-3.2
1630411810125,-2.92
1630411810140,-2.67
1630411810156,-2.72
1630411810171,-3.22
1630411810187,-4.07
1630411810203,-5.06
1630411810218,-5.95
1630411810234,-6.5
1630411810250,-6.59
1630411810265,-6.18
1630411810281,-5.32
1630411810296,-4.1
1630411810312,-2.7
1630411810328,-1.31
1630411810343,-0.17
1630411810359,0.51
1630411810375,0.68
1630411810390,0.38
1630411810406,-0.14
1630411810421,-0.68
1630411810437,-1.01
1630411810453,-1.03
1630411810468,-0.83
1630411810484,-0.54
1630411810500,-0.29
1630411810515,-0.03
1630411810531,0.32
1630411810546,1.02
1630411810562,2.16
1630411810578,3.69
1630411810593,5.34
1630411810609,6.76
1630411810625,7.62
1630411810640,7.84
1630411810656,7.51
1630411810671,6.86
1630411810687,6.16
1630411810703,5.53
1630411810718,5.02
1630411810734,4.53
1630411810750,3.94
1630411810765,3.15
1630411810781,2.21
1630411810796,1.15
1630411810812,0.06
1630411810828,-1.01
1630411810843,-2.14
1630411810859,-3.34
1630411810875,-4.54
1630411810890,-5.72
1630411810906,-6.64
1630411810921,-7.19
1630411810937,-7.41
1630411810953,-7.47
1630411810968,-7.63
1630411810984,-8.11
1630411811000,-8.86
1630411811015,-9.62
1630411811031,-10.02
1630411811046,-9.69
1630411811062,-8.51
1630411811078,-6.61
1630411811093,-4.26
1630411811109,-1.78
1630411811125,0.57
1630411811140,2.65
1630411811156,4.36
1630411811171,5.63
1630411811187,6.36
1630411811203,6.5
1630411811218,6.09
1630411811234,5.23
1630411811250,4.12
1630411811265,2.87
1630411811281,1.6
1630411811296,0.38
1630411811312,-0.72
1630411811328,-1.57
1630411811343,-2.0
1630411811359,-1.85
1630411811375,-1.04
1630411811390,0.3
1630411811406,1.88
1630411811421,3.3
1630411811437,4.19
1630411811453,4.43
1630411811468,4.11
1630411811484,3.47
1630411811500,2.76
1630411811515,2.11
1630411811531,1.48
1630411811546,0.73
1630411811562,-0.27
1630411811578,-1.55
1630411811593,-3.0
1630411811609,-4.5
1630411811625,-5.93
1630411811640,-7.19
1630411811656,-8.23
1630411811671,-8.85
1630411811687,-8.95
1630411811703,-8.5
1630411811718,-7.59
1630411811734,-6.5
1630411811750,-5.58
1630411811765,-5.08
1630411811781,-5.07
1630411811796,-5.36
1630411811812,-5.64
1630411811828,-5.56
1630411811843,-4.92
1630411811859,-3.64
1630411811875,-1.85
1630411811890,0.2
1630411811906,2.23
1630411811921,3.96
1630411811937,5.2
1630411811953,5.88
1630411811968,5.99
1630411811984,5.65
1630411812000,4.99
1630411812015,4.14
1630411812031,3.27
1630411812046,2.56
1630411812062,2.18
1630411812078,2.2
1630411812093,2.57
1630411812109,3.11
1630411812125,3.56
1630411812140,3.74
1630411812156,3.61
1630411812171,3.22
1630411812187,2.74
1630411812203,2.24
1630411812218,1.74
1630411812234,1.17
1630411812250,0.45
1630411812265,-0.36
1630411812281,-1.15
1630411812296,-1.71
1630411812312,-1.88
1630411812328,-1.69
1630411812343,-1.35
1630411812359,-1.17
1630411812375,-1.39
1630411812390,-2.07
1630411812406,-3.01
1630411812421,-3.91
1630411812437,-4.47
1630411812453,-4.59
1630411812468,-4.41
1630411812484,-4.21
1630411812500,-4.23
1630411812515,-4.57
1630411812531,-5.14
1630411812546,-5.77
1630411812562,-6.32
1630411812578,-6.71
1630411812593,-6.9
1630411812609,-6.8
1630411812625,-6.28
1630411812640,-5.2
1630411812656,-3.58
1630411812671,-1.54
1630411812687,0.58
1630411812703,2.42
1630411812718,3.65
1630411812734,4.18
1630411812750,4.1
1630411812765,3.66
1630411812781,3.2
1630411812796,2.93
1630411812812,3.0
1630411812828,3.38
1630411812843,3.95
1630411812859,4.53
1630411812875,4.99
1630411812890,5.3
1630411812906,5.43
1630411812921,5.45
1630411812937,5.3
1630411812953,5.03
1630411812968,4.56
1630411812984,3.87
1630411813000,3.01
1630411813015,2.09
1630411813031,1.27
1630411813046,0.72
1630411813062,0.49
1630411813078,0.53
1630411813093,0.66
1630411813109,0.73
1630411813125,0.57
1630411813140,0.18
1630411813156,-0.4
1630411813171,-1.11
1630411813187,-1.83
1630411813203,-2.52
1630411813218,-3.14
1630411813234,-3.65
1630411813250,-3.97
1630411813265,-4.1
1630411813281,-4.09
1630411813296,-4.13
1630411813312,-4.49
1630411813328,-5.33
1630411813343,-6.65
1630411813359,-8.23
1630411813375,-9.71
1630411813390,-10.71
1630411813406,-10.99
1630411813421,-10.4
1630411813437,-9.08
1630411813453,-7.26
1630411813468,-5.23
1630411813484,-3.28
1630411813500,-1.68
1630411813515,-0.54
1630411813531,0.18
1630411813546,0.62
1630411813562,1.05
1630411813578,1.67
1630411813593,2.53
1630411813609,3.61
1630411813625,4.71
1630411813640,5.71
1630411813656,6.53
1630411813671,7.12
1630411813687,7.49
1630411813703,7.68
1630411813718,7.72
1630411813734,7.52
1630411813750,7.08
1630411813765,6.35
1630411813781,5.29
1630411813796,3.9
1630411813812,2.18
1630411813828,0.25
1630411813843,-1.64
1630411813859,-3.27
1630411813875,-4.36
1630411813890,-4.83
1630411813906,-4.76
1630411813921,-4.37
1630411813937,-3.96
1630411813953,-3.73
1630411813968,-3.77
1630411813984,-4.03
1630411814000,-4.47
1630411814015,-5.04
1630411814031,-5.77
1630411814046,-6.72
1630411814062,-7.91
1630411814078,-9.21
1630411814093,-10.4
1630411814109,-11.15
1630411814125,-11.2
1630411814140,-10.48
1630411814156,-9.02
1630411814171,-7.06
1630411814187,-4.9
1630411814203,-2.87
1630411814218,-1.08
1630411814234,0.41
1630411814250,1.64
1630411814265,2.66
1630411814281,3.42
1630411814296,3.91
1630411814312,4.1
1630411814328,4.01
1630411814343,3.71
1630411814359,3.27
1630411814375,2.71
1630411814390,2.01
1630411814406,1.16
1630411814421,0.13
1630411814437,-0.91
1630411814453,-1.78
1630411814468,-2.29
1630411814484,-2.3
1630411814500,-1.94
1630411814515,-1.42
1630411814531,-0.96
1630411814546,-0.77
1630411814562,-0.9
1630411814578,-1.36
1630411814593,-2.11
1630411814609,-3.12
1630411814625,-4.34
1630411814640,-5.7
1630411814656,-7.02
1630411814671,-8.05
1630411814687,-8.61
1630411814703,-8.68
1630411814718,-8.42
1630411814734,-8.12
1630411814750,-8.04
1630411814765,-8.3
1630411814781,-8.9
1630411814796,-9.7
1630411814812,-10.48
1630411814828,-11.05
1630411814843,-11.28
1630411814859,-10.98
1630411814875,-10.09
1630411814890,-8.61
1630411814906,-6.61
1630411814921,-4.34
1630411814937,-2.05
1630411814953,0.05
1630411814968,1.9
1630411814984,3.5
1630411815000,5.0
1630411815015,6.48
1630411815031,7.96
1630411815046,9.41
1630411815062,10.75
1630411815078,11.88
1630411815093,12.71
1630411815109,13.22
1630411815125,13.42
1630411815140,13.36
1630411815156,13.08
1630411815171,12.64
1630411815187,12.11
1630411815203,11.5
1630411815218,10.86
1630411815234,10.23
1630411815250,9.66
1630411815265,9.22
1630411815281,8.91
1630411815296,8.68
1630411815312,8.42
1630411815328,8.06
1630411815343,7.45
1630411815359,6.48
1630411815375,5.07
1630411815390,3.27
1630411815406,1.19
1630411815421,-0.95
1630411815437,-2.93
1630411815453,-4.61
1630411815468,-5.88
1630411815484,-6.79
1630411815500,-7.4
1630411815515,-7.78
1630411815531,-8.05
1630411815546,-8.34
1630411815562,-8.76
1630411815578,-9.33
1630411815593,-9.89
1630411815609,-10.17
1630411815625,-9.87
1630411815640,-8.77
1630411815656,-6.9
1630411815671,-4.56
1630411815687,-2.14
1630411815703,-0.07
1630411815718,1.39
1630411815734,2.25
1630411815750,2.57
1630411815765,2.58
1630411815781,2.44
1630411815796,2.35
1630411815812,2.43
1630411815828,2.75
1630411815843,3.3
1630411815859,3.91
1630411815875,4.4
1630411815890,4.52
1630411815906,4.2
1630411815921,3.45
1630411815937,2.48
1630411815953,1.56
1630411815968,0.9
1630411815984,0.64
1630411816000,0.7
1630411816015,0.95
1630411816031,1.16
1630411816046,1.19
1630411816062,1.03
1630411816078,0.72
1630411816093,0.33
1630411816109,-0.12
1630411816125,-0.69
1630411816140,-1.47
1630411816156,-2.44
1630411816171,-3.54
1630411816187,-4.53
1630411816203,-5.2
1630411816218,-5.42
1630411816234,-5.28
1630411816250,-5.01
1630411816265,-4.9
1630411816281,-5.15
1630411816296,-5.75
1630411816312,-6.57
1630411816328,-7.28
1630411816343,-7.63
1630411816359,-7.44
1630411816375,-6.68
1630411816390,-5.46
1630411816406,-3.97
1630411816421,-2.43
1630411816437,-1.04
1630411816453,0.1
1630411816468,0.93
1630411816484,1.4
1630411816500,1.52
1630411816515,1.31
1630411816531,0.91
1630411816546,0.49
1630411816562,0.26
1630411816578,0.35
1630411816593,0.76
1630411816609,1.41
1630411816625,2.07
1630411816640,2.6
1630411816656,2.92
1630411816671,3.06
1630411816687,3.12
1630411816703,3.18
1630411816718,3.29
1630411816734,3.36
1630411816750,3.38
1630411816765,3.31
1630411816781,3.12
1630411816796,2.84
1630411816812,2.48
1630411816828,2.06
1630411816843,1.59
1630411816859,1.04
1630411816875,0.36
1630411816890,-0.48
1630411816906,-1.49
1630411816921,-2.69
1630411816937,-3.95
1630411816953,-5.19
1630411816968,-6.34
1630411816984,-7.43
1630411817000,-8.52
1630411817015,-9.68
1630411817031,-10.95
1630411817046,-12.17
1630411817062,-13.17
1630411817078,-13.71
1630411817093,-13.64
1630411817109,-12.85
1630411817125,-11.36
1630411817140,-9.28
1630411817156,-6.81
1630411817171,-4.24
1630411817187,-1.78
1630411817203,0.35
1630411817218,2.04
1630411817234,3.28
1630411817250,4.17
1630411817265,4.82
1630411817281,5.37
1630411817296,5.84
1630411817312,6.17
1630411817328,6.36
1630411817343,6.43
1630411817359,6.42
1630411817375,6.45
1630411817390,6.6
1630411817406,6.92
1630411817421,7.38
1630411817437,7.86
1630411817453,8.22
1630411817468,8.39
1630411817484,8.35
1630411817500,8.2
1630411817515,8.03
1630411817531,7.9
1630411817546,7.79
1630411817562,7.57
1630411817578,7.03
1630411817593,6.05
1630411817609,4.63
1630411817625,2.87
1630411817640,0.97
1630411817656,-0.83
1630411817671,-2.4
1630411817687,-3.7
1630411817703,-4.73
1630411817718,-5.57
1630411817734,-6.28
1630411817750,-6.91
1630411817765,-7.56
1630411817781,-8.23
1630411817796,-8.82
1630411817812,-9.2
1630411817828,-9.14
1630411817843,-8.44
1630411817859,-7.07
1630411817875,-5.07
1630411817890,-2.69
1630411817906,-0.21
1630411817921,2.07
1630411817937,3.96
1630411817953,5.36
1630411817968,6.27
1630411817984,6.78
1630411818000,7.0
1630411818015,7.03
1630411818031,6.92
1630411818046,6.73
1630411818062,6.47
1630411818078,6.2
1630411818093,5.98
1630411818109,5.89
1630411818125,5.97
1630411818140,6.22
1630411818156,6.57
1630411818171,6.97
1630411818187,7.36
1630411818203,7.74
1630411818218,8.09
1630411818234,8.34
1630411818250,8.38
1630411818265,8.11
1630411818281,7.46
1630411818296,6.46
1630411818312,5.23
1630411818328,3.9
1630411818343,2.59
1630411818359,1.31
1630411818375,0.11
1630411818390,-1.03
1630411818406,-2.01
1630411818421,-2.81
1630411818437,-3.4
1630411818453,-3.82
1630411818468,-4.18
1630411818484,-4.62
1630411818500,-5.18
1630411818515,-5.86
1630411818531,-6.58
1630411818546,-7.18
1630411818562,-7.61
1630411818578,-7.83
1630411818593,-7.77
1630411818609,-7.38
1630411818625,-6.6
1630411818640,-5.39
1630411818656,-3.82
1630411818671,-2.06
1630411818687,-0.34
1630411818703,1.09
1630411818718,2.09
1630411818734,2.73
1630411818750,3.15
1630411818765,3.58
1630411818781,4.16
1630411818796,4.91
1630411818812,5.75
1630411818828,6.55
1630411818843,7.13
1630411818859,7.38
1630411818875,7.31
1630411818890,7.01
1630411818906,6.64
1630411818921,6.33
1630411818937,6.09
1630411818953,5.88
1630411818968,5.61
1630411818984,5.19
1630411819000,4.66
1630411819015,4.15
1630411819031,3.76
1630411819046,3.59
1630411819062,3.63
1630411819078,3.76
1630411819093,3.86
1630411819109,3.8
1630411819125,3.53
1630411819140,3.06
1630411819156,2.43
1630411819171,1.66
1630411819187,0.8
1630411819203,-0.1
1630411819218,-0.98
1630411819234,-1.78
1630411819250,-2.47
1630411819265,-3.08
1630411819281,-3.67
1630411819296,-4.35
1630411819312,-5.15
1630411819328,-6.1
1630411819343,-7.09
1630411819359,-7.94
1630411819375,-8.44
1630411819390,-8.43
1630411819406,-7.78
1630411819421,-6.52
1630411819437,-4.8
1630411819453,-2.82
1630411819468,-0.85
1630411819484,0.86
1630411819500,2.19
1630411819515,3.09
1630411819531,3.61
1630411819546,3.86
1630411819562,3.94
1630411819578,3.95
1630411819593,3.93
1630411819609,3.96
1630411819625,4.04
1630411819640,4.13
1630411819656,4.16
1630411819671,4.04
1630411819687,3.7
1630411819703,3.1
1630411819718,2.31
1630411819734,1.4
1630411819750,0.4
1630411819765,-0.69
1630411819781,-1.96
1630411819796,-3.46
1630411819812,-5.14
1630411819828,-6.93
1630411819843,-8.77
1630411819859,-10.56
1630411819875,-12.23
1630411819890,-13.69
1630411819906,-14.88
1630411819921,-15.64
1630411819937,-15.96
1630411819953,-16.0
1630411819968,-16.11
1630411819984,-16.75
1630411820000,-18.21
1630411820015,-20.54
1630411820031,-23.44
1630411820046,-26.54
1630411820062,-29.44
1630411820078,-31.92
1630411820093,-33.95
1630411820109,-35.56
1630411820125,-36.71
1630411820140,-37.21
1630411820156,-36.78
1630411820171,-35.08
1630411820187,-32.0
1630411820203,-27.58
1630411820218,-22.16
1630411820234,-16.18
1630411820250,-10.18
1630411820265,-4.65
1630411820281,0.08
1630411820296,3.86
1630411820312,6.8
1630411820328,9.1
1630411820343,11.04
1630411820359,12.81
1630411820375,14.49
1630411820390,16.07
1630411820406,17.49
1630411820421,18.72
1630411820437,19.8
1630411820453,20.88
1630411820468,22.02
1630411820484,23.22
1630411820500,24.33
1630411820515,25.21
1630411820531,25.76
1630411820546,25.96
1630411820562,25.86
1630411820578,25.52
1630411820593,24.99
1630411820609,24.19
1630411820625,23.07
1630411820640,21.59
1630411820656,19.85
1630411820671,18.02
1630411820687,16.28
1630411820703,14.75
1630411820718,13.45
1630411820734,12.28
1630411820750,11.09
1630411820765,9.8
1630411820781,8.4
1630411820796,6.96
1630411820812,5.67
1630411820828,4.65
1630411820843,4.04
1630411820859,3.86
1630411820875,4.03
1630411820890,4.47
1630411820906,5.08
1630411820921,5.81
1630411820937,6.62
1630411820953,7.52
1630411820968,8.51
1630411820984,9.64
1630411821000,10.87
1630411821015,12.18
1630411821031,13.51
1630411821046,14.7
1630411821062,15.62
1630411821078,16.05
1630411821093,15.88
1630411821109,15.05
1630411821125,13.64
1630411821140,11.76
1630411821156,9.63
1630411821171,7.47
1630411821187,5.46
1630411821203,3.81
1630411821218,2.73
1630411821234,2.3
1630411821250,2.5
1630411821265,3.18
1630411821281,4.18
1630411821296,5.29
1630411821312,6.4
1630411821328,7.44
1630411821343,8.36
1630411821359,9.14
1630411821375,9.69
1630411821390,9.96
1630411821406,9.92
1630411821421,9.62
1630411821437,9.18
1630411821453,8.75
1630411821468,8.45
1630411821484,8.24
1630411821500,7.92
1630411821515,7.24
1630411821531,6.03
1630411821546,4.25
1630411821562,2.06
1630411821578,-0.26
1630411821593,-2.42
1630411821609,-4.2
1630411821625,-5.52
1630411821640,-6.49
1630411821656,-7.25
1630411821671,-7.91
1630411821687,-8.54
1630411821703,-9.16
1630411821718,-9.75
1630411821734,-10.28
1630411821750,-10.68
1630411821765,-10.85
1630411821781,-10.69
1630411821796,-10.09
1630411821812,-9.07
1630411821828,-7.71
1630411821843,-6.19
1630411821859,-4.74
1630411821875,-3.59
1630411821890,-2.85
1630411821906,-2.52
1630411821921,-2.57
1630411821937,-2.88
1630411821953,-3.37
1630411821968,-3.94
1630411821984,-4.45
1630411822000,-4.84
1630411822015,-5.09
1630411822031,-5.34
1630411822046,-5.77
1630411822062,-6.63
1630411822078,-8.06
1630411822093,-10.08
1630411822109,-12.46
1630411822125,-14.82
1630411822140,-16.75
1630411822156,-17.87
1630411822171,-18.01
1630411822187,-17.18
1630411822203,-15.56
1630411822218,-13.37
1630411822234,-10.87
1630411822250,-8.26
1630411822265,-5.7
1630411822281,-3.27
1630411822296,-0.94
1630411822312,1.32
1630411822328,3.56
1630411822343,5.74
1630411822359,7.72
1630411822375,9.28
1630411822390,10.15
1630411822406,10.22
1630411822421,9.52
1630411822437,8.28
1630411822453,6.84
1630411822468,5.56
1630411822484,4.69
1630411822500,4.33
1630411822515,4.41
1630411822531,4.79
1630411822546,5.38
1630411822562,6.1
1630411822578,6.9
1630411822593,7.72
1630411822609,8.45
1630411822625,9.01
1630411822640,9.26
1630411822656,9.14
1630411822671,8.71
1630411822687,8.04
1630411822703,7.26
1630411822718,6.47
1630411822734,5.71
1630411822750,4.95
1630411822765,4.24
1630411822781,3.57
1630411822796,2.99
1630411822812,2.57
1630411822828,2.31
1630411822843,2.17
1630411822859,2.06
1630411822875,1.88
1630411822890,1.49
1630411822906,0.87
1630411822921,0.04
1630411822937,-0.96
1630411822953,-2.01
1630411822968,-3.03
1630411822984,-3.94
1630411823000,-4.71
1630411823015,-5.33
1630411823031,-5.88
1630411823046,-6.44
1630411823062,-7.11
1630411823078,-7.9
1630411823093,-8.75
1630411823109,-9.57
1630411823125,-10.22
1630411823140,-10.62
1630411823156,-10.68
1630411823171,-10.38
1630411823187,-9.64
1630411823203,-8.46
1630411823218,-6.81
1630411823234,-4.72
1630411823250,-2.42
1630411823265,-0.21
1630411823281,1.55
1630411823296,2.62
1630411823312,2.97
1630411823328,2.8
1630411823343,2.48
1630411823359,2.3
1630411823375,2.47
1630411823390,2.94
1630411823406,3.5
1630411823421,3.94
1630411823437,4.13
1630411823453,4.1
1630411823468,3.9
1630411823484,3.62
1630411823500,3.22
1630411823515,2.62
1630411823531,1.81
1630411823546,0.84
1630411823562,-0.11
1630411823578,-0.85
1630411823593,-1.25
1630411823609,-1.33
1630411823625,-1.19
1630411823640,-1.06
1630411823656,-1.1
1630411823671,-1.32
1630411823687,-1.64
1630411823703,-1.95
1630411823718,-2.19
1630411823734,-2.38
1630411823750,-2.67
1630411823765,-3.07
1630411823781,-3.66
1630411823796,-4.39
1630411823812,-5.2
1630411823828,-5.98
1630411823843,-6.67
1630411823859,-7.25
1630411823875,-7.68
1630411823890,-7.9
1630411823906,-7.77
1630411823921,-7.2
1630411823937,-6.14
1630411823953,-4.66
1630411823968,-2.97
1630411823984,-1.31
1630411824000,0.08
1630411824015,1.02
1630411824031,1.5
1630411824046,1.61
1630411824062,1.49
1630411824078,1.28
1630411824093,1.12
1630411824109,1.02
1630411824125,0.97
1630411824140,1.02
1630411824156,1.13
1630411824171,1.26
1630411824187,1.39
1630411824203,1.39
1630411824218,1.13
1630411824234,0.53
1630411824250,-0.47
1630411824265,-1.84
1630411824281,-3.42
1630411824296,-5.01
1630411824312,-6.49
1630411824328,-7.76
1630411824343,-8.8
1630411824359,-9.71
1630411824375,-10.59
1630411824390,-11.56
1630411824406,-12.72
1630411824421,-14.15
1630411824437,-15.78
1630411824453,-17.55
1630411824468,-19.24
1630411824484,-20.63
1630411824500,-21.55
1630411824515,-21.93
1630411824531,-21.87
1630411824546,-21.5
1630411824562,-20.94
1630411824578,-20.29
1630411824593,-19.58
1630411824609,-18.77
1630411824625,-17.91
1630411824640,-16.96
1630411824656,-15.74
1630411824671,-14.09
1630411824687,-11.75
1630411824703,-8.6
1630411824718,-4.73
1630411824734,-0.44
1630411824750,3.82
1630411824765,7.6
1630411824781,10.61
1630411824796,12.82
1630411824812,14.31
1630411824828,15.22
1630411824843,15.75
1630411824859,15.97
1630411824875,15.92
1630411824890,15.54
1630411824906,14.84
1630411824921,13.76
1630411824937,12.39
1630411824953,10.85
1630411824968,9.28
1630411824984,7.86
1630411825000,6.67
1630411825015,5.69
1630411825031,4.82
1630411825046,3.96
1630411825062,3.03
1630411825078,2.09
1630411825093,1.19
1630411825109,0.44
1630411825125,-0.16
1630411825140,-0.68
1630411825156,-1.23
1630411825171,-1.85
1630411825187,-2.54
1630411825203,-3.16
1630411825218,-3.57
1630411825234,-3.74
1630411825250,-3.74
1630411825265,-3.79
1630411825281,-4.08
1630411825296,-4.63
1630411825312,-5.31
1630411825328,-5.91
1630411825343,-6.2
1630411825359,-6.06
1630411825375,-5.39
1630411825390,-4.15
1630411825406,-2.29
1630411825421,0.23
1630411825437,3.29
1630411825453,6.61
1630411825468,9.74
1630411825484,12.26
1630411825500,13.86
1630411825515,14.53
1630411825531,14.5
1630411825546,14.1
1630411825562,13.68
1630411825578,13.36
1630411825593,13.17
1630411825609,12.98
1630411825625,12.62
1630411825640,11.91
1630411825656,10.82
1630411825671,9.4
1630411825687,7.75
1630411825703,6.04
1630411825718,4.38
1630411825734,2.82
1630411825750,1.42
1630411825765,0.29
1630411825781,-0.47
1630411825796,-0.68
1630411825812,-0.33
1630411825828,0.45
1630411825843,1.45
1630411825859,2.41
1630411825875,3.12
1630411825890,3.5
1630411825906,3.57
1630411825921,3.34
1630411825937,2.85
1630411825953,2.11
1630411825968,1.1
1630411825984,-0.07
1630411826000,-1.3
1630411826015,-2.46
1630411826031,-3.46
1630411826046,-4.31
1630411826062,-4.95
1630411826078,-5.33
1630411826093,-5.3
1630411826109,-4.74
1630411826125,-3.59
1630411826140,-1.98
1630411826156,-0.22
1630411826171,1.28
1630411826187,2.14
1630411826203,2.18
1630411826218,1.51
1630411826234,0.41
1630411826250,-0.71
1630411826265,-1.6
1630411826281,-2.11
1630411826296,-2.25
1630411826312,-2.08
1630411826328,-1.68
1630411826343,-1.09
1630411826359,-0.33
1630411826375,0.5
1630411826390,1.31
1630411826406,1.98
1630411826421,2.44
1630411826437,2.69
1630411826453,2.85
1630411826468,3.0
1630411826484,3.29
1630411826500,3.84
1630411826515,4.66
1630411826531,5.71
1630411826546,6.8
1630411826562,7.65
1630411826578,8.03
1630411826593,7.81
1630411826609,6.96
1630411826625,5.55
1630411826640,3.72
1630411826656,1.56
1630411826671,-0.83
1630411826687,-3.29
1630411826703,-5.65
1630411826718,-7.66
1630411826734,-9.17
1630411826750,-10.15
1630411826765,-10.71
1630411826781,-11.07
1630411826796,-11.35
1630411826812,-11.59
1630411826828,-11.64
1630411826843,-11.27
1630411826859,-10.27
1630411826875,-8.6
1630411826890,-6.37
1630411826906,-3.76
1630411826921,-1.08
1630411826937,1.47
1630411826953,3.77
1630411826968,5.78
1630411826984,7.44
1630411827000,8.66
1630411827015,9.31
1630411827031,9.26
1630411827046,8.62
1630411827062,7.58
1630411827078,6.38
1630411827093,5.29
1630411827109,4.4
1630411827125,3.65
1630411827140,2.84
1630411827156,1.77
1630411827171,0.3
1630411827187,-1.49
1630411827203,-3.42
1630411827218,-5.17
1630411827234,-6.43
1630411827250,-7.02
1630411827265,-6.87
1630411827281,-6.1
1630411827296,-4.9
1630411827312,-3.43
1630411827328,-1.63
1630411827343,0.75
1630411827359,4.15
1630411827375,8.89
1630411827390,15.05
1630411827406,22.38
1630411827421,30.22
1630411827437,37.73
1630411827453,44.08
1630411827468,48.7
1630411827484,51.44
1630411827500,52.6
1630411827515,52.72
1630411827531,52.48
1630411827546,52.48
1630411827562,53.27
1630411827578,55.07
1630411827593,57.89
1630411827609,61.43
1630411827625,65.11
1630411827640,68.25
1630411827656,70.09
1630411827671,70.02
1630411827687,67.7
1630411827703,63.17
1630411827718,56.78
1630411827734,49.1
1630411827750,40.84
1630411827765,32.65
1630411827781,25.07
1630411827796,18.36
1630411827812,12.46
1630411827828,7.06
1630411827843,1.68
1630411827859,-3.98
1630411827875,-9.98
1630411827890,-16.05
1630411827906,-21.78
1630411827921,-26.84
1630411827937,-31.07
1630411827953,-34.59
1630411827968,-37.62
1630411827984,-40.42
1630411828000,-43.13
1630411828015,-45.8
1630411828031,-48.44
1630411828046,-51.05
1630411828062,-53.53
1630411828078,-55.69
1630411828093,-57.23
1630411828109,-57.81
1630411828125,-57.26
1630411828140,-55.6
1630411828156,-53.19
1630411828171,-50.52
1630411828187,-48.01
1630411828203,-45.84
1630411828218,-43.88
1630411828234,-41.91
1630411828250,-39.68
1630411828265,-37.19
1630411828281,-34.54
1630411828296,-31.94
1630411828312,-29.48
1630411828328,-27.11
1630411828343,-24.7
1630411828359,-22.16
1630411828375,-19.54
1630411828390,-17.0
1630411828406,-14.72
1630411828421,-12.78
1630411828437,-11.18
1630411828453,-9.79
1630411828468,-8.5
1630411828484,-7.23
1630411828500,-6.0
1630411828515,-4.89
1630411828531,-4.03
1630411828546,-3.5
1630411828562,-3.29
1630411828578,-3.28
1630411828593,-3.24
1630411828609,-2.96
1630411828625,-2.33
1630411828640,-1.45
1630411828656,-0.56
1630411828671,0.02
1630411828687,0.04
1630411828703,-0.61
1630411828718,-1.91
1630411828734,-3.65
1630411828750,-5.7
1630411828765,-7.94
1630411828781,-10.3
1630411828796,-12.72
1630411828812,-15.06
1630411828828,-17.1
1630411828843,-18.55
1630411828859,-19.24
1630411828875,-19.04
1630411828890,-17.99
1630411828906,-16.26
1630411828921,-14.07
1630411828937,-11.65
1630411828953,-9.16
1630411828968,-6.78
1630411828984,-4.63
1630411829000,-2.87
1630411829015,-1.56
1630411829031,-0.67
1630411829046,-0.03
1630411829062,0.6
1630411829078,1.4
1630411829093,2.5
1630411829109,3.84
1630411829125,5.31
1630411829140,6.71
1630411829156,7.93
1630411829171,8.87
1630411829187,9.5
1630411829203,9.83
1630411829218,9.84
1630411829234,9.59
1630411829250,9.16
1630411829265,8.64
1630411829281,8.11
1630411829296,7.61
1630411829312,7.17
1630411829328,6.82
1630411829343,6.65
1630411829359,6.71
1630411829375,6.96
1630411829390,7.33
1630411829406,7.66
1630411829421,7.74
1630411829437,7.49
1630411829453,6.92
1630411829468,6.11
1630411829484,5.2
1630411829500,4.31
1630411829515,3.46
1630411829531,2.62
1630411829546,1.78
1630411829562,0.92
1630411829578,0.16
1630411829593,-0.5
1630411829609,-1.02
1630411829625,-1.41
1630411829640,-1.7
1630411829656,-1.95
1630411829671,-2.23
1630411829687,-2.59
1630411829703,-3.04
1630411829718,-3.53
1630411829734,-3.93
1630411829750,-4.12
1630411829765,-3.88
1630411829781,-3.13
1630411829796,-1.86
1630411829812,-0.28
1630411829828,1.33
1630411829843,2.69
1630411829859,3.63
1630411829875,4.07
1630411829890,4.09
1630411829906,3.81
1630411829921,3.39
1630411829937,2.89
1630411829953,2.39
1630411829968,1.93
1630411829984,1.56
1630411830000,1.36
1630411830015,1.34
1630411830031,1.5
1630411830046,1.74
1630411830062,1.96
1630411830078,2.1
1630411830093,2.16
1630411830109,2.12
1630411830125,2.07
1630411830140,2.06
1630411830156,2.1
1630411830171,2.23
1630411830187,2.38
1630411830203,2.56
1630411830218,2.73
1630411830234,2.92
1630411830250,3.05
1630411830265,3.08
1630411830281,2.92
1630411830296,2.54
1630411830312,1.94
1630411830328,1.16
1630411830343,0.26
1630411830359,-0.69
1630411830375,-1.58
1630411830390,-2.35
1630411830406,-2.96
1630411830421,-3.29
1630411830437,-3.25
1630411830453,-2.74
1630411830468,-1.8
1630411830484,-0.63
1630411830500,0.48
1630411830515,1.2
1630411830531,1.34
1630411830546,0.91
1630411830562,0.13
1630411830578,-0.66
1630411830593,-1.12
1630411830609,-1.08
1630411830625,-0.59
1630411830640,0.17
1630411830656,0.96
1630411830671,1.58
1630411830687,1.96
1630411830703,2.1
1630411830718,2.05
1630411830734,1.9
1630411830750,1.7
1630411830765,1.46
1630411830781,1.16
1630411830796,0.78
1630411830812,0.31
1630411830828,-0.24
1630411830843,-0.85
1630411830859,-1.56
1630411830875,-2.39
1630411830890,-3.36
1630411830906,-4.47
1630411830921,-5.64
1630411830937,-6.7
1630411830953,-7.55
1630411830968,-8.06
1630411830984,-8.24
1630411831000,-8.16
1630411831015,-7.92
1630411831031,-7.53
1630411831046,-6.99
1630411831062,-6.19
1630411831078,-5.05
1630411831093,-3.58
1630411831109,-1.86
1630411831125,-0.11
1630411831140,1.4
1630411831156,2.46
1630411831171,2.92
1630411831187,2.85
1630411831203,2.41
1630411831218,1.89
1630411831234,1.45
1630411831250,1.23
1630411831265,1.15
1630411831281,1.14
1630411831296,1.06
1630411831312,0.88
1630411831328,0.72
1630411831343,0.66
1630411831359,0.87
1630411831375,1.35
1630411831390,2.0
1630411831406,2.64
1630411831421,3.08
1630411831437,3.1
1630411831453,2.65
1630411831468,1.83
1630411831484,0.73
1630411831500,-0.49
1630411831515,-1.74
1630411831531,-2.94
1630411831546,-4.0
1630411831562,-4.76
1630411831578,-5.14
1630411831593,-5.06
1630411831609,-4.6
1630411831625,-3.97
1630411831640,-3.49
1630411831656,-3.41
1630411831671,-3.74
1630411831687,-4.26
1630411831703,-4.63
1630411831718,-4.51
1630411831734,-3.73
1630411831750,-2.29
1630411831765,-0.42
1630411831781,1.54
1630411831796,3.26
1630411831812,4.52
1630411831828,5.29
1630411831843,5.61
1630411831859,5.6
1630411831875,5.33
1630411831890,4.88
1630411831906,4.3
1630411831921,3.64
1630411831937,3.05
1630411831953,2.65
1630411831968,2.57
1630411831984,2.78
1630411832000,3.16
1630411832015,3.41
1630411832031,3.29
1630411832046,2.68
1630411832062,1.66
1630411832078,0.46
1630411832093,-0.6
1630411832109,-1.24
1630411832125,-1.34
1630411832140,-0.97
1630411832156,-0.41
1630411832171,0.0
1630411832187,-0.02
1630411832203,-0.53
1630411832218,-1.41
1630411832234,-2.38
1630411832250,-3.16
1630411832265,-3.64
1630411832281,-3.88
1630411832296,-4.08
1630411832312,-4.56
1630411832328,-5.42
1630411832343,-6.61
1630411832359,-7.83
1630411832375,-8.73
1630411832390,-9.03
1630411832406,-8.55
1630411832421,-7.31
1630411832437,-5.52
1630411832453,-3.42
1630411832468,-1.2
1630411832484,0.99
1630411832500,3.1
1630411832515,5.01
1630411832531,6.56
1630411832546,7.61
1630411832562,8.06
1630411832578,7.9
1630411832593,7.27
1630411832609,6.38
1630411832625,5.41
1630411832640,4.46
1630411832656,3.55
1630411832671,2.6
1630411832687,1.59
1630411832703,0.56
1630411832718,-0.39
1630411832734,-1.1
1630411832750,-1.47
1630411832765,-1.47
1630411832781,-1.19
1630411832796,-0.7
1630411832812,-0.16
1630411832828,0.36
1630411832843,0.81
1630411832859,1.16
1630411832875,1.44
1630411832890,1.64
1630411832906,1.73
1630411832921,1.65
1630411832937,1.36
1630411832953,0.9
1630411832968,0.4
1630411832984,0.0
1630411833000,-0.2
1630411833015,-0.26
1630411833031,-0.4
1630411833046,-0.87
1630411833062,-1.72
1630411833078,-2.86
1630411833093,-3.91
1630411833109,-4.47
1630411833125,-4.27
1630411833140,-3.34
1630411833156,-1.93
1630411833171,-0.43
1630411833187,0.89
1630411833203,1.95
1630411833218,2.74
1630411833234,3.38
1630411833250,3.91
1630411833265,4.32
1630411833281,4.5
1630411833296,4.41
1630411833312,4.06
1630411833328,3.54
1630411833343,3.01
1630411833359,2.57
1630411833375,2.3
1630411833390,2.16
1630411833406,2.14
1630411833421,2.11
1630411833437,2.0
1630411833453,1.77
1630411833468,1.43
1630411833484,1.03
1630411833500,0.62
1630411833515,0.26
1630411833531,-0.06
1630411833546,-0.33
1630411833562,-0.52
1630411833578,-0.57
1630411833593,-0.4
1630411833609,0.03
1630411833625,0.6
1630411833640,1.12
1630411833656,1.44
1630411833671,1.43
1630411833687,1.12
1630411833703,0.61
1630411833718,0.04
1630411833734,-0.51
1630411833750,-1.1
1630411833765,-1.84
1630411833781,-2.85
1630411833796,-4.11
1630411833812,-5.47
1630411833828,-6.65
1630411833843,-7.36
1630411833859,-7.36
1630411833875,-6.61
1630411833890,-5.25
1630411833906,-3.46
1630411833921,-1.49
1630411833937,0.46
1630411833953,2.22
1630411833968,3.7
1630411833984,4.83
1630411834000,5.54
1630411834015,5.82
1630411834031,5.66
1630411834046,5.2
1630411834062,4.5
1630411834078,3.65
1630411834093,2.7
1630411834109,1.76
1630411834125,0.91
1630411834140,0.33
1630411834156,0.09
1630411834171,0.18
1630411834187,0.56
1630411834203,1.02
1630411834218,1.48
1630411834234,1.86
1630411834250,2.21
1630411834265,2.58
1630411834281,2.94
1630411834296,3.07
1630411834312,2.78
1630411834328,1.89
1630411834343,0.42
1630411834359,-1.38
1630411834375,-3.15
1630411834390,-4.51
1630411834406,-5.24
1630411834421,-5.35
1630411834437,-5.01
1630411834453,-4.49
1630411834468,-3.93
1630411834484,-3.42
1630411834500,-2.94
1630411834515,-2.53
1630411834531,-2.37
1630411834546,-2.61
1630411834562,-3.36
1630411834578,-4.49
1630411834593,-5.64
1630411834609,-6.29
1630411834625,-6.08
1630411834640,-4.84
1630411834656,-2.8
1630411834671,-0.46
1630411834687,1.64
1630411834703,3.17
1630411834718,4.05
1630411834734,4.49
1630411834750,4.77
1630411834765,5.1
1630411834781,5.54
1630411834796,5.92
1630411834812,6.01
1630411834828,5.67
1630411834843,4.89
1630411834859,3.85
1630411834875,2.82
1630411834890,2.05
1630411834906,1.67
1630411834921,1.71
1630411834937,2.03
1630411834953,2.47
1630411834968,2.97
1630411834984,3.48
1630411835000,4.01
1630411835015,4.52
1630411835031,4.87
1630411835046,4.89
1630411835062,4.47
1630411835078,3.62
1630411835093,2.48
1630411835109,1.28
1630411835125,0.18
1630411835140,-0.77
1630411835156,-1.59
1630411835171,-2.37
1630411835187,-3.11
1630411835203,-3.77
1630411835218,-4.29
1630411835234,-4.62
1630411835250,-4.85
1630411835265,-5.14
1630411835281,-5.63
1630411835296,-6.34
1630411835312,-7.19
1630411835328,-7.86
1630411835343,-7.98
1630411835359,-7.26
1630411835375,-5.66
1630411835390,-3.36
1630411835406,-0.84
1630411835421,1.4
1630411835437,3.05
1630411835453,3.99
1630411835468,4.37
1630411835484,4.39
1630411835500,4.26
1630411835515,4.1
1630411835531,3.96
1630411835546,3.81
1630411835562,3.65
1630411835578,3.53
1630411835593,3.5
1630411835609,3.63
1630411835625,3.9
1630411835640,4.25
1630411835656,4.58
1630411835671,4.7
1630411835687,4.5
1630411835703,4.0
1630411835718,3.34
1630411835734,2.76
1630411835750,2.51
1630411835765,2.7
1630411835781,3.26
1630411835796,4.03
1630411835812,4.77
1630411835828,5.29
1630411835843,5.5
1630411835859,5.44
1630411835875,5.04
1630411835890,4.42
1630411835906,3.67
1630411835921,2.86
1630411835937,2.06
1630411835953,1.27
1630411835968,0.53
1630411835984,-0.25
1630411836000,-1.11
1630411836015,-2.14
1630411836031,-3.33
1630411836046,-4.69
1630411836062,-6.24
1630411836078,-7.88
1630411836093,-9.46
1630411836109,-10.62
1630411836125,-11.08
1630411836140,-10.65
1630411836156,-9.35
1630411836171,-7.38
1630411836187,-5.11
1630411836203,-2.97
1630411836218,-1.19
1630411836234,0.13
1630411836250,1.1
1630411836265,1.88
1630411836281,2.58
1630411836296,3.27
1630411836312,3.95
1630411836328,4.6
1630411836343,5.12
1630411836359,5.5
1630411836375,5.66
1630411836390,5.54
1630411836406,5.09
1630411836421,4.34
1630411836437,3.38
1630411836453,2.32
1630411836468,1.37
1630411836484,0.65
1630411836500,0.24
1630411836515,0.08
1630411836531,0.04
1630411836546,-0.01
1630411836562,-0.16
1630411836578,-0.41
1630411836593,-0.76
1630411836609,-1.13
1630411836625,-1.48
1630411836640,-1.75
1630411836656,-1.98
1630411836671,-2.16
1630411836687,-2.32
1630411836703,-2.43
1630411836718,-2.47
1630411836734,-2.49
1630411836750,-2.5
1630411836765,-2.66
1630411836781,-3.07
1630411836796,-3.87
1630411836812,-5.08
1630411836828,-6.56
1630411836843,-7.99
1630411836859,-8.97
1630411836875,-9.26
1630411836890,-8.72
1630411836906,-7.55
1630411836921,-6.02
1630411836937,-4.43
1630411836953,-2.96
1630411836968,-1.62
1630411836984,-0.36
1630411837000,0.86
1630411837015,1.94
1630411837031,2.82
1630411837046,3.38
1630411837062,3.64
1630411837078,3.73
1630411837093,3.8
1630411837109,3.94
1630411837125,4.15
1630411837140,4.34
1630411837156,4.32
1630411837171,4.06
1630411837187,3.55
1630411837203,2.88
1630411837218,2.24
1630411837234,1.72
1630411837250,1.4
1630411837265,1.23
1630411837281,1.11
1630411837296,0.9
1630411837312,0.51
1630411837328,-0.02
1630411837343,-0.69
1630411837359,-1.39
1630411837375,-2.16
1630411837390,-3.03
1630411837406,-3.98
1630411837421,-4.88
1630411837437,-5.58
1630411837453,-5.88
1630411837468,-5.74
1630411837484,-5.33
1630411837500,-4.87
1630411837515,-4.74
1630411837531,-5.12
1630411837546,-5.95
1630411837562,-6.95
1630411837578,-7.72
1630411837593,-7.85
1630411837609,-7.1
1630411837625,-5.54
1630411837640,-3.36
1630411837656,-0.98
1630411837671,1.24
1630411837687,3.04
1630411837703,4.3
1630411837718,5.03
1630411837734,5.33
1630411837750,5.33
1630411837765,5.1
1630411837781,4.74
1630411837796,4.34
1630411837812,3.95
1630411837828,3.73
1630411837843,3.73
1630411837859,4.03
1630411837875,4.65
1630411837890,5.51
1630411837906,6.4
1630411837921,7.09
1630411837937,7.39
1630411837953,7.15
1630411837968,6.5
1630411837984,5.66
1630411838000,4.87
1630411838015,4.33
1630411838031,4.05
1630411838046,3.86
1630411838062,3.57
1630411838078,3.02
1630411838093,2.18
1630411838109,1.21
1630411838125,0.3
1630411838140,-0.44
1630411838156,-0.96
1630411838171,-1.31
1630411838187,-1.64
1630411838203,-2.01
1630411838218,-2.47
1630411838234,-3.03
1630411838250,-3.69
1630411838265,-4.55
1630411838281,-5.71
1630411838296,-7.17
1630411838312,-8.8
1630411838328,-10.27
1630411838343,-11.18
1630411838359,-11.28
1630411838375,-10.52
1630411838390,-9.05
1630411838406,-7.19
1630411838421,-5.26
1630411838437,-3.41
1630411838453,-1.75
1630411838468,-0.25
1630411838484,1.16
1630411838500,2.5
1630411838515,3.75
1630411838531,4.88
1630411838546,5.87
1630411838562,6.67
1630411838578,7.22
1630411838593,7.5
1630411838609,7.53
1630411838625,7.43
1630411838640,7.37
1630411838656,7.46
1630411838671,7.76
1630411838687,8.24
1630411838703,8.82
1630411838718,9.37
1630411838734,9.86
1630411838750,10.23
1630411838765,10.39
1630411838781,10.21
1630411838796,9.58
1630411838812,8.41
1630411838828,6.74
1630411838843,4.77
1630411838859,2.76
1630411838875,0.92
1630411838890,-0.6
1630411838906,-1.79
1630411838921,-2.74
1630411838937,-3.54
1630411838953,-4.22
1630411838968,-4.78
1630411838984,-5.19
1630411839000,-5.47
1630411839015,-5.72
1630411839031,-6.07
1630411839046,-6.66
1630411839062,-7.54
1630411839078,-8.6
1630411839093,-9.66
1630411839109,-10.41
1630411839125,-10.59
1630411839140,-10.04
1630411839156,-8.75
1630411839171,-6.85
1630411839187,-4.64
1630411839203,-2.42
1630411839218,-0.51
1630411839234,0.9
1630411839250,1.79
1630411839265,2.3
1630411839281,2.69
1630411839296,3.18
1630411839312,3.84
1630411839328,4.57
1630411839343,5.18
1630411839359,5.5
1630411839375,5.51
1630411839390,5.32
1630411839406,5.13
1630411839421,5.09
1630411839437,5.25
1630411839453,5.51
1630411839468,5.72
1630411839484,5.79
1630411839500,5.71
1630411839515,5.52
1630411839531,5.21
1630411839546,4.73
1630411839562,4.02
1630411839578,3.03
1630411839593,1.78
1630411839609,0.41
1630411839625,-1.01
1630411839640,-2.31
1630411839656,-3.45
1630411839671,-4.43
1630411839687,-5.28
1630411839703,-6.03
1630411839718,-6.64
1630411839734,-7.1
1630411839750,-7.37
1630411839765,-7.6
1630411839781,-7.96
1630411839796,-8.61
1630411839812,-9.62
1630411839828,-10.87
1630411839843,-12.03
1630411839859,-12.72
1630411839875,-12.64
1630411839890,-11.61
1630411839906,-9.67
1630411839921,-7.05
1630411839937,-4.12
1630411839953,-1.16
1630411839968,1.59
1630411839984,3.98
1630411840000,5.9
1630411840015,7.27
1630411840031,8.04
1630411840046,8.18
1630411840062,7.74
1630411840078,6.84
1630411840093,5.71
1630411840109,4.64
1630411840125,3.86
1630411840140,3.51
1630411840156,3.55
1630411840171,3.85
1630411840187,4.17
1630411840203,4.4
1630411840218,4.53
1630411840234,4.63
1630411840250,4.82
1630411840265,5.12
1630411840281,5.47
1630411840296,5.75
1630411840312,5.82
1630411840328,5.59
1630411840343,5.09
1630411840359,4.47
1630411840375,3.82
1630411840390,3.21
1630411840406,2.61
1630411840421,1.88
1630411840437,0.9
1630411840453,-0.33
1630411840468,-1.78
1630411840484,-3.3
1630411840500,-4.74
1630411840515,-6.04
1630411840531,-7.21
1630411840546,-8.28
1630411840562,-9.31
1630411840578,-10.26
1630411840593,-10.97
1630411840609,-11.26
1630411840625,-10.98
1630411840640,-10.06
1630411840656,-8.54
1630411840671,-6.53
1630411840687,-4.25
1630411840703,-2.01
1630411840718,-0.08
1630411840734,1.34
1630411840750,2.25
1630411840765,2.72
1630411840781,2.98
1630411840796,3.22
1630411840812,3.6
1630411840828,4.12
1630411840843,4.69
1630411840859,5.23
1630411840875,5.64
1630411840890,6.01
1630411840906,6.43
1630411840921,6.96
1630411840937,7.54
1630411840953,8.04
1630411840968,8.28
1630411840984,8.1
1630411841000,7.56
1630411841015,6.74
1630411841031,5.87
1630411841046,5.06
1630411841062,4.33
1630411841078,3.59
1630411841093,2.68
1630411841109,1.6
1630411841125,0.37
1630411841140,-0.8
1630411841156,-1.79
1630411841171,-2.53
1630411841187,-3.09
1630411841203,-3.53
1630411841218,-3.93
1630411841234,-4.35
1630411841250,-4.74
1630411841265,-5.15
1630411841281,-5.57
1630411841296,-6.1
1630411841312,-6.79
1630411841328,-7.59
1630411841343,-8.41
1630411841359,-9.02
1630411841375,-9.23
1630411841390,-8.85
1630411841406,-7.81
1630411841421,-6.2
1630411841437,-4.21
1630411841453,-2.18
1630411841468,-0.43
1630411841484,0.83
1630411841500,1.58
1630411841515,1.92
1630411841531,2.15
1630411841546,2.53
1630411841562,3.27
1630411841578,4.44
1630411841593,5.84
1630411841609,7.24
1630411841625,8.37
1630411841640,9.08
1630411841656,9.34
1630411841671,9.24
1630411841687,8.91
1630411841703,8.49
1630411841718,8.12
1630411841734,7.89
1630411841750,7.82
1630411841765,7.86
1630411841781,7.91
1630411841796,7.78
1630411841812,7.29
1630411841828,6.33
1630411841843,4.98
1630411841859,3.42
1630411841875,1.87
1630411841890,0.58
1630411841906,-0.39
1630411841921,-1.02
1630411841937,-1.43
1630411841953,-1.76
1630411841968,-2.16
1630411841984,-2.75
1630411842000,-3.57
1630411842015,-4.64
1630411842031,-5.79
1630411842046,-6.94
1630411842062,-8.04
1630411842078,-9.01
1630411842093,-9.87
1630411842109,-10.59
1630411842125,-11.07
1630411842140,-11.12
1630411842156,-10.57
1630411842171,-9.34
1630411842187,-7.51
1630411842203,-5.4
1630411842218,-3.34
1630411842234,-1.62
1630411842250,-0.39
1630411842265,0.32
1630411842281,0.64
1630411842296,0.78
1630411842312,0.91
1630411842328,1.15
1630411842343,1.57
1630411842359,2.12
1630411842375,2.72
1630411842390,3.3
1630411842406,3.79
1630411842421,4.23
1630411842437,4.72
1630411842453,5.27
1630411842468,5.89
1630411842484,6.43
1630411842500,6.77
1630411842515,6.83
1630411842531,6.57
1630411842546,6.11
1630411842562,5.52
1630411842578,4.9
1630411842593,4.27
1630411842609,3.59
1630411842625,2.86
1630411842640,2.07
1630411842656,1.28
1630411842671,0.51
1630411842687,-0.24
1630411842703,-1.01
1630411842718,-1.84
1630411842734,-2.69
1630411842750,-3.53
1630411842765,-4.24
1630411842781,-4.8
1630411842796,-5.23
1630411842812,-5.63
1630411842828,-6.17
1630411842843,-6.93
1630411842859,-7.9
1630411842875,-8.96
1630411842890,-9.82
1630411842906,-10.22
1630411842921,-9.98
1630411842937,-9.05
1630411842953,-7.55
1630411842968,-5.76
1630411842984,-3.97
1630411843000,-2.44
1630411843015,-1.27
1630411843031,-0.37
1630411843046,0.45
1630411843062,1.45
1630411843078,2.78
1630411843093,4.42
1630411843109,6.24
1630411843125,7.97
1630411843140,9.37
1630411843156,10.34
1630411843171,10.86
1630411843187,11.0
1630411843203,10.87
1630411843218,10.5
1630411843234,9.92
1630411843250,9.19
1630411843265,8.38
1630411843281,7.6
1630411843296,6.98
1630411843312,6.56
1630411843328,6.27
1630411843343,6.04
1630411843359,5.72
1630411843375,5.22
1630411843390,4.5
1630411843406,3.59
1630411843421,2.6
1630411843437,1.6
1630411843453,0.63
1630411843468,-0.32
1630411843484,-1.28
1630411843500,-2.25
1630411843515,-3.21
1630411843531,-4.08
1630411843546,-4.83
1630411843562,-5.44
1630411843578,-5.9
1630411843593,-6.27
1630411843609,-6.57
1630411843625,-6.81
1630411843640,-7.02
1630411843656,-7.35
1630411843671,-7.87
1630411843687,-8.62
1630411843703,-9.44
1630411843718,-10.04
1630411843734,-10.09
1630411843750,-9.37
1630411843765,-7.9
1630411843781,-5.86
1630411843796,-3.58
1630411843812,-1.3
1630411843828,0.87
1630411843843,2.86
1630411843859,4.7
1630411843875,6.38
1630411843890,7.84
1630411843906,8.94
1630411843921,9.59
1630411843937,9.66
1630411843953,9.24
1630411843968,8.44
1630411843984,7.53
1630411844000,6.82
1630411844015,6.5
1630411844031,6.66
1630411844046,7.15
1630411844062,7.75
1630411844078,8.18
1630411844093,8.33
1630411844109,8.15
1630411844125,7.7
1630411844140,7.08
1630411844156,6.33
1630411844171,5.51
1630411844187,4.71
1630411844203,4.01
1630411844218,3.48
1630411844234,3.17
1630411844250,3.04
1630411844265,2.96
1630411844281,2.82
1630411844296,2.43
1630411844312,1.68
1630411844328,0.54
1630411844343,-0.94
1630411844359,-2.6
1630411844375,-4.22
1630411844390,-5.57
1630411844406,-6.55
1630411844421,-7.16
1630411844437,-7.53
1630411844453,-7.86
1630411844468,-8.28
1630411844484,-8.89
1630411844500,-9.61
1630411844515,-10.32
1630411844531,-10.81
1630411844546,-10.94
1630411844562,-10.54
1630411844578,-9.51
1630411844593,-7.88
1630411844609,-5.72
1630411844625,-3.25
1630411844640,-0.72
1630411844656,1.59
1630411844671,3.43
1630411844687,4.64
1630411844703,5.21
1630411844718,5.26
1630411844734,5.02
1630411844750,4.74
1630411844765,4.54
1630411844781,4.45
1630411844796,4.36
1630411844812,4.19
1630411844828,3.92
1630411844843,3.62
1630411844859,3.43
1630411844875,3.48
1630411844890,3.78
1630411844906,4.16
1630411844921,4.42
1630411844937,4.3
1630411844953,3.72
1630411844968,2.74
1630411844984,1.5
1630411845000,0.17
1630411845015,-1.14
1630411845031,-2.37
1630411845046,-3.54
1630411845062,-4.63
1630411845078,-5.53
1630411845093,-6.03
1630411845109,-5.91
1630411845125,-5.09
1630411845140,-3.66
1630411845156,-1.87
1630411845171,-0.1
1630411845187,1.31
1630411845203,2.08
1630411845218,2.1
1630411845234,1.39
1630411845250,0.08
1630411845265,-1.68
1630411845281,-3.73
1630411845296,-5.99
1630411845312,-8.34
1630411845328,-10.59
1630411845343,-12.48
1630411845359,-13.74
1630411845375,-14.07
1630411845390,-13.29
1630411845406,-11.46
1630411845421,-8.82
1630411845437,-5.85
1630411845453,-2.97
1630411845468,-0.5
1630411845484,1.53
1630411845500,3.21
1630411845515,4.78
1630411845531,6.42
1630411845546,8.12
1630411845562,9.78
1630411845578,11.18
1630411845593,12.14
1630411845609,12.57
1630411845625,12.52
1630411845640,12.02
1630411845656,11.15
1630411845671,9.99
1630411845687,8.67
1630411845703,7.33
1630411845718,6.14
1630411845734,5.21
1630411845750,4.58
1630411845765,4.32
1630411845781,4.4
1630411845796,4.76
1630411845812,5.23
1630411845828,5.62
1630411845843,5.65
1630411845859,5.16
1630411845875,4.13
1630411845890,2.78
1630411845906,1.47
1630411845921,0.5
1630411845937,-0.04
1630411845953,-0.24
1630411845968,-0.37
1630411845984,-0.67
1630411846000,-1.24
1630411846015,-2.05
1630411846031,-2.96
1630411846046,-3.88
1630411846062,-4.74
1630411846078,-5.52
1630411846093,-6.21
1630411846109,-6.81
1630411846125,-7.34
1630411846140,-7.82
1630411846156,-8.33
1630411846171,-8.96
1630411846187,-9.78
1630411846203,-10.74
1630411846218,-11.65
1630411846234,-12.21
1630411846250,-12.15
1630411846265,-11.23
1630411846281,-9.39
1630411846296,-6.86
1630411846312,-4.06
1630411846328,-1.4
1630411846343,0.75
1630411846359,2.33
1630411846375,3.42
1630411846390,4.21
1630411846406,4.88
1630411846421,5.52
1630411846437,6.05
1630411846453,6.38
1630411846468,6.48
1630411846484,6.39
1630411846500,6.32
1630411846515,6.43
1630411846531,6.84
1630411846546,7.45
1630411846562,8.11
1630411846578,8.57
1630411846593,8.69
1630411846609,8.47
1630411846625,8.01
1630411846640,7.54
1630411846656,7.13
1630411846671,6.84
1630411846687,6.54
1630411846703,6.13
1630411846718,5.5
1630411846734,4.65
1630411846750,3.6
1630411846765,2.39
1630411846781,1.14
1630411846796,-0.07
1630411846812,-1.12
1630411846828,-1.93
1630411846843,-2.47
1630411846859,-2.82
1630411846875,-3.11
1630411846890,-3.41
1630411846906,-3.8
1630411846921,-4.19
1630411846937,-4.52
1630411846953,-4.72
1630411846968,-4.8
1630411846984,-4.85
1630411847000,-4.95
1630411847015,-5.13
1630411847031,-5.36
1630411847046,-5.71
1630411847062,-6.24
1630411847078,-6.99
1630411847093,-7.92
1630411847109,-8.82
1630411847125,-9.42
1630411847140,-9.42
1630411847156,-8.62
1630411847171,-7.08
1630411847187,-5.1
1630411847203,-3.02
1630411847218,-1.14
1630411847234,0.42
1630411847250,1.72
1630411847265,2.89
1630411847281,4.01
1630411847296,5.07
1630411847312,5.91
1630411847328,6.32
1630411847343,6.3
1630411847359,5.9
1630411847375,5.33
1630411847390,4.8
1630411847406,4.48
1630411847421,4.3
1630411847437,4.19
1630411847453,4.03
1630411847468,3.74
1630411847484,3.41
1630411847500,3.21
1630411847515,3.31
1630411847531,3.88
1630411847546,4.9
1630411847562,6.13
1630411847578,7.25
1630411847593,7.87
1630411847609,7.72
1630411847625,6.78
1630411847640,5.25
1630411847656,3.5
1630411847671,1.96
1630411847687,0.88
1630411847703,0.31
1630411847718,0.15
1630411847734,0.12
1630411847750,-0.02
1630411847765,-0.4
1630411847781,-1.04
1630411847796,-1.91
1630411847812,-2.89
1630411847828,-3.88
1630411847843,-4.83
1630411847859,-5.73
1630411847875,-6.61
1630411847890,-7.61
1630411847906,-8.77
1630411847921,-10.17
1630411847937,-11.76
1630411847953,-13.36
1630411847968,-14.64
1630411847984,-15.3
1630411848000,-15.05
1630411848015,-13.79
1630411848031,-11.64
1630411848046,-8.82
1630411848062,-5.75
1630411848078,-2.77
1630411848093,-0.22
1630411848109,1.8
1630411848125,3.27
1630411848140,4.34
1630411848156,5.11
1630411848171,5.68
1630411848187,6.08
1630411848203,6.22
1630411848218,6.09
1630411848234,5.65
1630411848250,5.04
1630411848265,4.33
1630411848281,3.67
1630411848296,3.05
1630411848312,2.46
1630411848328,1.86
1630411848343,1.24
1630411848359,0.67
1630411848375,0.25
1630411848390,0.08
1630411848406,0.17
1630411848421,0.45
1630411848437,0.75
1630411848453,0.85
1630411848468,0.65
1630411848484,0.16
1630411848500,-0.51
1630411848515,-1.22
1630411848531,-1.86
1630411848546,-2.4
1630411848562,-2.9
1630411848578,-3.41
1630411848593,-4.0
1630411848609,-4.63
1630411848625,-5.1
1630411848640,-5.3
1630411848656,-5.13
1630411848671,-4.72
1630411848687,-4.24
1630411848703,-3.95
1630411848718,-4.03
1630411848734,-4.57
1630411848750,-5.48
1630411848765,-6.53
1630411848781,-7.48
1630411848796,-8.06
1630411848812,-8.08
1630411848828,-7.42
1630411848843,-6.11
1630411848859,-4.31
1630411848875,-2.28
1630411848890,-0.39
1630411848906,1.09
1630411848921,1.96
1630411848937,2.26
1630411848953,2.12
1630411848968,1.81
1630411848984,1.6
1630411849000,1.64
1630411849015,1.98
1630411849031,2.56
1630411849046,3.23
1630411849062,3.8
1630411849078,4.2
1630411849093,4.42
1630411849109,4.5
1630411849125,4.54
1630411849140,4.61
1630411849156,4.74
1630411849171,4.93
1630411849187,5.1
1630411849203,5.23
1630411849218,5.33
1630411849234,5.43
1630411849250,5.54
1630411849265,5.63
1630411849281,5.67
1630411849296,5.59
1630411849312,5.4
1630411849328,5.14
1630411849343,4.87
1630411849359,4.6
1630411849375,4.28
1630411849390,3.81
1630411849406,3.06
1630411849421,1.98
1630411849437,0.68
1630411849453,-0.63
1630411849468,-1.73
1630411849484,-2.49
1630411849500,-2.85
1630411849515,-2.98
1630411849531,-3.09
1630411849546,-3.46
1630411849562,-4.32
1630411849578,-5.78
1630411849593,-7.84
1630411849609,-10.32
1630411849625,-12.82
1630411849640,-14.79
1630411849656,-15.71
1630411849671,-15.22
1630411849687,-13.29
1630411849703,-10.22
1630411849718,-6.61
1630411849734,-3.14
1630411849750,-0.36
1630411849765,1.45
1630411849781,2.26
1630411849796,2.3
1630411849812,1.93
1630411849828,1.49
1630411849843,1.25
1630411849859,1.32
1630411849875,1.69
1630411849890,2.31
1630411849906,3.06
1630411849921,3.84
1630411849937,4.58
1630411849953,5.23
1630411849968,5.77
1630411849984,6.16
1630411850000,6.45
1630411850015,6.64
1630411850031,6.83
1630411850046,7.02
1630411850062,7.23
1630411850078,7.41
1630411850093,7.51
1630411850109,7.51
1630411850125,7.44
1630411850140,7.36
1630411850156,7.3
1630411850171,7.3
1630411850187,7.33
1630411850203,7.37
1630411850218,7.39
1630411850234,7.31
1630411850250,7.07
1630411850265,6.58
1630411850281,5.78
1630411850296,4.53
1630411850312,2.85
1630411850328,0.76
1630411850343,-1.63
1630411850359,-4.1
1630411850375,-6.49
1630411850390,-8.61
1630411850406,-10.29
1630411850421,-11.47
1630411850437,-12.13
1630411850453,-12.35
1630411850468,-12.27
1630411850484,-12.1
1630411850500,-11.91
1630411850515,-11.78
1630411850531,-11.59
1630411850546,-11.17
1630411850562,-10.29
1630411850578,-8.85
1630411850593,-6.91
1630411850609,-4.66
1630411850625,-2.4
1630411850640,-0.4
1630411850656,1.14
1630411850671,2.19
1630411850687,2.77
1630411850703,2.96
1630411850718,2.83
1630411850734,2.48
1630411850750,2.06
1630411850765,1.72
1630411850781,1.62
1630411850796,1.84
1630411850812,2.34
1630411850828,2.99
1630411850843,3.65
1630411850859,4.22
1630411850875,4.67
1630411850890,5.06
1630411850906,5.43
1630411850921,5.78
1630411850937,6.05
1630411850953,6.16
1630411850968,6.06
1630411850984,5.78
1630411851000,5.45
1630411851015,5.12
1630411851031,4.89
1630411851046,4.72
1630411851062,4.58
1630411851078,4.39
1630411851093,4.13
1630411851109,3.83
1630411851125,3.48
1630411851140,3.06
1630411851156,2.38
1630411851171,1.35
1630411851187,-0.07
1630411851203,-1.78
1630411851218,-3.57
1630411851234,-5.2
1630411851250,-6.52
1630411851265,-7.43
1630411851281,-7.98
1630411851296,-8.36
1630411851312,-8.72
1630411851328,-9.26
1630411851343,-10.11
1630411851359,-11.27
1630411851375,-12.53
1630411851390,-13.57
1630411851406,-14.03
1630411851421,-13.55
1630411851437,-12.07
1630411851453,-9.74
1630411851468,-6.95
1630411851484,-4.18
1630411851500,-1.76
1630411851515,0.2
1630411851531,1.75
1630411851546,3.06
1630411851562,4.29
1630411851578,5.48
1630411851593,6.56
1630411851609,7.44
1630411851625,8.06
1630411851640,8.54
1630411851656,8.99
1630411851671,9.53
1630411851687,10.16
1630411851703,10.75
1630411851718,11.08
1630411851734,11.01
1630411851750,10.52
1630411851765,9.68
1630411851781,8.7
1630411851796,7.71
1630411851812,6.79
1630411851828,5.95
1630411851843,5.18
1630411851859,4.43
1630411851875,3.76
1630411851890,3.25
1630411851906,2.87
1630411851921,2.58
1630411851937,2.3
1630411851953,1.88
1630411851968,1.3
1630411851984,0.62
1630411852000,-0.14
1630411852015,-0.91
1630411852031,-1.64
1630411852046,-2.36
1630411852062,-3.09
1630411852078,-3.72
1630411852093,-4.23
1630411852109,-4.59
1630411852125,-4.88
1630411852140,-5.32
1630411852156,-6.08
1630411852171,-7.23
1630411852187,-8.71
1630411852203,-10.37
1630411852218,-11.98
1630411852234,-13.39
1630411852250,-14.38
1630411852265,-14.84
1630411852281,-14.61
1630411852296,-13.58
1630411852312,-11.77
1630411852328,-9.32
1630411852343,-6.52
1630411852359,-3.72
1630411852375,-1.3
1630411852390,0.56
1630411852406,1.84
1630411852421,2.7
1630411852437,3.37
1630411852453,4.04
1630411852468,4.77
1630411852484,5.54
1630411852500,6.25
1630411852515,6.77
1630411852531,7.07
1630411852546,7.18
1630411852562,7.23
1630411852578,7.32
1630411852593,7.5
1630411852609,7.77
1630411852625,8.12
1630411852640,8.5
1630411852656,8.85
1630411852671,9.15
1630411852687,9.39
1630411852703,9.54
1630411852718,9.58
1630411852734,9.45
1630411852750,9.12
1630411852765,8.57
1630411852781,7.83
1630411852796,6.92
1630411852812,5.93
1630411852828,4.87
1630411852843,3.75
1630411852859,2.63
1630411852875,1.53
1630411852890,0.5
1630411852906,-0.42
1630411852921,-1.22
1630411852937,-1.96
1630411852953,-2.66
1630411852968,-3.39
1630411852984,-4.16
1630411853000,-4.94
1630411853015,-5.63
1630411853031,-6.2
1630411853046,-6.66
1630411853062,-7.13
1630411853078,-7.79
1630411853093,-8.77
1630411853109,-10.11
1630411853125,-11.72
1630411853140,-13.37
1630411853156,-14.76
1630411853171,-15.54
1630411853187,-15.43
1630411853203,-14.28
1630411853218,-12.12
1630411853234,-9.17
1630411853250,-5.78
1630411853265,-2.42
1630411853281,0.62
1630411853296,3.1
1630411853312,5.03
1630411853328,6.48
1630411853343,7.62
1630411853359,8.53
1630411853375,9.21
1630411853390,9.59
1630411853406,9.6
1630411853421,9.29
1630411853437,8.72
1630411853453,8.05
1630411853468,7.43
1630411853484,7.01
1630411853500,6.83
1630411853515,6.84
1630411853531,6.93
1630411853546,6.99
1630411853562,6.97
1630411853578,6.88
1630411853593,6.73
1630411853609,6.56
1630411853625,6.4
1630411853640,6.22
1630411853656,6.02
1630411853671,5.74
1630411853687,5.33
1630411853703,4.71
1630411853718,3.81
1630411853734,2.6
1630411853750,1.11
1630411853765,-0.51
1630411853781,-2.05
1630411853796,-3.31
1630411853812,-4.14
1630411853828,-4.59
1630411853843,-4.75
1630411853859,-4.8
1630411853875,-4.93
1630411853890,-5.27
1630411853906,-5.93
1630411853921,-6.99
1630411853937,-8.45
1630411853953,-10.25
1630411853968,-12.3
1630411853984,-14.36
1630411854000,-16.17
1630411854015,-17.43
1630411854031,-17.83
1630411854046,-17.17
1630411854062,-15.37
1630411854078,-12.58
1630411854093,-9.18
1630411854109,-5.63
1630411854125,-2.38
1630411854140,0.3
1630411854156,2.31
1630411854171,3.8
1630411854187,4.87
1630411854203,5.62
1630411854218,6.07
1630411854234,6.2
1630411854250,6.03
1630411854265,5.69
1630411854281,5.34
1630411854296,5.11
1630411854312,5.14
1630411854328,5.39
1630411854343,5.79
1630411854359,6.23
1630411854375,6.63
1630411854390,6.92
1630411854406,7.08
1630411854421,7.14
1630411854437,7.03
1630411854453,6.7
1630411854468,6.01
1630411854484,4.95
1630411854500,3.62
1630411854515,2.29
1630411854531,1.24
1630411854546,0.67
1630411854562,0.62
1630411854578,0.91
1630411854593,1.34
1630411854609,1.68
1630411854625,1.86
1630411854640,1.86
1630411854656,1.66
1630411854671,1.19
1630411854687,0.28
1630411854703,-1.15
1630411854718,-3.14
1630411854734,-5.5
1630411854750,-7.98
1630411854765,-10.37
1630411854781,-12.46
1630411854796,-14.24
1630411854812,-15.61
1630411854828,-16.51
1630411854843,-16.78
1630411854859,-16.29
1630411854875,-14.95
1630411854890,-12.81
1630411854906,-10.1
1630411854921,-7.16
1630411854937,-4.34
1630411854953,-1.87
1630411854968,0.06
1630411854984,1.43
1630411855000,2.17
1630411855015,2.36
1630411855031,2.14
1630411855046,1.7
1630411855062,1.33
1630411855078,1.22
1630411855093,1.56
1630411855109,2.36
1630411855125,3.57
1630411855140,5.05
1630411855156,6.73
1630411855171,8.54
1630411855187,10.36
1630411855203,12.08
1630411855218,13.41
1630411855234,14.17
1630411855250,14.21
1630411855265,13.6
1630411855281,12.5
1630411855296,11.17
1630411855312,9.85
1630411855328,8.65
1630411855343,7.63
1630411855359,6.7
1630411855375,5.79
1630411855390,4.8
1630411855406,3.72
1630411855421,2.57
1630411855437,1.45
1630411855453,0.47
1630411855468,-0.28
1630411855484,-0.75
1630411855500,-1.06
1630411855515,-1.34
1630411855531,-1.72
1630411855546,-2.26
1630411855562,-2.9
1630411855578,-3.54
1630411855593,-4.15
1630411855609,-4.74
1630411855625,-5.41
1630411855640,-6.32
1630411855656,-7.61
1630411855671,-9.25
1630411855687,-11.12
1630411855703,-12.94
1630411855718,-14.38
1630411855734,-15.14
1630411855750,-14.97
1630411855765,-13.81
1630411855781,-11.78
1630411855796,-9.16
1630411855812,-6.23
1630411855828,-3.29
1630411855843,-0.55
1630411855859,1.81
1630411855875,3.65
1630411855890,4.93
1630411855906,5.68
1630411855921,6.05
1630411855937,6.25
1630411855953,6.5
1630411855968,6.84
1630411855984,7.24
1630411856000,7.54
1630411856015,7.64
1630411856031,7.57
1630411856046,7.51
1630411856062,7.55
1630411856078,7.73
1630411856093,7.87
1630411856109,7.76
1630411856125,7.29
1630411856140,6.5
1630411856156,5.58
1630411856171,4.77
1630411856187,4.18
1630411856203,3.73
1630411856218,3.31
1630411856234,2.76
1630411856250,2.09
1630411856265,1.42
1630411856281,0.93
1630411856296,0.71
1630411856312,0.72
1630411856328,0.78
1630411856343,0.6
1630411856359,0.05
1630411856375,-1.0
1630411856390,-2.47
1630411856406,-4.12
1630411856421,-5.72
1630411856437,-7.02
1630411856453,-7.85
1630411856468,-8.22
1630411856484,-8.27
1630411856500,-8.18
1630411856515,-8.21
1630411856531,-8.55
1630411856546,-9.22
1630411856562,-10.23
1630411856578,-11.4
1630411856593,-12.49
1630411856609,-13.26
1630411856625,-13.59
1630411856640,-13.48
1630411856656,-13.18
1630411856671,-13.0
1630411856687,-13.14
1630411856703,-13.66
1630411856718,-14.38
1630411856734,-14.89
1630411856750,-14.74
1630411856765,-13.63
1630411856781,-11.47
1630411856796,-8.43
1630411856812,-4.83
1630411856828,-1.03
1630411856843,2.63
1630411856859,5.94
1630411856875,8.81
1630411856890,11.24
1630411856906,13.29
1630411856921,15.03
1630411856937,16.51
1630411856953,17.73
1630411856968,18.69
1630411856984,19.32
1630411857000,19.61
1630411857015,19.52
1630411857031,19.03
1630411857046,18.14
1630411857062,16.93
1630411857078,15.42
1630411857093,13.67
1630411857109,11.82
1630411857125,9.98
1630411857140,8.31
1630411857156,6.93
1630411857171,5.85
1630411857187,4.96
1630411857203,4.09
1630411857218,3.06
1630411857234,1.73
1630411857250,0.16
1630411857265,-1.53
1630411857281,-3.12
1630411857296,-4.51
1630411857312,-5.61
1630411857328,-6.55
1630411857343,-7.47
1630411857359,-8.53
1630411857375,-9.79
1630411857390,-11.1
1630411857406,-12.27
1630411857421,-12.97
1630411857437,-12.96
1630411857453,-12.11
1630411857468,-10.47
1630411857484,-8.29
1630411857500,-5.89
1630411857515,-3.6
1630411857531,-1.56
1630411857546,0.15
1630411857562,1.58
1630411857578,2.86
1630411857593,4.03
1630411857609,5.13
1630411857625,6.16
1630411857640,7.07
1630411857656,7.79
1630411857671,8.26
1630411857687,8.45
1630411857703,8.33
1630411857718,8.05
1630411857734,7.73
1630411857750,7.52
1630411857765,7.48
1630411857781,7.57
1630411857796,7.67
1630411857812,7.62
1630411857828,7.29
1630411857843,6.56
1630411857859,5.51
1630411857875,4.25
1630411857890,3.0
1630411857906,1.92
1630411857921,1.1
1630411857937,0.51
1630411857953,-0.08
1630411857968,-0.95
1630411857984,-2.29
1630411858000,-4.14
1630411858015,-6.21
1630411858031,-8.09
1630411858046,-9.33
1630411858062,-9.64
1630411858078,-8.95
1630411858093,-7.51
1630411858109,-5.78
1630411858125,-4.22
1630411858140,-3.26
1630411858156,-3.1
1630411858171,-3.75
1630411858187,-4.95
1630411858203,-6.37
1630411858218,-7.59
1630411858234,-8.3
1630411858250,-8.28
1630411858265,-7.44
1630411858281,-5.88
1630411858296,-3.8
1630411858312,-1.57
1630411858328,0.47
1630411858343,1.99
1630411858359,2.85
1630411858375,3.13
1630411858390,3.1
1630411858406,3.1
1630411858421,3.32
1630411858437,3.84
1630411858453,4.55
1630411858468,5.23
1630411858484,5.84
1630411858500,6.34
1630411858515,6.84
1630411858531,7.44
1630411858546,8.15
1630411858562,8.83
1630411858578,9.33
1630411858593,9.6
1630411858609,9.55
1630411858625,9.3
1630411858640,8.93
1630411858656,8.54
1630411858671,8.14
1630411858687,7.66
1630411858703,7.03
1630411858718,6.21
1630411858734,5.27
1630411858750,4.29
1630411858765,3.39
1630411858781,2.53
1630411858796,1.65
1630411858812,0.64
1630411858828,-0.64
1630411858843,-2.17
1630411858859,-3.83
1630411858875,-5.42
1630411858890,-6.82
1630411858906,-7.91
1630411858921,-8.72
1630411858937,-9.37
1630411858953,-9.92
1630411858968,-10.5
1630411858984,-11.18
1630411859000,-11.9
1630411859015,-12.55
1630411859031,-12.92
1630411859046,-12.73
1630411859062,-11.7
1630411859078,-9.75
1630411859093,-6.93
1630411859109,-3.61
1630411859125,-0.32
1630411859140,2.41
1630411859156,4.21
1630411859171,4.96
1630411859187,4.87
1630411859203,4.41
1630411859218,4.05
1630411859234,4.2
1630411859250,4.95
1630411859265,6.11
1630411859281,7.44
1630411859296,8.6
1630411859312,9.41
1630411859328,9.81
1630411859343,9.84
1630411859359,9.59
1630411859375,9.18
1630411859390,8.63
1630411859406,7.96
1630411859421,7.23
1630411859437,6.51
1630411859453,5.82
1630411859468,5.21
1630411859484,4.62
1630411859500,3.93
1630411859515,3.12
1630411859531,2.18
1630411859546,1.19
1630411859562,0.29
1630411859578,-0.4
1630411859593,-0.9
1630411859609,-1.27
1630411859625,-1.7
1630411859640,-2.3
1630411859656,-3.1
1630411859671,-4.0
1630411859687,-4.85
1630411859703,-5.59
1630411859718,-6.25
1630411859734,-6.92
1630411859750,-7.67
1630411859765,-8.55
1630411859781,-9.53
1630411859796,-10.52
1630411859812,-11.37
1630411859828,-11.96
1630411859843,-12.09
1630411859859,-11.58
1630411859875,-10.32
1630411859890,-8.35
1630411859906,-5.86
1630411859921,-3.31
1630411859937,-1.08
1630411859953,0.44
1630411859968,1.15
1630411859984,1.18
1630411860000,0.78
1630411860015,0.28
1630411860031,-0.06
1630411860046,-0.06
1630411860062,0.27
1630411860078,0.89
1630411860093,1.63
1630411860109,2.39
1630411860125,3.08
1630411860140,3.67
1630411860156,4.2
1630411860171,4.67
1630411860187,5.1
1630411860203,5.4
1630411860218,5.5
1630411860234,5.37
1630411860250,5.05
1630411860265,4.6
1630411860281,4.11
1630411860296,3.64
1630411860312,3.12
1630411860328,2.48
1630411860343,1.59
1630411860359,0.42
1630411860375,-0.93
1630411860390,-2.34
1630411860406,-3.61
1630411860421,-4.64
1630411860437,-5.37
1630411860453,-5.86
1630411860468,-6.18
1630411860484,-6.44
1630411860500,-6.74
1630411860515,-7.14
1630411860531,-7.72
1630411860546,-8.47
1630411860562,-9.3
1630411860578,-10.09
1630411860593,-10.64
1630411860609,-10.71
1630411860625,-10.1
1630411860640,-8.79
1630411860656,-6.92
1630411860671,-4.82
1630411860687,-2.85
1630411860703,-1.25
1630411860718,-0.17
1630411860734,0.48
1630411860750,0.92
1630411860765,1.38
1630411860781,1.96
1630411860796,2.68
1630411860812,3.47
1630411860828,4.23
1630411860843,4.91
1630411860859,5.38
1630411860875,5.68
1630411860890,5.81
1630411860906,5.82
1630411860921,5.73
1630411860937,5.57
1630411860953,5.35
1630411860968,5.01
1630411860984,4.53
1630411861000,3.87
1630411861015,3.13
1630411861031,2.46
1630411861046,1.95
1630411861062,1.64
1630411861078,1.46
1630411861093,1.28
1630411861109,0.91
1630411861125,0.3
1630411861140,-0.6
1630411861156,-1.67
1630411861171,-2.75
1630411861187,-3.67
1630411861203,-4.27
1630411861218,-4.58
1630411861234,-4.67
1630411861250,-4.71
1630411861265,-4.88
1630411861281,-5.28
1630411861296,-5.93
1630411861312,-6.81
1630411861328,-7.79
1630411861343,-8.68
1630411861359,-9.25
1630411861375,-9.3
1630411861390,-8.71
1630411861406,-7.43
1630411861421,-5.58
1630411861437,-3.43
1630411861453,-1.26
1630411861468,0.67
1630411861484,2.21
1630411861500,3.35
1630411861515,4.18
1630411861531,4.84
1630411861546,5.45
1630411861562,6.05
1630411861578,6.56
1630411861593,6.95
1630411861609,7.12
1630411861625,7.14
1630411861640,7.07
1630411861656,7.09
1630411861671,7.29
1630411861687,7.67
1630411861703,8.15
1630411861718,8.59
1630411861734,8.89
1630411861750,9.02
1630411861765,9.01
1630411861781,8.89
1630411861796,8.7
1630411861812,8.38
1630411861828,7.83
1630411861843,6.98
1630411861859,5.79
1630411861875,4.35
1630411861890,2.81
1630411861906,1.29
1630411861921,-0.13
1630411861937,-1.42
1630411861953,-2.68
1630411861968,-3.92
1630411861984,-5.15
1630411862000,-6.32
1630411862015,-7.3
1630411862031,-7.93
1630411862046,-8.15
1630411862062,-8.01
1630411862078,-7.61
1630411862093,-7.24
1630411862109,-7.14
1630411862125,-7.51
1630411862140,-8.41
1630411862156,-9.72
1630411862171,-11.13
1630411862187,-12.26
1630411862203,-12.74
1630411862218,-12.35
1630411862234,-11.07
1630411862250,-9.07
1630411862265,-6.62
1630411862281,-4.07
1630411862296,-1.66
1630411862312,0.43
1630411862328,2.1
1630411862343,3.35
1630411862359,4.25
1630411862375,4.91
1630411862390,5.49
1630411862406,6.2
1630411862421,7.07
1630411862437,8.06
1630411862453,8.97
1630411862468,9.63
1630411862484,9.92
1630411862500,9.9
1630411862515,9.7
1630411862531,9.5
1630411862546,9.46
1630411862562,9.54
1630411862578,9.74
1630411862593,9.93
1630411862609,10.11
1630411862625,10.27
1630411862640,10.35
1630411862656,10.26
1630411862671,9.87
1630411862687,9.08
1630411862703,7.83
1630411862718,6.23
1630411862734,4.48
1630411862750,2.85
1630411862765,1.55
1630411862781,0.65
1630411862796,0.09
1630411862812,-0.25
1630411862828,-0.49
1630411862843,-0.7
1630411862859,-0.84
1630411862875,-0.88
1630411862890,-0.82
1630411862906,-0.67
1630411862921,-0.57
1630411862937,-0.65
1630411862953,-1.03
1630411862968,-1.81
1630411862984,-2.96
1630411863000,-4.36
1630411863015,-5.86
1630411863031,-7.34
1630411863046,-8.72
1630411863062,-9.93
1630411863078,-10.82
1630411863093,-11.16
1630411863109,-10.68
1630411863125,-9.18
1630411863140,-6.7
1630411863156,-3.58
1630411863171,-0.39
1630411863187,2.31
1630411863203,4.15
1630411863218,5.08
1630411863234,5.33
1630411863250,5.23
1630411863265,5.07
1630411863281,4.95
1630411863296,4.87
1630411863312,4.76
1630411863328,4.56
1630411863343,4.22
1630411863359,3.75
1630411863375,3.17
1630411863390,2.48
1630411863406,1.78
1630411863421,1.15
1630411863437,0.68
1630411863453,0.45
1630411863468,0.49
1630411863484,0.77
1630411863500,1.26
1630411863515,2.0
1630411863531,3.0
1630411863546,4.22
1630411863562,5.51
1630411863578,6.63
1630411863593,7.38
1630411863609,7.59
1630411863625,7.27
1630411863640,6.54
1630411863656,5.6
1630411863671,4.56
1630411863687,3.51
1630411863703,2.53
1630411863718,1.64
1630411863734,0.83
1630411863750,0.11
1630411863765,-0.61
1630411863781,-1.4
1630411863796,-2.28
1630411863812,-3.2
1630411863828,-4.02
1630411863843,-4.54
1630411863859,-4.71
1630411863875,-4.56
1630411863890,-4.27
1630411863906,-4.06
1630411863921,-4.12
1630411863937,-4.5
1630411863953,-5.16
1630411863968,-5.97
1630411863984,-6.74
1630411864000,-7.37
1630411864015,-7.67
1630411864031,-7.54
1630411864046,-6.93
1630411864062,-5.89
1630411864078,-4.54
1630411864093,-3.09
1630411864109,-1.7
1630411864125,-0.5
1630411864140,0.46
1630411864156,1.21
1630411864171,1.81
1630411864187,2.29
1630411864203,2.64
1630411864218,2.83
1630411864234,2.76
1630411864250,2.45
1630411864265,1.93
1630411864281,1.35
1630411864296,0.94
1630411864312,0.87
1630411864328,1.21
1630411864343,1.88
1630411864359,2.67
1630411864375,3.3
1630411864390,3.66
1630411864406,3.73
1630411864421,3.58
1630411864437,3.32
1630411864453,3.04
1630411864468,2.74
1630411864484,2.49
1630411864500,2.38
1630411864515,2.46
1630411864531,2.79
1630411864546,3.3
1630411864562,3.8
1630411864578,4.05
1630411864593,3.84
1630411864609,3.05
1630411864625,1.72
1630411864640,0.07
1630411864656,-1.66
1630411864671,-3.23
1630411864687,-4.51
1630411864703,-5.51
1630411864718,-6.28
1630411864734,-6.96
1630411864750,-7.63
1630411864765,-8.29
1630411864781,-8.88
1630411864796,-9.28
1630411864812,-9.27
1630411864828,-8.69
1630411864843,-7.46
1630411864859,-5.61
1630411864875,-3.39
1630411864890,-1.16
1630411864906,0.71
1630411864921,1.95
1630411864937,2.47
1630411864953,2.38
1630411864968,1.91
1630411864984,1.26
1630411865000,0.7
1630411865015,0.25
1630411865031,-0.03
1630411865046,-0.22
1630411865062,-0.34
1630411865078,-0.41
1630411865093,-0.36
1630411865109,-0.1
1630411865125,0.42
1630411865140,1.2
1630411865156,2.06
1630411865171,2.85
1630411865187,3.44
1630411865203,3.8
1630411865218,4.0
1630411865234,4.13
1630411865250,4.28
1630411865265,4.41
1630411865281,4.4
1630411865296,4.05
1630411865312,3.27
1630411865328,2.12
1630411865343,0.81
1630411865359,-0.4
1630411865375,-1.34
1630411865390,-1.9
1630411865406,-2.11
1630411865421,-2.09
1630411865437,-2.0
1630411865453,-1.91
1630411865468,-1.91
1630411865484,-2.04
1630411865500,-2.27
1630411865515,-2.66
1630411865531,-3.2
1630411865546,-3.89
1630411865562,-4.71
1630411865578,-5.61
1630411865593,-6.63
1630411865609,-7.75
1630411865625,-8.95
1630411865640,-10.06
1630411865656,-10.95
1630411865671,-11.35
1630411865687,-11.08
1630411865703,-10.08
1630411865718,-8.41
1630411865734,-6.34
1630411865750,-4.15
1630411865765,-2.08
1630411865781,-0.23
1630411865796,1.34
1630411865812,2.71
1630411865828,3.84
1630411865843,4.68
1630411865859,5.25
1630411865875,5.49
1630411865890,5.5
1630411865906,5.41
1630411865921,5.33
1630411865937,5.34
1630411865953,5.44
1630411865968,5.55
1630411865984,5.57
1630411866000,5.56
1630411866015,5.55
1630411866031,5.64
1630411866046,5.81
1630411866062,5.94
1630411866078,5.95
1630411866093,5.76
1630411866109,5.38
1630411866125,4.86
1630411866140,4.38
1630411866156,3.98
1630411866171,3.71
1630411866187,3.55
1630411866203,3.33
1630411866218,2.98
1630411866234,2.39
1630411866250,1.57
1630411866265,0.58
1630411866281,-0.39
1630411866296,-1.26
1630411866312,-1.98
1630411866328,-2.56
1630411866343,-3.12
1630411866359,-3.66
1630411866375,-4.16
1630411866390,-4.48
1630411866406,-4.59
1630411866421,-4.45
1630411866437,-4.24
1630411866453,-4.06
1630411866468,-4.09
1630411866484,-4.42
1630411866500,-5.02
1630411866515,-5.85
1630411866531,-6.75
1630411866546,-7.53
1630411866562,-7.98
1630411866578,-7.91
1630411866593,-7.22
1630411866609,-5.94
1630411866625,-4.28
1630411866640,-2.44
1630411866656,-0.69
1630411866671,0.79
1630411866687,1.92
1630411866703,2.65
1630411866718,3.07
1630411866734,3.31
1630411866750,3.47
1630411866765,3.61
1630411866781,3.67
1630411866796,3.56
1630411866812,3.2
1630411866828,2.57
1630411866843,1.79
1630411866859,1.05
1630411866875,0.52
1630411866890,0.36
1630411866906,0.53
1630411866921,0.95
1630411866937,1.49
1630411866953,2.06
1630411866968,2.57
1630411866984,3.0
1630411867000,3.36
1630411867015,3.63
1630411867031,3.85
1630411867046,3.96
1630411867062,3.94
1630411867078,3.73
1630411867093,3.35
1630411867109,2.88
1630411867125,2.39
1630411867140,2.03
1630411867156,1.83
1630411867171,1.8
1630411867187,1.8
1630411867203,1.71
1630411867218,1.38
1630411867234,0.76
1630411867250,-0.1
1630411867265,-1.13
1630411867281,-2.21
1630411867296,-3.27
1630411867312,-4.17
1630411867328,-4.88
1630411867343,-5.41
1630411867359,-5.77
1630411867375,-6.06
1630411867390,-6.36
1630411867406,-6.77
1630411867421,-7.25
1630411867437,-7.76
1630411867453,-8.11
1630411867468,-8.11
1630411867484,-7.64
1630411867500,-6.62
1630411867515,-5.13
1630411867531,-3.25
1630411867546,-1.19
1630411867562,0.86
1630411867578,2.66
1630411867593,4.0
1630411867609,4.76
1630411867625,4.9
1630411867640,4.49
1630411867656,3.69
1630411867671,2.79
1630411867687,2.02
1630411867703,1.58
1630411867718,1.52
1630411867734,1.79
1630411867750,2.2
1630411867765,2.57
1630411867781,2.79
1630411867796,2.76
1630411867812,2.52
1630411867828,2.17
1630411867843,1.8
1630411867859,1.45
1630411867875,1.12
1630411867890,0.79
1630411867906,0.38
1630411867921,-0.11
1630411867937,-0.63
1630411867953,-1.08
1630411867968,-1.39
1630411867984,-1.51
1630411868000,-1.43
1630411868015,-1.22
1630411868031,-0.92
1630411868046,-0.65
1630411868062,-0.43
1630411868078,-0.35
1630411868093,-0.43
1630411868109,-0.64
1630411868125,-0.96
1630411868140,-1.26
1630411868156,-1.45
1630411868171,-1.52
1630411868187,-1.57
1630411868203,-1.7
1630411868218,-2.08
1630411868234,-2.79
1630411868250,-3.84
1630411868265,-5.12
1630411868281,-6.4
1630411868296,-7.39
1630411868312,-7.83
1630411868328,-7.58
1630411868343,-6.64
1630411868359,-5.2
1630411868375,-3.61
1630411868390,-2.21
1630411868406,-1.24
1630411868421,-0.74
1630411868437,-0.57
1630411868453,-0.52
1630411868468,-0.42
1630411868484,-0.16
1630411868500,0.21
1630411868515,0.61
1630411868531,0.96
1630411868546,1.21
1630411868562,1.33
1630411868578,1.33
1630411868593,1.25
1630411868609,1.12
1630411868625,0.98
1630411868640,0.83
1630411868656,0.7
1630411868671,0.56
1630411868687,0.41
1630411868703,0.24
1630411868718,0.02
1630411868734,-0.31
1630411868750,-0.86
1630411868765,-1.71
1630411868781,-2.9
1630411868796,-4.36
1630411868812,-5.87
1630411868828,-7.16
1630411868843,-7.97
1630411868859,-8.17
1630411868875,-7.76
1630411868890,-6.91
1630411868906,-5.77
1630411868921,-4.55
1630411868937,-3.4
1630411868953,-2.45
1630411868968,-1.83
1630411868984,-1.61
1630411869000,-1.81
1630411869015,-2.39
1630411869031,-3.2
1630411869046,-3.99
1630411869062,-4.55
1630411869078,-4.71
1630411869093,-4.4
1630411869109,-3.66
1630411869125,-2.66
1630411869140,-1.56
1630411869156,-0.54
1630411869171,0.23
1630411869187,0.69
1630411869203,0.86
1630411869218,0.85
1630411869234,0.79
1630411869250,0.83
1630411869265,0.99
1630411869281,1.25
1630411869296,1.55
1630411869312,1.78
1630411869328,1.94
1630411869343,2.08
1630411869359,2.28
1630411869375,2.59
1630411869390,2.94
1630411869406,3.18
1630411869421,3.17
1630411869437,2.89
1630411869453,2.42
1630411869468,1.88
1630411869484,1.4
1630411869500,0.98
1630411869515,0.62
1630411869531,0.29
1630411869546,-0.0
1630411869562,-0.2
1630411869578,-0.31
1630411869593,-0.31
1630411869609,-0.25
1630411869625,-0.19
1630411869640,-0.17
1630411869656,-0.22
1630411869671,-0.38
1630411869687,-0.69
1630411869703,-1.2
1630411869718,-1.88
1630411869734,-2.72
1630411869750,-3.59
1630411869765,-4.4
1630411869781,-5.13
1630411869796,-5.76
1630411869812,-6.24
1630411869828,-6.43
1630411869843,-6.18
1630411869859,-5.38
1630411869875,-4.09
1630411869890,-2.59
1630411869906,-1.25
1630411869921,-0.39
1630411869937,-0.12
1630411869953,-0.32
1630411869968,-0.73
1630411869984,-1.06
1630411870000,-1.17
1630411870015,-0.98
1630411870031,-0.52
1630411870046,0.23
1630411870062,1.3
1630411870078,2.69
1630411870093,4.31
1630411870109,5.94
1630411870125,7.26
1630411870140,8.03
1630411870156,8.14
1630411870171,7.67
1630411870187,6.86
1630411870203,5.98
1630411870218,5.22
1630411870234,4.66
1630411870250,4.19
1630411870265,3.71
1630411870281,3.18
1630411870296,2.62
1630411870312,2.12
1630411870328,1.79
1630411870343,1.65
1630411870359,1.6
1630411870375,1.52
1630411870390,1.26
1630411870406,0.74
1630411870421,0.08
1630411870437,-0.6
1630411870453,-1.15
1630411870468,-1.48
1630411870484,-1.63
1630411870500,-1.75
1630411870515,-1.99
1630411870531,-2.41
1630411870546,-3.01
1630411870562,-3.69
1630411870578,-4.42
1630411870593,-5.23
1630411870609,-6.22
1630411870625,-7.44
1630411870640,-8.83
1630411870656,-10.14
1630411870671,-11.0
1630411870687,-11.07
1630411870703,-10.14
1630411870718,-8.34
1630411870734,-5.98
1630411870750,-3.53
1630411870765,-1.41
1630411870781,0.06
1630411870796,0.81
1630411870812,0.9
1630411870828,0.55
1630411870843,0.04
1630411870859,-0.37
1630411870875,-0.42
1630411870890,0.04
1630411870906,0.99
1630411870921,2.28
1630411870937,3.69
1630411870953,4.93
1630411870968,5.82
1630411870984,6.25
1630411871000,6.2
1630411871015,5.79
1630411871031,5.16
1630411871046,4.46
1630411871062,3.85
1630411871078,3.43
1630411871093,3.23
1630411871109,3.17
1630411871125,3.17
1630411871140,3.15
1630411871156,3.09
1630411871171,3.01
1630411871187,2.95
1630411871203,2.91
1630411871218,2.85
1630411871234,2.71
1630411871250,2.48
1630411871265,2.23
1630411871281,2.03
1630411871296,1.89
1630411871312,1.8
1630411871328,1.66
1630411871343,1.33
1630411871359,0.72
1630411871375,-0.2
1630411871390,-1.28
1630411871406,-2.32
1630411871421,-3.14
1630411871437,-3.65
1630411871453,-3.9
1630411871468,-4.03
1630411871484,-4.22
1630411871500,-4.61
1630411871515,-5.24
1630411871531,-6.07
1630411871546,-6.95
1630411871562,-7.7
1630411871578,-8.13
1630411871593,-8.07
1630411871609,-7.42
1630411871625,-6.14
1630411871640,-4.35
1630411871656,-2.28
1630411871671,-0.27
1630411871687,1.33
1630411871703,2.32
1630411871718,2.67
1630411871734,2.49
1630411871750,2.0
1630411871765,1.43
1630411871781,0.94
1630411871796,0.64
1630411871812,0.58
1630411871828,0.74
1630411871843,1.16
1630411871859,1.77
1630411871875,2.52
1630411871890,3.31
1630411871906,4.01
1630411871921,4.51
1630411871937,4.76
1630411871953,4.77
1630411871968,4.66
1630411871984,4.52
1630411872000,4.45
1630411872015,4.49
1630411872031,4.66
1630411872046,4.96
1630411872062,5.42
1630411872078,6.04
1630411872093,6.84
1630411872109,7.78
1630411872125,8.79
1630411872140,9.7
1630411872156,10.41
1630411872171,10.87
1630411872187,11.07
1630411872203,11.02
1630411872218,10.7
1630411872234,10.02
1630411872250,8.95
1630411872265,7.53
1630411872281,5.8
1630411872296,3.93
1630411872312,1.99
1630411872328,0.04
1630411872343,-1.91
1630411872359,-3.82
1630411872375,-5.59
1630411872390,-7.05
1630411872406,-8.02
1630411872421,-8.44
1630411872437,-8.34
1630411872453,-7.97
1630411872468,-7.59
1630411872484,-7.41
1630411872500,-7.49
1630411872515,-7.75
1630411872531,-7.91
1630411872546,-7.75
1630411872562,-7.08
1630411872578,-5.9
1630411872593,-4.36
1630411872609,-2.72
1630411872625,-1.19
1630411872640,0.06
1630411872656,1.05
1630411872671,1.85
1630411872687,2.54
1630411872703,3.16
1630411872718,3.74
1630411872734,4.25
1630411872750,4.68
1630411872765,5.04
1630411872781,5.34
1630411872796,5.65
1630411872812,6.02
1630411872828,6.47
1630411872843,7.0
1630411872859,7.51
1630411872875,7.84
1630411872890,7.77
1630411872906,7.22
1630411872921,6.2
1630411872937,4.98
1630411872953,3.83
1630411872968,2.94
1630411872984,2.39
1630411873000,2.03
1630411873015,1.66
1630411873031,1.11
1630411873046,0.37
1630411873062,-0.46
1630411873078,-1.19
1630411873093,-1.67
1630411873109,-1.89
1630411873125,-1.85
1630411873140,-1.63
1630411873156,-1.29
1630411873171,-0.82
1630411873187,-0.25
1630411873203,0.33
1630411873218,0.82
1630411873234,1.07
1630411873250,0.98
1630411873265,0.48
1630411873281,-0.44
1630411873296,-1.73
1630411873312,-3.29
1630411873328,-4.99
1630411873343,-6.7
1630411873359,-8.32
1630411873375,-9.73
1630411873390,-10.88
1630411873406,-11.64
1630411873421,-11.91
1630411873437,-11.56
1630411873453,-10.51
1630411873468,-8.83
1630411873484,-6.66
1630411873500,-4.36
1630411873515,-2.17
1630411873531,-0.33
1630411873546,1.15
1630411873562,2.27
1630411873578,3.11
1630411873593,3.71
1630411873609,4.1
1630411873625,4.31
1630411873640,4.39
1630411873656,4.4
1630411873671,4.36
1630411873687,4.27
1630411873703,4.08
1630411873718,3.8
1630411873734,3.47
1630411873750,3.17
1630411873765,3.0
1630411873781,3.03
1630411873796,3.23
1630411873812,3.57
1630411873828,4.0
1630411873843,4.43
1630411873859,4.77
1630411873875,4.92
1630411873890,4.7
1630411873906,4.08
1630411873921,3.11
1630411873937,1.97
1630411873953,0.9
1630411873968,0.02
1630411873984,-0.62
1630411874000,-1.11
1630411874015,-1.56
1630411874031,-2.05
1630411874046,-2.55
1630411874062,-3.0
1630411874078,-3.27
1630411874093,-3.33
1630411874109,-3.24
1630411874125,-3.13
1630411874140,-3.18
1630411874156,-3.53
1630411874171,-4.28
1630411874187,-5.4
1630411874203,-6.76
1630411874218,-8.18
1630411874234,-9.37
1630411874250,-10.09
1630411874265,-10.19
1630411874281,-9.66
1630411874296,-8.55
1630411874312,-7.05
1630411874328,-5.31
1630411874343,-3.56
1630411874359,-1.96
1630411874375,-0.61
1630411874390,0.4
1630411874406,1.13
1630411874421,1.69
1630411874437,2.26
1630411874453,2.97
1630411874468,3.9
1630411874484,4.9
1630411874500,5.82
1630411874515,6.5
1630411874531,6.9
1630411874546,7.13
1630411874562,7.32
1630411874578,7.5
1630411874593,7.64
1630411874609,7.63
1630411874625,7.39
1630411874640,6.94
1630411874656,6.37
1630411874671,5.86
1630411874687,5.47
1630411874703,5.17
1630411874718,4.87
1630411874734,4.47
1630411874750,3.96
1630411874765,3.4
1630411874781,2.86
1630411874796,2.37
1630411874812,1.86
1630411874828,1.24
1630411874843,0.39
1630411874859,-0.69
1630411874875,-1.9
1630411874890,-3.11
1630411874906,-4.13
1630411874921,-4.87
1630411874937,-5.31
1630411874953,-5.5
1630411874968,-5.5
1630411874984,-5.38
1630411875000,-5.22
1630411875015,-5.03
1630411875031,-4.91
1630411875046,-4.95
1630411875062,-5.2
1630411875078,-5.72
1630411875093,-6.42
1630411875109,-7.19
1630411875125,-7.84
1630411875140,-8.15
1630411875156,-7.98
1630411875171,-7.27
1630411875187,-6.07
1630411875203,-4.55
1630411875218,-2.93
1630411875234,-1.41
1630411875250,-0.15
1630411875265,0.84
1630411875281,1.69
1630411875296,2.61
1630411875312,3.72
1630411875328,5.05
1630411875343,6.45
1630411875359,7.66
1630411875375,8.49
1630411875390,8.83
1630411875406,8.76
1630411875421,8.45
1630411875437,8.13
1630411875453,7.9
1630411875468,7.74
1630411875484,7.59
1630411875500,7.32
1630411875515,6.96
1630411875531,6.59
1630411875546,6.35
1630411875562,6.33
1630411875578,6.51
1630411875593,6.77
1630411875609,6.91
1630411875625,6.79
1630411875640,6.3
1630411875656,5.46
1630411875671,4.35
1630411875687,3.07
1630411875703,1.74
1630411875718,0.45
1630411875734,-0.75
1630411875750,-1.82
1630411875765,-2.76
1630411875781,-3.62
1630411875796,-4.42
1630411875812,-5.18
1630411875828,-5.88
1630411875843,-6.47
1630411875859,-6.97
1630411875875,-7.36
1630411875890,-7.67
1630411875906,-7.9
1630411875921,-8.08
1630411875937,-8.21
1630411875953,-8.35
1630411875968,-8.57
1630411875984,-8.85
1630411876000,-9.14
1630411876015,-9.28
1630411876031,-9.02
1630411876046,-8.17
1630411876062,-6.66
1630411876078,-4.61
1630411876093,-2.33
1630411876109,-0.17
1630411876125,1.62
1630411876140,2.87
1630411876156,3.61
1630411876171,3.91
1630411876187,3.94
1630411876203,3.85
1630411876218,3.74
1630411876234,3.71
1630411876250,3.78
1630411876265,3.97
1630411876281,4.25
1630411876296,4.64
1630411876312,5.15
1630411876328,5.81
1630411876343,6.65
1630411876359,7.57
1630411876375,8.42
1630411876390,9.02
1630411876406,9.29
1630411876421,9.19
1630411876437,8.82
1630411876453,8.22
1630411876468,7.44
1630411876484,6.55
1630411876500,5.62
1630411876515,4.85
1630411876531,4.39
1630411876546,4.33
1630411876562,4.6
1630411876578,5.02
1630411876593,5.28
1630411876609,5.15
1630411876625,4.55
1630411876640,3.56
1630411876656,2.41
1630411876671,1.31
1630411876687,0.42
1630411876703,-0.21
1630411876718,-0.68
1630411876734,-1.15
1630411876750,-1.77
1630411876765,-2.63
1630411876781,-3.7
1630411876796,-4.83
1630411876812,-5.94
1630411876828,-6.93
1630411876843,-7.81
1630411876859,-8.67
1630411876875,-9.52
1630411876890,-10.38
1630411876906,-11.22
1630411876921,-11.98
1630411876937,-12.59
1630411876953,-12.98
1630411876968,-13.0
1630411876984,-12.5
1630411877000,-11.33
1630411877015,-9.48
1630411877031,-7.1
1630411877046,-4.54
1630411877062,-2.16
1630411877078,-0.26
1630411877093,1.12
1630411877109,2.05
1630411877125,2.73
1630411877140,3.29
1630411877156,3.82
1630411877171,4.26
1630411877187,4.54
1630411877203,4.64
1630411877218,4.62
1630411877234,4.57
1630411877250,4.58
1630411877265,4.7
1630411877281,4.91
1630411877296,5.23
1630411877312,5.57
1630411877328,5.95
1630411877343,6.35
1630411877359,6.76
1630411877375,7.15
1630411877390,7.51
1630411877406,7.76
1630411877421,7.87
1630411877437,7.81
1630411877453,7.56
1630411877468,7.2
1630411877484,6.79
1630411877500,6.34
1630411877515,5.87
1630411877531,5.36
1630411877546,4.78
1630411877562,4.2
1630411877578,3.63
1630411877593,3.16
1630411877609,2.73
1630411877625,2.23
1630411877640,1.46
1630411877656,0.31
1630411877671,-1.17
1630411877687,-2.78
1630411877703,-4.2
1630411877718,-5.16
1630411877734,-5.55
1630411877750,-5.46
1630411877765,-5.13
1630411877781,-4.84
1630411877796,-4.8
1630411877812,-5.12
1630411877828,-5.77
1630411877843,-6.64
1630411877859,-7.65
1630411877875,-8.66
1630411877890,-9.48
1630411877906,-9.96
1630411877921,-9.92
1630411877937,-9.29
1630411877953,-8.16
1630411877968,-6.76
1630411877984,-5.36
1630411878000,-4.19
1630411878015,-3.35
1630411878031,-2.75
1630411878046,-2.22
1630411878062,-1.5
1630411878078,-0.5
1630411878093,0.84
1630411878109,2.34
1630411878125,3.85
1630411878140,5.2
1630411878156,6.32
1630411878171,7.21
1630411878187,7.91
1630411878203,8.41
1630411878218,8.7
1630411878234,8.66
1630411878250,8.25
1630411878265,7.49
1630411878281,6.54
1630411878296,5.53
1630411878312,4.57
1630411878328,3.69
1630411878343,2.84
1630411878359,2.0
1630411878375,1.16
1630411878390,0.42
1630411878406,-0.13
1630411878421,-0.4
1630411878437,-0.41
1630411878453,-0.23
1630411878468,-0.0
1630411878484,0.19
1630411878500,0.22
1630411878515,0.05
1630411878531,-0.29
1630411878546,-0.78
1630411878562,-1.34
1630411878578,-1.94
1630411878593,-2.44
1630411878609,-2.8
1630411878625,-3.0
1630411878640,-3.15
1630411878656,-3.37
1630411878671,-3.85
1630411878687,-4.7
1630411878703,-5.94
1630411878718,-7.44
1630411878734,-8.87
1630411878750,-9.91
1630411878765,-10.24
1630411878781,-9.66
1630411878796,-8.2
1630411878812,-6.06
1630411878828,-3.68
1630411878843,-1.48
1630411878859,0.15
1630411878875,1.03
1630411878890,1.17
1630411878906,0.76
1630411878921,0.09
1630411878937,-0.58
1630411878953,-1.01
1630411878968,-1.17
1630411878984,-1.02
1630411879000,-0.63
1630411879015,-0.12
1630411879031,0.39
1630411879046,0.87
1630411879062,1.32
1630411879078,1.74
1630411879093,2.11
1630411879109,2.36
1630411879125,2.46
1630411879140,2.38
1630411879156,2.16
1630411879171,1.91
1630411879187,1.77
1630411879203,1.83
1630411879218,2.11
1630411879234,2.51
1630411879250,2.88
1630411879265,3.06
1630411879281,2.93
1630411879296,2.47
1630411879312,1.71
1630411879328,0.73
1630411879343,-0.37
1630411879359,-1.52
1630411879375,-2.62
1630411879390,-3.7
1630411879406,-4.72
1630411879421,-5.69
1630411879437,-6.62
1630411879453,-7.52
1630411879468,-8.39
1630411879484,-9.22
1630411879500,-9.93
1630411879515,-10.33
1630411879531,-10.2
1630411879546,-9.36
1630411879562,-7.82
1630411879578,-5.8
1630411879593,-3.63
1630411879609,-1.67
1630411879625,-0.19
1630411879640,0.8
1630411879656,1.42
1630411879671,1.91
1630411879687,2.49
1630411879703,3.25
1630411879718,4.14
1630411879734,5.05
1630411879750,5.89
1630411879765,6.54
1630411879781,7.01
1630411879796,7.31
1630411879812,7.45
1630411879828,7.44
1630411879843,7.26
1630411879859,6.89
1630411879875,6.32
1630411879890,5.58
1630411879906,4.78
1630411879921,4.06
1630411879937,3.49
1630411879953,3.08
1630411879968,2.8
1630411879984,2.58
1630411880000,2.33
1630411880015,1.95
1630411880031,1.33
1630411880046,0.52
1630411880062,-0.43
1630411880078,-1.43
1630411880093,-2.38
1630411880109,-3.24
1630411880125,-3.97
1630411880140,-4.64
1630411880156,-5.26
1630411880171,-5.88
1630411880187,-6.54
1630411880203,-7.23
1630411880218,-8.11
1630411880234,-9.25
1630411880250,-10.66
1630411880265,-12.26
1630411880281,-13.74
1630411880296,-14.64
1630411880312,-14.62
1630411880328,-13.48
1630411880343,-11.38
1630411880359,-8.71
1630411880375,-5.95
1630411880390,-3.55
1630411880406,-1.76
1630411880421,-0.55
1630411880437,0.29
1630411880453,1.02
1630411880468,1.88
1630411880484,3.02
1630411880500,4.42
1630411880515,5.97
1630411880531,7.45
1630411880546,8.69
1630411880562,9.59
1630411880578,10.11
1630411880593,10.33
1630411880609,10.3
1630411880625,10.09
1630411880640,9.71
1630411880656,9.21
1630411880671,8.61
1630411880687,8.03
1630411880703,7.65
1630411880718,7.5
1630411880734,7.61
1630411880750,7.8
1630411880765,7.86
1630411880781,7.57
1630411880796,6.93
1630411880812,6.06
1630411880828,5.21
1630411880843,4.58
1630411880859,4.18
1630411880875,3.87
1630411880890,3.39
1630411880906,2.48
1630411880921,1.09
1630411880937,-0.59
1630411880953,-2.32
1630411880968,-3.8
1630411880984,-4.86
1630411881000,-5.55
1630411881015,-5.98
1630411881031,-6.37
1630411881046,-6.9
1630411881062,-7.63
1630411881078,-8.6
1630411881093,-9.7
1630411881109,-10.85
1630411881125,-11.88
1630411881140,-12.67
1630411881156,-13.02
1630411881171,-12.73
1630411881187,-11.72
1630411881203,-10.0
1630411881218,-7.72
1630411881234,-5.16
1630411881250,-2.66
1630411881265,-0.47
1630411881281,1.24
1630411881296,2.54
1630411881312,3.56
1630411881328,4.43
1630411881343,5.28
1630411881359,6.11
1630411881375,6.89
1630411881390,7.55
1630411881406,8.09
1630411881421,8.5
1630411881437,8.84
1630411881453,9.12
1630411881468,9.3
1630411881484,9.37
1630411881500,9.26
1630411881515,9.0
1630411881531,8.69
1630411881546,8.49
1630411881562,8.45
1630411881578,8.52
1630411881593,8.57
1630411881609,8.33
1630411881625,7.75
1630411881640,6.84
1630411881656,5.79
1630411881671,4.81
1630411881687,4.03
1630411881703,3.38
1630411881718,2.75
1630411881734,2.03
1630411881750,1.2
1630411881765,0.41
1630411881781,-0.18
1630411881796,-0.45
1630411881812,-0.41
1630411881828,-0.17
1630411881843,0.14
1630411881859,0.37
1630411881875,0.47
1630411881890,0.37
1630411881906,0.06
1630411881921,-0.51
1630411881937,-1.32
1630411881953,-2.33
1630411881968,-3.37
1630411881984,-4.33
1630411882000,-5.08
1630411882015,-5.67
1630411882031,-6.27
1630411882046,-7.05
1630411882062,-8.21
1630411882078,-9.72
1630411882093,-11.4
1630411882109,-12.86
1630411882125,-13.73
1630411882140,-13.71
1630411882156,-12.73
1630411882171,-10.94
1630411882187,-8.66
1630411882203,-6.26
1630411882218,-4.03
1630411882234,-2.15
1630411882250,-0.58
1630411882265,0.79
1630411882281,2.08
1630411882296,3.37
1630411882312,4.66
1630411882328,5.86
1630411882343,6.93
1630411882359,7.85
1630411882375,8.61
1630411882390,9.18
1630411882406,9.5
1630411882421,9.51
1630411882437,9.18
1630411882453,8.55
1630411882468,7.79
1630411882484,7.06
1630411882500,6.53
1630411882515,6.24
1630411882531,6.05
1630411882546,5.81
1630411882562,5.36
1630411882578,4.68
1630411882593,3.86
1630411882609,3.09
1630411882625,2.54
1630411882640,2.35
1630411882656,2.47
1630411882671,2.83
1630411882687,3.29
1630411882703,3.7
1630411882718,4.0
1630411882734,4.16
1630411882750,4.21
1630411882765,4.21
1630411882781,4.21
1630411882796,4.16
1630411882812,4.02
1630411882828,3.68
1630411882843,3.04
1630411882859,2.14
1630411882875,1.06
1630411882890,-0.08
1630411882906,-1.16
1630411882921,-2.21
1630411882937,-3.3
1630411882953,-4.57
1630411882968,-6.07
1630411882984,-7.74
1630411883000,-9.44
1630411883015,-11.0
1630411883031,-12.3
1630411883046,-13.21
1630411883062,-13.63
1630411883078,-13.46
1630411883093,-12.56
1630411883109,-10.85
1630411883125,-8.38
1630411883140,-5.4
1630411883156,-2.28
1630411883171,0.47
1630411883187,2.55
1630411883203,3.86
1630411883218,4.5
1630411883234,4.71
1630411883250,4.76
1630411883265,4.84
1630411883281,5.03
1630411883296,5.34
1630411883312,5.72
1630411883328,6.1
1630411883343,6.47
1630411883359,6.88
1630411883375,7.33
1630411883390,7.82
1630411883406,8.3
1630411883421,8.67
1630411883437,8.83
1630411883453,8.74
1630411883468,8.38
1630411883484,7.85
1630411883500,7.3
1630411883515,6.76
1630411883531,6.28
1630411883546,5.77
1630411883562,5.22
1630411883578,4.59
1630411883593,3.97
1630411883609,3.44
1630411883625,3.04
1630411883640,2.72
1630411883656,2.41
1630411883671,2.03
1630411883687,1.54
1630411883703,0.96
1630411883718,0.33
1630411883734,-0.33
1630411883750,-0.98
1630411883765,-1.6
1630411883781,-2.19
1630411883796,-2.8
1630411883812,-3.46
1630411883828,-4.23
1630411883843,-5.14
1630411883859,-6.14
1630411883875,-7.19
1630411883890,-8.21
1630411883906,-9.18
1630411883921,-10.1
1630411883937,-10.99
1630411883953,-11.74
1630411883968,-12.17
1630411883984,-12.06
1630411884000,-11.18
1630411884015,-9.53
1630411884031,-7.27
1630411884046,-4.77
1630411884062,-2.43
1630411884078,-0.61
1630411884093,0.53
1630411884109,0.98
1630411884125,0.91
1630411884140,0.56
1630411884156,0.09
1630411884171,-0.37
1630411884187,-0.72
1630411884203,-0.89
1630411884218,-0.8
1630411884234,-0.36
1630411884250,0.4
1630411884265,1.43
1630411884281,2.62
1630411884296,3.83
1630411884312,4.96
1630411884328,5.88
1630411884343,6.54
1630411884359,6.86
1630411884375,6.87
1630411884390,6.57
1630411884406,6.04
1630411884421,5.38
1630411884437,4.67
1630411884453,3.94
1630411884468,3.16
1630411884484,2.29
1630411884500,1.36
1630411884515,0.48
1630411884531,-0.25
1630411884546,-0.7
1630411884562,-0.9
1630411884578,-0.99
1630411884593,-1.19
1630411884609,-1.69
1630411884625,-2.57
1630411884640,-3.67
1630411884656,-4.75
1630411884671,-5.57
1630411884687,-5.99
1630411884703,-6.03
1630411884718,-5.89
1630411884734,-5.73
1630411884750,-5.78
1630411884765,-6.16
1630411884781,-6.94
1630411884796,-8.09
1630411884812,-9.43
1630411884828,-10.68
1630411884843,-11.51
1630411884859,-11.63
1630411884875,-10.9
1630411884890,-9.38
1630411884906,-7.29
1630411884921,-4.93
1630411884937,-2.57
1630411884953,-0.33
1630411884968,1.75
1630411884984,3.63
1630411885000,5.19
1630411885015,6.3
1630411885031,6.82
1630411885046,6.71
1630411885062,6.12
1630411885078,5.23
1630411885093,4.35
1630411885109,3.72
1630411885125,3.43
1630411885140,3.53
1630411885156,3.96
1630411885171,4.62
1630411885187,5.42
1630411885203,6.28
1630411885218,7.07
1630411885234,7.75
1630411885250,8.24
1630411885265,8.46
1630411885281,8.36
1630411885296,7.86
1630411885312,6.89
1630411885328,5.45
1630411885343,3.64
1630411885359,1.63
1630411885375,-0.36
1630411885390,-2.15
1630411885406,-3.62
1630411885421,-4.76
1630411885437,-5.64
1630411885453,-6.34
1630411885468,-6.89
1630411885484,-7.32
1630411885500,-7.56
1630411885515,-7.63
1630411885531,-7.57
1630411885546,-7.48
1630411885562,-7.49
1630411885578,-7.73
1630411885593,-8.29
1630411885609,-9.16
1630411885625,-10.31
1630411885640,-11.56
1630411885656,-12.67
1630411885671,-13.28
1630411885687,-13.06
1630411885703,-11.75
1630411885718,-9.37
1630411885734,-6.24
1630411885750,-2.82
1630411885765,0.39
1630411885781,3.07
1630411885796,5.12
1630411885812,6.7
1630411885828,7.97
1630411885843,9.0
1630411885859,9.77
1630411885875,10.16
1630411885890,10.09
1630411885906,9.57
1630411885921,8.71
1630411885937,7.68
1630411885953,6.67
1630411885968,5.75
1630411885984,4.93
1630411886000,4.16
1630411886015,3.42
1630411886031,2.67
1630411886046,2.0
1630411886062,1.46
1630411886078,1.16
1630411886093,1.17
1630411886109,1.46
1630411886125,1.94
1630411886140,2.5
1630411886156,2.98
1630411886171,3.28
1630411886187,3.33
1630411886203,3.13
1630411886218,2.8
1630411886234,2.45
1630411886250,2.12
1630411886265,1.83
1630411886281,1.52
1630411886296,1.07
1630411886312,0.44
1630411886328,-0.36
1630411886343,-1.32
1630411886359,-2.38
1630411886375,-3.49
1630411886390,-4.69
1630411886406,-5.94
1630411886421,-7.17
1630411886437,-8.25
1630411886453,-9.05
1630411886468,-9.49
1630411886484,-9.67
1630411886500,-9.81
1630411886515,-10.03
1630411886531,-10.37
1630411886546,-10.64
1630411886562,-10.54
1630411886578,-9.79
1630411886593,-8.23
1630411886609,-6.03
1630411886625,-3.58
1630411886640,-1.34
1630411886656,0.32
1630411886671,1.26
1630411886687,1.61
1630411886703,1.67
1630411886718,1.82
1630411886734,2.36
1630411886750,3.35
1630411886765,4.71
1630411886781,6.21
1630411886796,7.6
1630411886812,8.69
1630411886828,9.41
1630411886843,9.77
1630411886859,9.84
1630411886875,9.72
1630411886890,9.45
1630411886906,9.11
1630411886921,8.71
1630411886937,8.3
1630411886953,7.92
1630411886968,7.6
1630411886984,7.39
1630411887000,7.21
1630411887015,7.02
1630411887031,6.71
1630411887046,6.21
1630411887062,5.48
1630411887078,4.61
1630411887093,3.65
1630411887109,2.71
1630411887125,1.83
1630411887140,0.95
1630411887156,0.03
1630411887171,-0.99
1630411887187,-2.1
1630411887203,-3.2
1630411887218,-4.15
1630411887234,-4.81
1630411887250,-5.13
1630411887265,-5.12
1630411887281,-4.91
1630411887296,-4.68
1630411887312,-4.62
1630411887328,-4.8
1630411887343,-5.24
1630411887359,-5.88
1630411887375,-6.62
1630411887390,-7.41
1630411887406,-8.23
1630411887421,-9.09
1630411887437,-9.89
1630411887453,-10.43
1630411887468,-10.41
1630411887484,-9.56
1630411887500,-7.84
1630411887515,-5.43
1630411887531,-2.76
1630411887546,-0.24
1630411887562,1.75
1630411887578,3.13
1630411887593,3.99
1630411887609,4.47
1630411887625,4.72
1630411887640,4.81
1630411887656,4.81
1630411887671,4.7
1630411887687,4.49
1630411887703,4.16
1630411887718,3.68
1630411887734,3.1
1630411887750,2.5
1630411887765,2.06
1630411887781,1.94
1630411887796,2.32
1630411887812,3.13
1630411887828,4.25
1630411887843,5.46
1630411887859,6.56
1630411887875,7.43
1630411887890,8.01
1630411887906,8.24
1630411887921,8.08
1630411887937,7.49
1630411887953,6.5
1630411887968,5.29
1630411887984,4.12
1630411888000,3.24
1630411888015,2.84
1630411888031,2.86
1630411888046,3.1
1630411888062,3.29
1630411888078,3.2
1630411888093,2.74
1630411888109,1.94
1630411888125,0.9
1630411888140,-0.31
1630411888156,-1.56
1630411888171,-2.82
1630411888187,-4.01
1630411888203,-4.99
1630411888218,-5.63
1630411888234,-5.84
1630411888250,-5.62
1630411888265,-5.1
1630411888281,-4.59
1630411888296,-4.4
1630411888312,-4.82
1630411888328,-5.92
1630411888343,-7.46
1630411888359,-9.03
1630411888375,-10.17
1630411888390,-10.42
1630411888406,-9.64
1630411888421,-7.97
1630411888437,-5.74
1630411888453,-3.41
1630411888468,-1.31
1630411888484,0.31
1630411888500,1.36
1630411888515,1.92
1630411888531,2.11
1630411888546,2.11
1630411888562,2.06
1630411888578,2.1
1630411888593,2.27
1630411888609,2.55
1630411888625,2.9
1630411888640,3.22
1630411888656,3.43
1630411888671,3.53
1630411888687,3.55
1630411888703,3.61
1630411888718,3.85
1630411888734,4.35
1630411888750,5.14
1630411888765,6.11
1630411888781,7.09
1630411888796,7.9
1630411888812,8.37
1630411888828,8.48
1630411888843,8.24
1630411888859,7.74
1630411888875,7.02
1630411888890,6.11
1630411888906,5.07
1630411888921,4.03
1630411888937,3.09
1630411888953,2.36
1630411888968,1.93
1630411888984,1.82
1630411889000,1.99
1630411889015,2.3
1630411889031,2.58
1630411889046,2.63
1630411889062,2.35
1630411889078,1.69
1630411889093,0.66
1630411889109,-0.54
1630411889125,-1.72
1630411889140,-2.74
1630411889156,-3.58
1630411889171,-4.29
1630411889187,-5.0
1630411889203,-5.76
1630411889218,-6.55
1630411889234,-7.39
1630411889250,-8.21
1630411889265,-8.98
1630411889281,-9.66
1630411889296,-10.11
