timestamp,bvp
1629456577000,1.38
1629456577015,1.79
1629456577031,2.03
1629456577046,2.08
1629456577062,1.97
1629456577078,1.79
1629456577093,1.63
1629456577109,1.61
1629456577125,1.77
1629456577140,2.16
1629456577156,2.75
1629456577171,3.45
1629456577187,4.1
1629456577203,4.53
1629456577218,4.61
1629456577234,4.3
1629456577250,3.73
1629456577265,3.08
1629456577281,2.56
1629456577296,2.28
1629456577312,2.22
1629456577328,2.28
1629456577343,2.33
1629456577359,2.28
1629456577375,2.07
1629456577390,1.7
1629456577406,1.2
1629456577421,0.61
1629456577437,-0.04
1629456577453,-0.68
1629456577468,-1.22
1629456577484,-1.62
1629456577500,-1.86
1629456577515,-1.97
1629456577531,-1.98
1629456577546,-1.91
1629456577562,-1.81
1629456577578,-1.74
1629456577593,-1.84
1629456577609,-2.27
1629456577625,-3.17
1629456577640,-4.53
1629456577656,-6.16
1629456577671,-7.69
1629456577687,-8.67
1629456577703,-8.73
1629456577718,-7.73
1629456577734,-5.87
1629456577750,-3.64
1629456577765,-1.7
1629456577781,-0.63
1629456577796,-0.66
1629456577812,-1.59
1629456577828,-2.79
1629456577843,-3.52
1629456577859,-3.25
1629456577875,-1.97
1629456577890,-0.17
1629456577906,1.31
1629456577921,1.74
1629456577937,0.83
1629456577953,-1.05
1629456577968,-3.04
1629456577984,-4.12
1629456578000,-3.62
1629456578015,-1.42
1629456578031,1.88
1629456578046,5.2
1629456578062,7.24
1629456578078,6.79
1629456578093,3.07
1629456578109,-3.89
1629456578125,-12.85
1629456578140,-21.27
1629456578156,-25.64
1629456578171,-22.38
1629456578187,-9.22
1629456578203,13.69
1629456578218,43.36
1629456578234,74.78
1629456578250,102.45
1629456578265,122.15
1629456578281,132.04
1629456578296,132.68
1629456578312,126.18
1629456578328,115.06
1629456578343,101.47
1629456578359,87.02
1629456578375,73.07
1629456578390,60.89
1629456578406,51.63
1629456578421,45.82
1629456578437,43.05
1629456578453,41.95
1629456578468,40.67
1629456578484,37.64
1629456578500,32.3
1629456578515,25.27
1629456578531,18.04
1629456578546,12.32
1629456578562,9.26
1629456578578,9.1
1629456578593,11.19
1629456578609,14.39
1629456578625,17.61
1629456578640,20.28
1629456578656,22.51
1629456578671,24.98
1629456578687,28.58
1629456578703,33.97
1629456578718,41.02
1629456578734,48.68
1629456578750,54.94
1629456578765,57.39
1629456578781,54.07
1629456578796,44.39
1629456578812,29.75
1629456578828,13.48
1629456578843,-0.14
1629456578859,-7.38
1629456578875,-6.39
1629456578890,2.18
1629456578906,15.53
1629456578921,29.94
1629456578937,41.99
1629456578953,49.44
1629456578968,51.37
1629456578984,47.82
1629456579000,39.21
1629456579015,26.14
1629456579031,9.4
1629456579046,-9.78
1629456579062,-29.78
1629456579078,-48.8
1629456579093,-65.31
1629456579109,-78.37
1629456579125,-87.71
1629456579140,-93.61
1629456579156,-96.58
1629456579171,-97.2
1629456579187,-96.05
1629456579203,-93.65
1629456579218,-90.41
1629456579234,-86.54
1629456579250,-82.02
1629456579265,-76.73
1629456579281,-70.61
1629456579296,-63.93
1629456579312,-57.29
1629456579328,-51.43
1629456579343,-46.88
1629456579359,-43.68
1629456579375,-41.35
1629456579390,-39.16
1629456579406,-36.47
1629456579421,-33.08
1629456579437,-29.29
1629456579453,-25.67
1629456579468,-22.79
1629456579484,-20.88
1629456579500,-19.72
1629456579515,-18.8
1629456579531,-17.52
1629456579546,-15.52
1629456579562,-12.85
1629456579578,-9.91
1629456579593,-7.23
1629456579609,-5.19
1629456579625,-3.9
1629456579640,-3.15
1629456579656,-2.64
1629456579671,-2.13
1629456579687,-1.57
1629456579703,-1.08
1629456579718,-0.8
1629456579734,-0.78
1629456579750,-0.98
1629456579765,-1.31
1629456579781,-1.74
1629456579796,-2.33
1629456579812,-3.22
1629456579828,-4.48
1629456579843,-6.15
1629456579859,-8.1
1629456579875,-10.23
1629456579890,-12.46
1629456579906,-14.87
1629456579921,-17.65
1629456579937,-21.04
1629456579953,-25.11
1629456579968,-29.66
1629456579984,-34.18
1629456580000,-37.96
1629456580015,-40.33
1629456580031,-40.91
1629456580046,-39.71
1629456580062,-37.06
1629456580078,-33.41
1629456580093,-29.16
1629456580109,-24.51
1629456580125,-19.53
1629456580140,-14.24
1629456580156,-8.74
1629456580171,-3.22
1629456580187,2.16
1629456580203,7.25
1629456580218,12.03
1629456580234,16.49
1629456580250,20.53
1629456580265,23.96
1629456580281,26.51
1629456580296,27.98
1629456580312,28.35
1629456580328,27.86
1629456580343,26.86
1629456580359,25.66
1629456580375,24.37
1629456580390,22.77
1629456580406,20.48
1629456580421,17.06
1629456580437,12.31
1629456580453,6.41
1629456580468,-0.03
1629456580484,-6.06
1629456580500,-10.72
1629456580515,-13.38
1629456580531,-14.0
1629456580546,-13.21
1629456580562,-12.05
1629456580578,-11.46
1629456580593,-11.9
1629456580609,-13.17
1629456580625,-14.64
1629456580640,-15.72
1629456580656,-16.29
1629456580671,-16.77
1629456580687,-17.76
1629456580703,-19.62
1629456580718,-22.12
1629456580734,-24.61
1629456580750,-26.38
1629456580765,-27.09
1629456580781,-26.95
1629456580796,-26.49
1629456580812,-26.17
1629456580828,-26.05
1629456580843,-25.78
1629456580859,-24.89
1629456580875,-23.13
1629456580890,-20.71
1629456580906,-18.24
1629456580921,-16.49
1629456580937,-16.04
1629456580953,-16.99
1629456580968,-18.99
1629456580984,-21.34
1629456581000,-23.34
1629456581015,-24.57
1629456581031,-25.08
1629456581046,-25.31
1629456581062,-25.85
1629456581078,-27.06
1629456581093,-28.93
1629456581109,-31.04
1629456581125,-32.84
1629456581140,-33.94
1629456581156,-34.29
1629456581171,-34.13
1629456581187,-33.77
1629456581203,-33.39
1629456581218,-32.89
1629456581234,-32.0
1629456581250,-30.37
1629456581265,-27.85
1629456581281,-24.49
1629456581296,-20.56
1629456581312,-16.49
1629456581328,-12.68
1629456581343,-9.46
1629456581359,-6.96
1629456581375,-5.14
1629456581390,-3.78
1629456581406,-2.61
1629456581421,-1.38
1629456581437,0.0
1629456581453,1.52
1629456581468,3.06
1629456581484,4.47
1629456581500,5.65
1629456581515,6.56
1629456581531,7.21
1629456581546,7.68
1629456581562,8.03
1629456581578,8.35
1629456581593,8.72
1629456581609,9.14
1629456581625,9.62
1629456581640,10.19
1629456581656,10.89
1629456581671,11.79
1629456581687,12.92
1629456581703,14.2
1629456581718,15.42
1629456581734,16.36
1629456581750,16.89
1629456581765,17.04
1629456581781,16.99
1629456581796,16.92
1629456581812,16.9
1629456581828,16.82
1629456581843,16.44
1629456581859,15.58
1629456581875,14.22
1629456581890,12.55
1629456581906,10.88
1629456581921,9.47
1629456581937,8.45
1629456581953,7.78
1629456581968,7.37
1629456581984,7.13
1629456582000,7.03
1629456582015,7.07
1629456582031,7.26
1629456582046,7.55
1629456582062,7.83
1629456582078,7.99
1629456582093,7.94
1629456582109,7.65
1629456582125,7.12
1629456582140,6.38
1629456582156,5.45
1629456582171,4.41
1629456582187,3.34
1629456582203,2.36
1629456582218,1.54
1629456582234,0.89
1629456582250,0.37
1629456582265,-0.1
1629456582281,-0.53
1629456582296,-0.89
1629456582312,-1.11
1629456582328,-1.14
1629456582343,-1.06
1629456582359,-1.0
1629456582375,-1.18
1629456582390,-1.75
1629456582406,-2.68
1629456582421,-3.82
1629456582437,-4.91
1629456582453,-5.71
1629456582468,-6.11
1629456582484,-6.15
1629456582500,-6.01
1629456582515,-5.94
1629456582531,-6.17
1629456582546,-6.81
1629456582562,-7.86
1629456582578,-9.17
1629456582593,-10.51
1629456582609,-11.64
1629456582625,-12.3
1629456582640,-12.32
1629456582656,-11.63
1629456582671,-10.24
1629456582687,-8.3
1629456582703,-6.03
1629456582718,-3.73
1629456582734,-1.67
1629456582750,-0.04
1629456582765,1.12
1629456582781,1.91
1629456582796,2.55
1629456582812,3.2
1629456582828,3.97
1629456582843,4.84
1629456582859,5.7
1629456582875,6.4
1629456582890,6.83
1629456582906,6.95
1629456582921,6.79
1629456582937,6.45
1629456582953,6.09
1629456582968,5.84
1629456582984,5.83
1629456583000,6.06
1629456583015,6.44
1629456583031,6.76
1629456583046,6.83
1629456583062,6.55
1629456583078,5.95
1629456583093,5.16
1629456583109,4.36
1629456583125,3.65
1629456583140,3.06
1629456583156,2.57
1629456583171,2.12
1629456583187,1.69
1629456583203,1.24
1629456583218,0.74
1629456583234,0.2
1629456583250,-0.44
1629456583265,-1.18
1629456583281,-2.0
1629456583296,-2.88
1629456583312,-3.73
1629456583328,-4.47
1629456583343,-4.99
1629456583359,-5.19
1629456583375,-4.98
1629456583390,-4.32
1629456583406,-3.27
1629456583421,-1.98
1629456583437,-0.64
1629456583453,0.54
1629456583468,1.48
1629456583484,2.19
1629456583500,2.76
1629456583515,3.37
1629456583531,4.05
1629456583546,4.76
1629456583562,5.39
1629456583578,5.78
1629456583593,5.88
1629456583609,5.75
1629456583625,5.51
1629456583640,5.3
1629456583656,5.15
1629456583671,5.05
1629456583687,4.95
1629456583703,4.83
1629456583718,4.71
1629456583734,4.59
1629456583750,4.46
1629456583765,4.26
1629456583781,3.94
1629456583796,3.5
1629456583812,3.05
1629456583828,2.66
1629456583843,2.4
1629456583859,2.23
1629456583875,2.05
1629456583890,1.8
1629456583906,1.48
1629456583921,1.1
1629456583937,0.72
1629456583953,0.31
1629456583968,-0.15
1629456583984,-0.69
1629456584000,-1.26
1629456584015,-1.73
1629456584031,-1.98
1629456584046,-1.94
1629456584062,-1.66
1629456584078,-1.31
1629456584093,-1.04
1629456584109,-1.0
1629456584125,-1.2
1629456584140,-1.57
1629456584156,-1.98
1629456584171,-2.24
1629456584187,-2.17
1629456584203,-1.63
1629456584218,-0.55
1629456584234,1.03
1629456584250,2.96
1629456584265,5.02
1629456584281,6.96
1629456584296,8.59
1629456584312,9.8
1629456584328,10.56
1629456584343,10.86
1629456584359,10.71
1629456584375,10.16
1629456584390,9.32
1629456584406,8.32
1629456584421,7.3
1629456584437,6.4
1629456584453,5.67
1629456584468,5.12
1629456584484,4.71
1629456584500,4.44
1629456584515,4.28
1629456584531,4.23
1629456584546,4.23
1629456584562,4.18
1629456584578,3.95
1629456584593,3.5
1629456584609,2.83
1629456584625,2.08
1629456584640,1.44
1629456584656,1.06
1629456584671,1.0
1629456584687,1.16
1629456584703,1.35
1629456584718,1.36
1629456584734,1.06
1629456584750,0.42
1629456584765,-0.45
1629456584781,-1.42
1629456584796,-2.34
1629456584812,-3.14
1629456584828,-3.78
1629456584843,-4.31
1629456584859,-4.81
1629456584875,-5.35
1629456584890,-6.04
1629456584906,-6.88
1629456584921,-7.78
1629456584937,-8.59
1629456584953,-9.07
1629456584968,-9.03
1629456584984,-8.37
1629456585000,-7.14
1629456585015,-5.49
1629456585031,-3.6
1629456585046,-1.65
1629456585062,0.24
1629456585078,1.97
1629456585093,3.49
1629456585109,4.75
1629456585125,5.7
1629456585140,6.29
1629456585156,6.48
1629456585171,6.26
1629456585187,5.67
1629456585203,4.87
1629456585218,4.07
1629456585234,3.49
1629456585250,3.27
1629456585265,3.44
1629456585281,3.87
1629456585296,4.35
1629456585312,4.72
1629456585328,4.86
1629456585343,4.79
1629456585359,4.54
1629456585375,4.16
1629456585390,3.64
1629456585406,3.0
1629456585421,2.29
1629456585437,1.63
1629456585453,1.12
1629456585468,0.77
1629456585484,0.49
1629456585500,0.11
1629456585515,-0.53
1629456585531,-1.48
1629456585546,-2.7
1629456585562,-4.08
1629456585578,-5.52
1629456585593,-6.96
1629456585609,-8.3
1629456585625,-9.42
1629456585640,-10.1
1629456585656,-10.14
1629456585671,-9.42
1629456585687,-8.0
1629456585703,-6.13
1629456585718,-4.11
1629456585734,-2.23
1629456585750,-0.62
1629456585765,0.73
1629456585781,1.92
1629456585796,3.05
1629456585812,4.17
1629456585828,5.23
1629456585843,6.15
1629456585859,6.86
1629456585875,7.33
1629456585890,7.55
1629456585906,7.55
1629456585921,7.39
1629456585937,7.14
1629456585953,6.88
1629456585968,6.69
1629456585984,6.66
1629456586000,6.77
1629456586015,6.98
1629456586031,7.19
1629456586046,7.3
1629456586062,7.23
1629456586078,6.96
1629456586093,6.53
1629456586109,5.98
1629456586125,5.35
1629456586140,4.66
1629456586156,3.94
1629456586171,3.19
1629456586187,2.46
1629456586203,1.8
1629456586218,1.26
1629456586234,0.84
1629456586250,0.48
1629456586265,0.02
1629456586281,-0.71
1629456586296,-1.85
1629456586312,-3.46
1629456586328,-5.4
1629456586343,-7.36
1629456586359,-8.95
1629456586375,-9.8
1629456586390,-9.74
1629456586406,-8.83
1629456586421,-7.3
1629456586437,-5.49
1629456586453,-3.69
1629456586468,-2.07
1629456586484,-0.69
1629456586500,0.47
1629456586515,1.47
1629456586531,2.32
1629456586546,3.05
1629456586562,3.67
1629456586578,4.22
1629456586593,4.74
1629456586609,5.28
1629456586625,5.83
1629456586640,6.34
1629456586656,6.71
1629456586671,6.87
1629456586687,6.76
1629456586703,6.4
1629456586718,5.84
1629456586734,5.21
1629456586750,4.61
1629456586765,4.14
1629456586781,3.83
1629456586796,3.62
1629456586812,3.42
1629456586828,3.14
1629456586843,2.73
1629456586859,2.19
1629456586875,1.54
1629456586890,0.78
1629456586906,-0.08
1629456586921,-1.04
1629456586937,-2.07
1629456586953,-3.1
1629456586968,-4.02
1629456586984,-4.72
1629456587000,-5.23
1629456587015,-5.66
1629456587031,-6.19
1629456587046,-6.99
1629456587062,-8.1
1629456587078,-9.41
1629456587093,-10.66
1629456587109,-11.51
1629456587125,-11.73
1629456587140,-11.23
1629456587156,-10.09
1629456587171,-8.5
1629456587187,-6.67
1629456587203,-4.75
1629456587218,-2.81
1629456587234,-0.89
1629456587250,0.97
1629456587265,2.7
1629456587281,4.18
1629456587296,5.28
1629456587312,5.99
1629456587328,6.33
1629456587343,6.38
1629456587359,6.23
1629456587375,5.97
1629456587390,5.68
1629456587406,5.45
1629456587421,5.33
1629456587437,5.33
1629456587453,5.4
1629456587468,5.48
1629456587484,5.49
1629456587500,5.42
1629456587515,5.25
1629456587531,5.04
1629456587546,4.79
1629456587562,4.48
1629456587578,4.01
1629456587593,3.27
1629456587609,2.18
1629456587625,0.75
1629456587640,-0.86
1629456587656,-2.43
1629456587671,-3.73
1629456587687,-4.67
1629456587703,-5.34
1629456587718,-6.0
1629456587734,-6.99
1629456587750,-8.53
1629456587765,-10.58
1629456587781,-12.86
1629456587796,-14.9
1629456587812,-16.22
1629456587828,-16.46
1629456587843,-15.51
1629456587859,-13.52
1629456587875,-10.79
1629456587890,-7.77
1629456587906,-4.88
1629456587921,-2.44
1629456587937,-0.56
1629456587953,0.83
1629456587968,1.96
1629456587984,3.03
1629456588000,4.16
1629456588015,5.27
1629456588031,6.19
1629456588046,6.71
1629456588062,6.78
1629456588078,6.51
1629456588093,6.1
1629456588109,5.75
1629456588125,5.55
1629456588140,5.46
1629456588156,5.38
1629456588171,5.25
1629456588187,5.06
1629456588203,4.93
1629456588218,4.94
1629456588234,5.11
1629456588250,5.36
1629456588265,5.55
1629456588281,5.54
1629456588296,5.21
1629456588312,4.53
1629456588328,3.54
1629456588343,2.31
1629456588359,0.93
1629456588375,-0.49
1629456588390,-1.88
1629456588406,-3.26
1629456588421,-4.68
1629456588437,-6.23
1629456588453,-7.93
1629456588468,-9.65
1629456588484,-11.16
1629456588500,-12.15
1629456588515,-12.32
1629456588531,-11.55
1629456588546,-9.89
1629456588562,-7.58
1629456588578,-4.96
1629456588593,-2.34
1629456588609,0.0
1629456588625,1.94
1629456588640,3.45
1629456588656,4.61
1629456588671,5.51
1629456588687,6.3
1629456588703,7.07
1629456588718,7.87
1629456588734,8.68
1629456588750,9.41
1629456588765,9.97
1629456588781,10.28
1629456588796,10.28
1629456588812,9.99
1629456588828,9.46
1629456588843,8.78
1629456588859,8.06
1629456588875,7.4
1629456588890,6.84
1629456588906,6.39
1629456588921,5.98
1629456588937,5.5
1629456588953,4.85
1629456588968,3.98
1629456588984,2.95
1629456589000,1.87
1629456589015,0.89
1629456589031,0.06
1629456589046,-0.71
1629456589062,-1.64
1629456589078,-2.95
1629456589093,-4.8
1629456589109,-7.18
1629456589125,-9.89
1629456589140,-12.61
1629456589156,-14.96
1629456589171,-16.58
1629456589187,-17.23
1629456589203,-16.76
1629456589218,-15.25
1629456589234,-12.91
1629456589250,-10.12
1629456589265,-7.3
1629456589281,-4.81
1629456589296,-2.85
1629456589312,-1.43
1629456589328,-0.35
1629456589343,0.64
1629456589359,1.72
1629456589375,2.94
1629456589390,4.2
1629456589406,5.32
1629456589421,6.12
1629456589437,6.52
1629456589453,6.58
1629456589468,6.43
1629456589484,6.21
1629456589500,6.0
1629456589515,5.82
1629456589531,5.64
1629456589546,5.46
1629456589562,5.29
1629456589578,5.22
1629456589593,5.25
1629456589609,5.32
1629456589625,5.28
1629456589640,4.93
1629456589656,4.1
1629456589671,2.77
1629456589687,1.02
1629456589703,-0.93
1629456589718,-2.87
1629456589734,-4.67
1629456589750,-6.31
1629456589765,-7.84
1629456589781,-9.36
1629456589796,-10.83
1629456589812,-12.12
1629456589828,-13.02
1629456589843,-13.3
1629456589859,-12.83
1629456589875,-11.61
1629456589890,-9.71
1629456589906,-7.3
1629456589921,-4.55
1629456589937,-1.67
1629456589953,1.13
1629456589968,3.67
1629456589984,5.83
1629456590000,7.57
1629456590015,8.9
1629456590031,9.9
1629456590046,10.63
1629456590062,11.15
1629456590078,11.52
1629456590093,11.79
1629456590109,12.0
1629456590125,12.11
1629456590140,12.04
1629456590156,11.68
1629456590171,11.01
1629456590187,10.17
1629456590203,9.41
1629456590218,8.96
1629456590234,8.89
1629456590250,9.03
1629456590265,9.06
1629456590281,8.63
1629456590296,7.62
1629456590312,6.13
1629456590328,4.47
1629456590343,2.97
1629456590359,1.79
1629456590375,0.94
1629456590390,0.25
1629456590406,-0.49
1629456590421,-1.44
1629456590437,-2.71
1629456590453,-4.29
1629456590468,-6.16
1629456590484,-8.16
1629456590500,-10.07
1629456590515,-11.56
1629456590531,-12.26
1629456590546,-11.93
1629456590562,-10.53
1629456590578,-8.25
1629456590593,-5.48
1629456590609,-2.63
1629456590625,0.01
1629456590640,2.36
1629456590656,4.47
1629456590671,6.45
1629456590687,8.36
1629456590703,10.13
1629456590718,11.63
1629456590734,12.73
1629456590750,13.37
1629456590765,13.61
1629456590781,13.61
1629456590796,13.56
1629456590812,13.63
1629456590828,13.89
1629456590843,14.31
1629456590859,14.74
1629456590875,15.05
1629456590890,15.12
1629456590906,14.94
1629456590921,14.58
1629456590937,14.12
1629456590953,13.65
1629456590968,13.19
1629456590984,12.72
1629456591000,12.12
1629456591015,11.32
1629456591031,10.25
1629456591046,8.93
1629456591062,7.44
1629456591078,5.89
1629456591093,4.36
1629456591109,2.89
1629456591125,1.46
1629456591140,-0.01
1629456591156,-1.6
1629456591171,-3.42
1629456591187,-5.48
1629456591203,-7.71
1629456591218,-9.94
1629456591234,-11.92
1629456591250,-13.38
1629456591265,-14.06
1629456591281,-13.86
1629456591296,-12.81
1629456591312,-11.12
1629456591328,-9.08
1629456591343,-6.98
1629456591359,-5.01
1629456591375,-3.22
1629456591390,-1.5
1629456591406,0.25
1629456591421,2.12
1629456591437,4.04
1629456591453,5.82
1629456591468,7.22
1629456591484,8.07
1629456591500,8.36
1629456591515,8.22
1629456591531,7.91
1629456591546,7.65
1629456591562,7.6
1629456591578,7.82
1629456591593,8.27
1629456591609,8.88
1629456591625,9.53
1629456591640,10.11
1629456591656,10.48
1629456591671,10.53
1629456591687,10.2
1629456591703,9.52
1629456591718,8.6
1629456591734,7.58
1629456591750,6.55
1629456591765,5.52
1629456591781,4.4
1629456591796,3.08
1629456591812,1.5
1629456591828,-0.31
1629456591843,-2.24
1629456591859,-4.15
1629456591875,-5.99
1629456591890,-7.74
1629456591906,-9.41
1629456591921,-11.02
1629456591937,-12.54
1629456591953,-13.88
1629456591968,-14.92
1629456591984,-15.57
1629456592000,-15.8
1629456592015,-15.6
1629456592031,-15.01
1629456592046,-14.03
1629456592062,-12.71
1629456592078,-11.1
1629456592093,-9.28
1629456592109,-7.34
1629456592125,-5.35
1629456592140,-3.33
1629456592156,-1.25
1629456592171,0.86
1629456592187,2.9
1629456592203,4.71
1629456592218,6.07
1629456592234,6.85
1629456592250,7.11
1629456592265,7.07
1629456592281,7.04
1629456592296,7.28
1629456592312,7.88
1629456592328,8.71
1629456592343,9.54
1629456592359,10.14
1629456592375,10.36
1629456592390,10.21
1629456592406,9.77
1629456592421,9.12
1629456592437,8.33
1629456592453,7.41
1629456592468,6.4
1629456592484,5.29
1629456592500,4.09
1629456592515,2.78
1629456592531,1.36
1629456592546,-0.1
1629456592562,-1.49
1629456592578,-2.67
1629456592593,-3.56
1629456592609,-4.21
1629456592625,-4.81
1629456592640,-5.63
1629456592656,-6.87
1629456592671,-8.58
1629456592687,-10.65
1629456592703,-12.8
1629456592718,-14.67
1629456592734,-15.96
1629456592750,-16.43
1629456592765,-15.96
1629456592781,-14.59
1629456592796,-12.44
1629456592812,-9.76
1629456592828,-6.81
1629456592843,-3.86
1629456592859,-1.09
1629456592875,1.43
1629456592890,3.74
1629456592906,5.89
1629456592921,7.95
1629456592937,9.9
1629456592953,11.67
1629456592968,13.08
1629456592984,13.98
1629456593000,14.29
1629456593015,14.08
1629456593031,13.53
1629456593046,12.87
1629456593062,12.28
1629456593078,11.84
1629456593093,11.53
1629456593109,11.34
1629456593125,11.26
1629456593140,11.3
1629456593156,11.47
1629456593171,11.69
1629456593187,11.78
1629456593203,11.61
1629456593218,11.1
1629456593234,10.3
1629456593250,9.36
1629456593265,8.4
1629456593281,7.5
1629456593296,6.64
1629456593312,5.8
1629456593328,4.97
1629456593343,4.2
1629456593359,3.53
1629456593375,2.94
1629456593390,2.32
1629456593406,1.52
1629456593421,0.43
1629456593437,-0.98
1629456593453,-2.57
1629456593468,-4.14
1629456593484,-5.48
1629456593500,-6.49
1629456593515,-7.2
1629456593531,-7.75
1629456593546,-8.32
1629456593562,-9.08
1629456593578,-10.13
1629456593593,-11.43
1629456593609,-12.9
1629456593625,-14.35
1629456593640,-15.57
1629456593656,-16.39
1629456593671,-16.6
1629456593687,-16.09
1629456593703,-14.82
1629456593718,-12.85
1629456593734,-10.32
1629456593750,-7.5
1629456593765,-4.64
1629456593781,-2.02
1629456593796,0.18
1629456593812,1.91
1629456593828,3.19
1629456593843,4.13
1629456593859,4.83
1629456593875,5.38
1629456593890,5.87
1629456593906,6.36
1629456593921,6.9
1629456593937,7.51
1629456593953,8.14
1629456593968,8.71
1629456593984,9.11
1629456594000,9.32
1629456594015,9.36
1629456594031,9.34
1629456594046,9.36
1629456594062,9.47
1629456594078,9.57
1629456594093,9.51
1629456594109,9.12
1629456594125,8.36
1629456594140,7.27
1629456594156,6.0
1629456594171,4.74
1629456594187,3.63
1629456594203,2.74
1629456594218,2.06
1629456594234,1.55
1629456594250,1.12
1629456594265,0.71
1629456594281,0.25
1629456594296,-0.29
1629456594312,-0.87
1629456594328,-1.45
1629456594343,-1.98
1629456594359,-2.45
1629456594375,-2.91
1629456594390,-3.46
1629456594406,-4.21
1629456594421,-5.2
1629456594437,-6.4
1629456594453,-7.65
1629456594468,-8.7
1629456594484,-9.27
1629456594500,-9.17
1629456594515,-8.31
1629456594531,-6.78
1629456594546,-4.82
1629456594562,-2.71
1629456594578,-0.66
1629456594593,1.24
1629456594609,3.04
1629456594625,4.85
1629456594640,6.72
1629456594656,8.63
1629456594671,10.45
1629456594687,12.05
1629456594703,13.34
1629456594718,14.34
1629456594734,15.08
1629456594750,15.65
1629456594765,16.12
1629456594781,16.53
1629456594796,16.92
1629456594812,17.33
1629456594828,17.78
1629456594843,18.29
1629456594859,18.86
1629456594875,19.46
1629456594890,20.03
1629456594906,20.47
1629456594921,20.68
1629456594937,20.55
1629456594953,20.0
1629456594968,19.01
1629456594984,17.63
1629456595000,15.99
1629456595015,14.22
1629456595031,12.48
1629456595046,10.86
1629456595062,9.38
1629456595078,8.03
1629456595093,6.72
1629456595109,5.31
1629456595125,3.64
1629456595140,1.47
1629456595156,-1.38
1629456595171,-5.03
1629456595187,-9.43
1629456595203,-14.3
1629456595218,-19.19
1629456595234,-23.57
1629456595250,-27.05
1629456595265,-29.43
1629456595281,-30.77
1629456595296,-31.22
1629456595312,-30.95
1629456595328,-30.01
1629456595343,-28.37
1629456595359,-25.99
1629456595375,-22.96
1629456595390,-19.46
1629456595406,-15.76
1629456595421,-12.1
1629456595437,-8.62
1629456595453,-5.38
1629456595468,-2.44
1629456595484,0.11
1629456595500,2.16
1629456595515,3.6
1629456595531,4.41
1629456595546,4.72
1629456595562,4.73
1629456595578,4.68
1629456595593,4.75
1629456595609,5.02
1629456595625,5.43
1629456595640,5.87
1629456595656,6.2
1629456595671,6.3
1629456595687,6.01
1629456595703,5.2
1629456595718,3.83
1629456595734,1.91
1629456595750,-0.37
1629456595765,-2.78
1629456595781,-5.07
1629456595796,-7.11
1629456595812,-8.87
1629456595828,-10.43
1629456595843,-11.82
1629456595859,-13.09
1629456595875,-14.22
1629456595890,-15.28
1629456595906,-16.39
1629456595921,-17.71
1629456595937,-19.33
1629456595953,-21.21
1629456595968,-23.14
1629456595984,-24.88
1629456596000,-26.26
1629456596015,-27.21
1629456596031,-27.75
1629456596046,-27.88
1629456596062,-27.5
1629456596078,-26.51
1629456596093,-24.92
1629456596109,-22.88
1629456596125,-20.73
1629456596140,-18.82
1629456596156,-17.31
1629456596171,-16.14
1629456596187,-15.05
1629456596203,-13.77
1629456596218,-12.21
1629456596234,-10.56
1629456596250,-9.15
1629456596265,-8.33
1629456596281,-8.23
1629456596296,-8.68
1629456596312,-9.33
1629456596328,-9.78
1629456596343,-9.8
1629456596359,-9.44
1629456596375,-8.97
1629456596390,-8.71
1629456596406,-8.89
1629456596421,-9.45
1629456596437,-10.16
1629456596453,-10.7
1629456596468,-10.85
1629456596484,-10.62
1629456596500,-10.14
1629456596515,-9.62
1629456596531,-9.18
1629456596546,-8.76
1629456596562,-8.22
1629456596578,-7.34
1629456596593,-5.99
1629456596609,-4.09
1629456596625,-1.67
1629456596640,1.16
1629456596656,4.28
1629456596671,7.5
1629456596687,10.7
1629456596703,13.82
1629456596718,16.92
1629456596734,20.05
1629456596750,23.25
1629456596765,26.38
1629456596781,29.16
1629456596796,31.27
1629456596812,32.46
1629456596828,32.65
1629456596843,31.93
1629456596859,30.48
1629456596875,28.5
1629456596890,26.17
1629456596906,23.63
1629456596921,21.01
1629456596937,18.39
1629456596953,15.76
1629456596968,13.11
1629456596984,10.47
1629456597000,7.98
1629456597015,5.87
1629456597031,4.36
1629456597046,3.53
1629456597062,3.22
1629456597078,3.09
1629456597093,2.84
1629456597109,2.33
1629456597125,1.63
1629456597140,0.95
1629456597156,0.41
1629456597171,0.04
1629456597187,-0.27
1629456597203,-0.6
1629456597218,-0.99
1629456597234,-1.41
1629456597250,-1.89
1629456597265,-2.55
1629456597281,-3.53
1629456597296,-4.89
1629456597312,-6.5
1629456597328,-8.02
1629456597343,-9.03
1629456597359,-9.24
1629456597375,-8.61
1629456597390,-7.34
1629456597406,-5.76
1629456597421,-4.15
1629456597437,-2.62
1629456597453,-1.14
1629456597468,0.34
1629456597484,1.85
1629456597500,3.3
1629456597515,4.52
1629456597531,5.38
1629456597546,5.78
1629456597562,5.74
1629456597578,5.41
1629456597593,4.96
1629456597609,4.59
1629456597625,4.43
1629456597640,4.53
1629456597656,4.85
1629456597671,5.29
1629456597687,5.74
1629456597703,6.07
1629456597718,6.21
1629456597734,6.13
1629456597750,5.85
1629456597765,5.34
1629456597781,4.57
1629456597796,3.52
1629456597812,2.2
1629456597828,0.69
1629456597843,-0.83
1629456597859,-2.18
1629456597875,-3.25
1629456597890,-4.02
1629456597906,-4.55
1629456597921,-4.97
1629456597937,-5.41
1629456597953,-5.93
1629456597968,-6.57
1629456597984,-7.32
1629456598000,-8.23
1629456598015,-9.34
1629456598031,-10.66
1629456598046,-12.15
1629456598062,-13.61
1629456598078,-14.78
1629456598093,-15.35
1629456598109,-15.1
1629456598125,-14.01
1629456598140,-12.27
1629456598156,-10.21
1629456598171,-8.14
1629456598187,-6.25
1629456598203,-4.53
1629456598218,-2.85
1629456598234,-1.08
1629456598250,0.74
1629456598265,2.47
1629456598281,3.89
1629456598296,4.85
1629456598312,5.36
1629456598328,5.55
1629456598343,5.63
1629456598359,5.76
1629456598375,6.01
1629456598390,6.32
1629456598406,6.58
1629456598421,6.68
1629456598437,6.57
1629456598453,6.27
1629456598468,5.86
1629456598484,5.48
1629456598500,5.2
1629456598515,5.04
1629456598531,4.95
1629456598546,4.8
1629456598562,4.47
1629456598578,3.9
1629456598593,3.1
1629456598609,2.12
1629456598625,1.07
1629456598640,-0.0
1629456598656,-1.05
1629456598671,-2.04
1629456598687,-3.03
1629456598703,-4.04
1629456598718,-5.16
1629456598734,-6.42
1629456598750,-7.81
1629456598765,-9.23
1629456598781,-10.53
1629456598796,-11.53
1629456598812,-12.08
1629456598828,-12.08
1629456598843,-11.53
1629456598859,-10.45
1629456598875,-8.89
1629456598890,-6.98
1629456598906,-4.85
1629456598921,-2.65
1629456598937,-0.54
1629456598953,1.44
1629456598968,3.3
1629456598984,5.08
1629456599000,6.78
1629456599015,8.25
1629456599031,9.3
1629456599046,9.77
1629456599062,9.67
1629456599078,9.19
1629456599093,8.66
1629456599109,8.37
1629456599125,8.45
1629456599140,8.84
1629456599156,9.35
1629456599171,9.8
1629456599187,10.13
1629456599203,10.34
1629456599218,10.48
1629456599234,10.51
1629456599250,10.32
1629456599265,9.8
1629456599281,8.96
1629456599296,7.93
1629456599312,6.98
1629456599328,6.34
1629456599343,6.14
1629456599359,6.24
1629456599375,6.38
1629456599390,6.27
1629456599406,5.7
1629456599421,4.69
1629456599437,3.41
1629456599453,2.12
1629456599468,1.04
1629456599484,0.26
1629456599500,-0.23
1629456599515,-0.49
1629456599531,-0.64
1629456599546,-0.81
1629456599562,-1.1
1629456599578,-1.59
1629456599593,-2.24
1629456599609,-2.89
1629456599625,-3.25
1629456599640,-3.07
1629456599656,-2.18
1629456599671,-0.61
1629456599687,1.47
1629456599703,3.82
1629456599718,6.24
1629456599734,8.57
1629456599750,10.73
1629456599765,12.6
1629456599781,14.11
1629456599796,15.2
1629456599812,15.88
1629456599828,16.25
1629456599843,16.42
1629456599859,16.5
1629456599875,16.51
1629456599890,16.37
1629456599906,15.99
1629456599921,15.2
1629456599937,13.95
1629456599953,12.19
1629456599968,10.01
1629456599984,7.56
1629456600000,5.06
1629456600015,2.7
1629456600031,0.64
1629456600046,-1.01
1629456600062,-2.22
1629456600078,-2.98
1629456600093,-3.36
1629456600109,-3.48
1629456600125,-3.54
1629456600140,-3.77
1629456600156,-4.33
1629456600171,-5.29
1629456600187,-6.57
1629456600203,-8.02
1629456600218,-9.48
1629456600234,-10.78
1629456600250,-11.84
1629456600265,-12.59
1629456600281,-12.97
1629456600296,-13.0
1629456600312,-12.75
1629456600328,-12.36
1629456600343,-12.06
1629456600359,-12.01
1629456600375,-12.3
1629456600390,-12.87
1629456600406,-13.55
1629456600421,-14.06
1629456600437,-14.14
1629456600453,-13.6
1629456600468,-12.39
1629456600484,-10.59
1629456600500,-8.4
1629456600515,-6.04
1629456600531,-3.74
1629456600546,-1.69
1629456600562,0.01
1629456600578,1.25
1629456600593,1.98
1629456600609,2.2
1629456600625,1.96
1629456600640,1.39
1629456600656,0.64
1629456600671,-0.11
1629456600687,-0.69
1629456600703,-0.97
1629456600718,-0.87
1629456600734,-0.39
1629456600750,0.35
1629456600765,1.13
1629456600781,1.69
1629456600796,1.81
1629456600812,1.45
1629456600828,0.76
1629456600843,0.07
1629456600859,-0.33
1629456600875,-0.31
1629456600890,0.01
1629456600906,0.29
1629456600921,0.15
1629456600937,-0.62
1629456600953,-2.0
1629456600968,-3.75
1629456600984,-5.54
1629456601000,-7.13
1629456601015,-8.44
1629456601031,-9.54
1629456601046,-10.51
1629456601062,-11.31
1629456601078,-11.8
1629456601093,-11.77
1629456601109,-11.08
1629456601125,-9.83
1629456601140,-8.24
1629456601156,-6.69
1629456601171,-5.44
1629456601187,-4.58
1629456601203,-4.02
1629456601218,-3.54
1629456601234,-2.96
1629456601250,-2.2
1629456601265,-1.28
1629456601281,-0.25
1629456601296,0.86
1629456601312,2.03
1629456601328,3.25
1629456601343,4.43
1629456601359,5.44
1629456601375,6.15
1629456601390,6.42
1629456601406,6.25
1629456601421,5.72
1629456601437,5.03
1629456601453,4.42
1629456601468,4.11
1629456601484,4.22
1629456601500,4.71
1629456601515,5.38
1629456601531,5.93
1629456601546,6.08
1629456601562,5.65
1629456601578,4.71
1629456601593,3.47
1629456601609,2.24
1629456601625,1.17
1629456601640,0.27
1629456601656,-0.64
1629456601671,-1.76
1629456601687,-3.14
1629456601703,-4.68
1629456601718,-6.06
1629456601734,-6.95
1629456601750,-7.11
1629456601765,-6.48
1629456601781,-5.18
1629456601796,-3.39
1629456601812,-1.36
1629456601828,0.75
1629456601843,2.84
1629456601859,4.83
1629456601875,6.6
1629456601890,8.04
1629456601906,9.03
1629456601921,9.52
1629456601937,9.58
1629456601953,9.35
1629456601968,9.11
1629456601984,9.04
1629456602000,9.22
1629456602015,9.58
1629456602031,9.9
1629456602046,9.93
1629456602062,9.52
1629456602078,8.64
1629456602093,7.39
1629456602109,5.97
1629456602125,4.56
1629456602140,3.3
1629456602156,2.23
1629456602171,1.29
1629456602187,0.42
1629456602203,-0.42
1629456602218,-1.22
1629456602234,-1.84
1629456602250,-2.15
1629456602265,-2.12
1629456602281,-1.87
1629456602296,-1.7
1629456602312,-1.95
1629456602328,-2.85
1629456602343,-4.41
1629456602359,-6.41
1629456602375,-8.47
1629456602390,-10.2
1629456602406,-11.31
1629456602421,-11.68
1629456602437,-11.3
1629456602453,-10.29
1629456602468,-8.84
1629456602484,-7.21
1629456602500,-5.61
1629456602515,-4.18
1629456602531,-2.9
1629456602546,-1.65
1629456602562,-0.32
1629456602578,1.07
1629456602593,2.38
1629456602609,3.36
1629456602625,3.79
1629456602640,3.59
1629456602656,2.81
1629456602671,1.67
1629456602687,0.41
1629456602703,-0.73
1629456602718,-1.58
1629456602734,-2.05
1629456602750,-2.14
1629456602765,-1.91
1629456602781,-1.47
1629456602796,-0.96
1629456602812,-0.47
1629456602828,-0.12
1629456602843,0.03
1629456602859,-0.09
1629456602875,-0.57
1629456602890,-1.45
1629456602906,-2.74
1629456602921,-4.36
1629456602937,-6.17
1629456602953,-8.04
1629456602968,-9.85
1629456602984,-11.55
1629456603000,-13.14
1629456603015,-14.63
1629456603031,-15.95
1629456603046,-16.97
1629456603062,-17.5
1629456603078,-17.34
1629456603093,-16.44
1629456603109,-14.89
1629456603125,-13.0
1629456603140,-11.14
1629456603156,-9.61
1629456603171,-8.51
1629456603187,-7.7
1629456603203,-6.88
1629456603218,-5.8
1629456603234,-4.36
1629456603250,-2.67
1629456603265,-0.96
1629456603281,0.54
1629456603296,1.73
1629456603312,2.59
1629456603328,3.23
1629456603343,3.67
1629456603359,3.93
1629456603375,3.98
1629456603390,3.84
1629456603406,3.63
1629456603421,3.54
1629456603437,3.77
1629456603453,4.39
1629456603468,5.29
1629456603484,6.16
1629456603500,6.65
1629456603515,6.46
1629456603531,5.49
1629456603546,3.87
1629456603562,1.92
1629456603578,0.03
1629456603593,-1.56
1629456603609,-2.76
1629456603625,-3.67
1629456603640,-4.49
1629456603656,-5.31
1629456603671,-6.11
1629456603687,-6.69
1629456603703,-6.83
1629456603718,-6.34
1629456603734,-5.24
1629456603750,-3.67
1629456603765,-1.91
1629456603781,-0.22
1629456603796,1.26
1629456603812,2.57
1629456603828,3.9
1629456603843,5.44
1629456603859,7.28
1629456603875,9.26
1629456603890,11.01
1629456603906,12.16
1629456603921,12.45
1629456603937,11.91
1629456603953,10.84
1629456603968,9.64
1629456603984,8.64
1629456604000,7.96
1629456604015,7.5
1629456604031,7.11
1629456604046,6.66
1629456604062,6.2
1629456604078,5.87
1629456604093,5.76
1629456604109,5.86
1629456604125,6.02
1629456604140,5.99
1629456604156,5.6
1629456604171,4.82
1629456604187,3.8
1629456604203,2.77
1629456604218,1.92
1629456604234,1.34
1629456604250,0.92
1629456604265,0.46
1629456604281,-0.26
1629456604296,-1.39
1629456604312,-2.9
1629456604328,-4.67
1629456604343,-6.47
1629456604359,-8.1
1629456604375,-9.41
1629456604390,-10.28
1629456604406,-10.61
1629456604421,-10.35
1629456604437,-9.41
1629456604453,-7.84
1629456604468,-5.77
1629456604484,-3.45
1629456604500,-1.16
1629456604515,0.87
1629456604531,2.56
1629456604546,3.99
1629456604562,5.28
1629456604578,6.54
1629456604593,7.75
1629456604609,8.81
1629456604625,9.54
1629456604640,9.86
1629456604656,9.77
1629456604671,9.4
1629456604687,8.9
1629456604703,8.37
1629456604718,7.86
1629456604734,7.4
1629456604750,7.04
1629456604765,6.82
1629456604781,6.79
1629456604796,6.91
1629456604812,7.05
1629456604828,7.06
1629456604843,6.79
1629456604859,6.16
1629456604875,5.23
1629456604890,4.11
1629456604906,2.94
1629456604921,1.82
1629456604937,0.79
1629456604953,-0.12
1629456604968,-0.91
1629456604984,-1.57
1629456605000,-2.09
1629456605015,-2.53
1629456605031,-3.02
1629456605046,-3.76
1629456605062,-4.94
1629456605078,-6.65
1629456605093,-8.77
1629456605109,-10.94
1629456605125,-12.71
1629456605140,-13.63
1629456605156,-13.42
1629456605171,-12.13
1629456605187,-10.04
1629456605203,-7.57
1629456605218,-5.16
1629456605234,-3.1
1629456605250,-1.49
1629456605265,-0.3
1629456605281,0.61
1629456605296,1.38
1629456605312,2.1
1629456605328,2.82
1629456605343,3.57
1629456605359,4.37
1629456605375,5.21
1629456605390,6.04
1629456605406,6.76
1629456605421,7.24
1629456605437,7.31
1629456605453,6.93
1629456605468,6.13
1629456605484,5.1
1629456605500,4.1
1629456605515,3.31
1629456605531,2.81
1629456605546,2.52
1629456605562,2.26
1629456605578,1.87
1629456605593,1.29
1629456605609,0.53
1629456605625,-0.29
1629456605640,-1.07
1629456605656,-1.78
1629456605671,-2.37
1629456605687,-2.82
1629456605703,-3.03
1629456605718,-2.88
1629456605734,-2.32
1629456605750,-1.43
1629456605765,-0.42
1629456605781,0.41
1629456605796,0.77
1629456605812,0.5
1629456605828,-0.4
1629456605843,-1.83
1629456605859,-3.56
1629456605875,-5.32
1629456605890,-6.83
1629456605906,-7.83
1629456605921,-8.16
1629456605937,-7.78
1629456605953,-6.76
1629456605968,-5.27
1629456605984,-3.51
1629456606000,-1.67
1629456606015,0.14
1629456606031,1.85
1629456606046,3.42
1629456606062,4.86
1629456606078,6.16
1629456606093,7.35
1629456606109,8.46
1629456606125,9.53
1629456606140,10.53
1629456606156,11.38
1629456606171,11.98
1629456606187,12.25
1629456606203,12.2
1629456606218,11.94
1629456606234,11.63
1629456606250,11.37
1629456606265,11.18
1629456606281,10.98
1629456606296,10.67
1629456606312,10.17
1629456606328,9.51
1629456606343,8.8
1629456606359,8.13
1629456606375,7.5
1629456606390,6.78
1629456606406,5.79
1629456606421,4.43
1629456606437,2.77
1629456606453,1.01
1629456606468,-0.61
1629456606484,-1.89
1629456606500,-2.82
1629456606515,-3.53
1629456606531,-4.19
1629456606546,-4.93
1629456606562,-5.75
1629456606578,-6.59
1629456606593,-7.35
1629456606609,-8.03
1629456606625,-8.73
1629456606640,-9.57
1629456606656,-10.58
1629456606671,-11.66
1629456606687,-12.55
1629456606703,-12.94
1629456606718,-12.64
1629456606734,-11.6
1629456606750,-10.01
1629456606765,-8.14
1629456606781,-6.24
1629456606796,-4.49
1629456606812,-2.96
1629456606828,-1.64
1629456606843,-0.46
1629456606859,0.64
1629456606875,1.71
1629456606890,2.68
1629456606906,3.4
1629456606921,3.67
1629456606937,3.33
1629456606953,2.41
1629456606968,1.11
1629456606984,-0.17
1629456607000,-1.07
1629456607015,-1.33
1629456607031,-0.96
1629456607046,-0.11
1629456607062,0.95
1629456607078,1.98
1629456607093,2.86
1629456607109,3.46
1629456607125,3.72
1629456607140,3.53
1629456607156,2.84
1629456607171,1.68
1629456607187,0.22
1629456607203,-1.3
1629456607218,-2.61
1629456607234,-3.51
1629456607250,-3.98
1629456607265,-4.1
1629456607281,-4.02
1629456607296,-3.92
1629456607312,-3.94
1629456607328,-4.16
1629456607343,-4.63
1629456607359,-5.33
1629456607375,-6.1
1629456607390,-6.74
1629456607406,-6.96
1629456607421,-6.58
1629456607437,-5.54
1629456607453,-3.97
1629456607468,-2.14
1629456607484,-0.37
1629456607500,1.16
1629456607515,2.37
1629456607531,3.35
1629456607546,4.23
1629456607562,5.09
1629456607578,5.92
1629456607593,6.64
1629456607609,7.09
1629456607625,7.19
1629456607640,6.92
1629456607656,6.36
1629456607671,5.64
1629456607687,4.88
1629456607703,4.15
1629456607718,3.5
1629456607734,2.89
1629456607750,2.34
1629456607765,1.86
1629456607781,1.49
1629456607796,1.26
1629456607812,1.12
1629456607828,0.96
1629456607843,0.66
1629456607859,0.08
1629456607875,-0.81
1629456607890,-1.92
1629456607906,-3.09
1629456607921,-4.09
1629456607937,-4.73
1629456607953,-4.93
1629456607968,-4.72
1629456607984,-4.31
1629456608000,-4.0
1629456608015,-4.09
1629456608031,-4.82
1629456608046,-6.21
1629456608062,-8.13
1629456608078,-10.26
1629456608093,-12.21
1629456608109,-13.61
1629456608125,-14.19
1629456608140,-13.84
1629456608156,-12.6
1629456608171,-10.74
1629456608187,-8.55
1629456608203,-6.38
1629456608218,-4.47
1629456608234,-2.9
1629456608250,-1.61
1629456608265,-0.51
1629456608281,0.46
1629456608296,1.29
1629456608312,1.91
1629456608328,2.28
1629456608343,2.46
1629456608359,2.59
1629456608375,2.81
1629456608390,3.2
1629456608406,3.68
1629456608421,4.14
1629456608437,4.43
1629456608453,4.51
1629456608468,4.44
1629456608484,4.33
1629456608500,4.25
1629456608515,4.19
1629456608531,4.05
1629456608546,3.75
1629456608562,3.25
1629456608578,2.6
1629456608593,1.91
1629456608609,1.29
1629456608625,0.75
1629456608640,0.23
1629456608656,-0.41
1629456608671,-1.32
1629456608687,-2.53
1629456608703,-4.0
1629456608718,-5.54
1629456608734,-6.96
1629456608750,-8.13
1629456608765,-8.97
1629456608781,-9.46
1629456608796,-9.58
1629456608812,-9.29
1629456608828,-8.55
1629456608843,-7.39
1629456608859,-5.96
1629456608875,-4.45
1629456608890,-3.06
1629456608906,-1.86
1629456608921,-0.81
1629456608937,0.21
1629456608953,1.29
1629456608968,2.41
1629456608984,3.43
1629456609000,4.2
1629456609015,4.6
1629456609031,4.65
1629456609046,4.52
1629456609062,4.39
1629456609078,4.44
1629456609093,4.72
1629456609109,5.19
1629456609125,5.7
1629456609140,6.05
1629456609156,6.14
1629456609171,5.91
1629456609187,5.46
1629456609203,4.94
1629456609218,4.46
1629456609234,4.05
1629456609250,3.63
1629456609265,3.04
1629456609281,2.16
1629456609296,1.0
1629456609312,-0.31
1629456609328,-1.61
1629456609343,-2.74
1629456609359,-3.73
1629456609375,-4.68
1629456609390,-5.76
1629456609406,-7.1
1629456609421,-8.75
1629456609437,-10.6
1629456609453,-12.46
1629456609468,-14.06
1629456609484,-15.15
1629456609500,-15.52
1629456609515,-15.07
1629456609531,-13.81
1629456609546,-11.94
1629456609562,-9.73
1629456609578,-7.49
1629456609593,-5.49
1629456609609,-3.84
1629456609625,-2.53
1629456609640,-1.43
1629456609656,-0.4
1629456609671,0.71
1629456609687,1.95
1629456609703,3.24
1629456609718,4.43
1629456609734,5.28
1629456609750,5.63
1629456609765,5.46
1629456609781,4.94
1629456609796,4.32
1629456609812,3.86
1629456609828,3.7
1629456609843,3.88
1629456609859,4.27
1629456609875,4.74
1629456609890,5.17
1629456609906,5.45
1629456609921,5.51
1629456609937,5.27
1629456609953,4.69
1629456609968,3.82
1629456609984,2.79
1629456610000,1.77
1629456610015,0.91
1629456610031,0.25
1629456610046,-0.28
1629456610062,-0.83
1629456610078,-1.58
1629456610093,-2.6
1629456610109,-3.9
1629456610125,-5.39
1629456610140,-6.93
1629456610156,-8.35
1629456610171,-9.45
1629456610187,-10.02
1629456610203,-9.9
1629456610218,-9.03
1629456610234,-7.48
1629456610250,-5.47
1629456610265,-3.32
1629456610281,-1.33
1629456610296,0.31
1629456610312,1.58
1629456610328,2.55
1629456610343,3.35
1629456610359,4.02
1629456610375,4.58
1629456610390,4.96
1629456610406,5.16
1629456610421,5.25
1629456610437,5.32
1629456610453,5.46
1629456610468,5.67
1629456610484,5.88
1629456610500,6.02
1629456610515,6.03
1629456610531,5.93
1629456610546,5.72
1629456610562,5.46
1629456610578,5.15
1629456610593,4.81
1629456610609,4.49
1629456610625,4.23
1629456610640,4.0
1629456610656,3.74
1629456610671,3.32
1629456610687,2.61
1629456610703,1.57
1629456610718,0.26
1629456610734,-1.16
1629456610750,-2.55
1629456610765,-3.83
1629456610781,-5.0
1629456610796,-6.1
1629456610812,-7.18
1629456610828,-8.24
1629456610843,-9.21
1629456610859,-9.98
1629456610875,-10.44
1629456610890,-10.47
1629456610906,-10.01
1629456610921,-9.11
1629456610937,-7.82
1629456610953,-6.27
1629456610968,-4.55
1629456610984,-2.7
1629456611000,-0.79
1629456611015,1.13
1629456611031,2.95
1629456611046,4.53
1629456611062,5.76
1629456611078,6.54
1629456611093,6.88
1629456611109,6.87
1629456611125,6.64
1629456611140,6.32
1629456611156,5.99
1629456611171,5.72
1629456611187,5.51
1629456611203,5.37
1629456611218,5.28
1629456611234,5.2
1629456611250,5.1
1629456611265,4.97
1629456611281,4.77
1629456611296,4.51
1629456611312,4.2
1629456611328,3.82
1629456611343,3.35
1629456611359,2.71
1629456611375,1.86
1629456611390,0.8
1629456611406,-0.39
1629456611421,-1.54
1629456611437,-2.46
1629456611453,-3.02
1629456611468,-3.25
1629456611484,-3.34
1629456611500,-3.59
1629456611515,-4.28
1629456611531,-5.52
1629456611546,-7.22
1629456611562,-9.12
1629456611578,-10.9
1629456611593,-12.26
1629456611609,-13.03
1629456611625,-13.22
1629456611640,-12.88
1629456611656,-12.1
1629456611671,-10.94
1629456611687,-9.4
1629456611703,-7.51
1629456611718,-5.36
1629456611734,-3.15
1629456611750,-1.12
1629456611765,0.51
1629456611781,1.7
1629456611796,2.57
1629456611812,3.36
1629456611828,4.29
1629456611843,5.45
1629456611859,6.73
1629456611875,7.91
1629456611890,8.7
1629456611906,8.91
1629456611921,8.56
1629456611937,7.78
1629456611953,6.86
1629456611968,6.13
1629456611984,5.83
1629456612000,6.04
1629456612015,6.67
1629456612031,7.45
1629456612046,8.03
1629456612062,8.15
1629456612078,7.71
1629456612093,6.84
1629456612109,5.81
1629456612125,4.83
1629456612140,4.01
1629456612156,3.26
1629456612171,2.42
1629456612187,1.33
1629456612203,-0.04
1629456612218,-1.65
1629456612234,-3.41
1629456612250,-5.24
1629456612265,-7.13
1629456612281,-8.98
1629456612296,-10.6
1629456612312,-11.69
1629456612328,-11.9
1629456612343,-11.04
1629456612359,-9.14
1629456612375,-6.48
1629456612390,-3.51
1629456612406,-0.74
1629456612421,1.51
1629456612437,3.15
1629456612453,4.35
1629456612468,5.42
1629456612484,6.6
1629456612500,7.99
1629456612515,9.44
1629456612531,10.67
1629456612546,11.44
1629456612562,11.66
1629456612578,11.45
1629456612593,11.04
1629456612609,10.64
1629456612625,10.35
1629456612640,10.14
1629456612656,9.98
1629456612671,9.91
1629456612687,10.02
1629456612703,10.38
1629456612718,10.93
1629456612734,11.45
1629456612750,11.66
1629456612765,11.35
1629456612781,10.53
1629456612796,9.4
1629456612812,8.18
1629456612828,7.09
1629456612843,6.17
1629456612859,5.34
1629456612875,4.52
1629456612890,3.69
1629456612906,2.84
1629456612921,1.96
1629456612937,0.98
1629456612953,-0.23
1629456612968,-1.77
1629456612984,-3.65
1629456613000,-5.77
1629456613015,-7.93
1629456613031,-9.85
1629456613046,-11.33
1629456613062,-12.19
1629456613078,-12.33
1629456613093,-11.75
1629456613109,-10.54
1629456613125,-8.88
1629456613140,-7.0
1629456613156,-5.11
1629456613171,-3.36
1629456613187,-1.79
1629456613203,-0.36
1629456613218,1.0
1629456613234,2.35
1629456613250,3.65
1629456613265,4.79
1629456613281,5.65
1629456613296,6.11
1629456613312,6.17
1629456613328,5.93
1629456613343,5.57
1629456613359,5.25
1629456613375,5.06
1629456613390,4.98
1629456613406,4.93
1629456613421,4.84
1629456613437,4.73
1629456613453,4.72
1629456613468,4.93
1629456613484,5.41
1629456613500,6.03
1629456613515,6.53
1629456613531,6.58
1629456613546,6.01
1629456613562,4.84
1629456613578,3.33
1629456613593,1.84
1629456613609,0.72
1629456613625,0.09
1629456613640,-0.15
1629456613656,-0.26
1629456613671,-0.55
1629456613687,-1.18
1629456613703,-2.19
1629456613718,-3.49
1629456613734,-4.98
1629456613750,-6.56
1629456613765,-8.13
1629456613781,-9.53
1629456613796,-10.51
1629456613812,-10.82
1629456613828,-10.3
1629456613843,-8.97
1629456613859,-7.06
1629456613875,-4.92
1629456613890,-2.85
1629456613906,-1.02
1629456613921,0.61
1629456613937,2.14
1629456613953,3.63
1629456613968,5.06
1629456613984,6.3
1629456614000,7.18
1629456614015,7.61
1629456614031,7.62
1629456614046,7.37
1629456614062,7.09
1629456614078,6.93
1629456614093,6.92
1629456614109,6.97
1629456614125,6.91
1629456614140,6.61
1629456614156,6.1
1629456614171,5.52
1629456614187,5.09
1629456614203,4.96
1629456614218,5.14
1629456614234,5.48
1629456614250,5.7
1629456614265,5.56
1629456614281,4.86
1629456614296,3.6
1629456614312,1.87
1629456614328,-0.1
1629456614343,-2.04
1629456614359,-3.71
1629456614375,-4.99
1629456614390,-5.88
1629456614406,-6.51
1629456614421,-7.04
1629456614437,-7.61
1629456614453,-8.27
1629456614468,-9.0
1629456614484,-9.72
1629456614500,-10.34
1629456614515,-10.77
1629456614531,-10.95
1629456614546,-10.79
1629456614562,-10.19
1629456614578,-9.09
1629456614593,-7.5
1629456614609,-5.55
1629456614625,-3.45
1629456614640,-1.45
1629456614656,0.28
1629456614671,1.68
1629456614687,2.79
1629456614703,3.75
1629456614718,4.65
1629456614734,5.55
1629456614750,6.37
1629456614765,7.03
1629456614781,7.42
1629456614796,7.55
1629456614812,7.49
1629456614828,7.32
1629456614843,7.12
1629456614859,6.91
1629456614875,6.64
1629456614890,6.27
1629456614906,5.78
1629456614921,5.2
1629456614937,4.62
1629456614953,4.11
1629456614968,3.68
1629456614984,3.26
1629456615000,2.76
1629456615015,2.07
1629456615031,1.2
1629456615046,0.2
1629456615062,-0.81
1629456615078,-1.73
1629456615093,-2.47
1629456615109,-3.01
1629456615125,-3.35
1629456615140,-3.55
1629456615156,-3.68
1629456615171,-3.86
1629456615187,-4.19
1629456615203,-4.81
1629456615218,-5.77
1629456615234,-7.04
1629456615250,-8.48
1629456615265,-9.83
1629456615281,-10.76
1629456615296,-10.95
1629456615312,-10.25
1629456615328,-8.73
1629456615343,-6.65
1629456615359,-4.42
1629456615375,-2.4
1629456615390,-0.77
1629456615406,0.56
1629456615421,1.8
1629456615437,3.15
1629456615453,4.63
1629456615468,6.08
1629456615484,7.25
1629456615500,7.99
1629456615515,8.26
1629456615531,8.18
1629456615546,7.92
1629456615562,7.57
1629456615578,7.21
1629456615593,6.85
1629456615609,6.55
1629456615625,6.38
1629456615640,6.38
1629456615656,6.53
1629456615671,6.76
1629456615687,6.92
1629456615703,6.91
1629456615718,6.66
1629456615734,6.12
1629456615750,5.33
1629456615765,4.36
1629456615781,3.34
1629456615796,2.42
1629456615812,1.72
1629456615828,1.31
1629456615843,1.2
1629456615859,1.27
1629456615875,1.36
1629456615890,1.26
1629456615906,0.8
1629456615921,-0.11
1629456615937,-1.37
1629456615953,-2.77
1629456615968,-4.03
1629456615984,-4.93
1629456616000,-5.4
1629456616015,-5.57
1629456616031,-5.69
1629456616046,-6.02
1629456616062,-6.77
1629456616078,-7.96
1629456616093,-9.5
1629456616109,-11.18
1629456616125,-12.68
1629456616140,-13.69
1629456616156,-13.85
1629456616171,-12.99
1629456616187,-11.13
1629456616203,-8.54
1629456616218,-5.64
1629456616234,-2.87
1629456616250,-0.51
1629456616265,1.31
1629456616281,2.64
1629456616296,3.57
1629456616312,4.2
1629456616328,4.62
1629456616343,4.91
1629456616359,5.19
1629456616375,5.57
1629456616390,6.14
1629456616406,6.91
1629456616421,7.79
1629456616437,8.63
1629456616453,9.24
1629456616468,9.54
1629456616484,9.45
1629456616500,9.06
1629456616515,8.47
1629456616531,7.83
1629456616546,7.28
1629456616562,6.87
1629456616578,6.62
1629456616593,6.49
1629456616609,6.41
1629456616625,6.29
1629456616640,6.04
1629456616656,5.53
1629456616671,4.68
1629456616687,3.43
1629456616703,1.86
1629456616718,0.13
1629456616734,-1.53
1629456616750,-2.92
1629456616765,-3.93
1629456616781,-4.58
1629456616796,-5.0
1629456616812,-5.42
1629456616828,-6.03
1629456616843,-7.01
1629456616859,-8.42
1629456616875,-10.19
1629456616890,-12.15
1629456616906,-14.02
1629456616921,-15.52
1629456616937,-16.38
1629456616953,-16.47
1629456616968,-15.79
1629456616984,-14.49
1629456617000,-12.75
1629456617015,-10.82
1629456617031,-8.86
1629456617046,-6.99
1629456617062,-5.31
1629456617078,-3.87
1629456617093,-2.72
1629456617109,-1.81
1629456617125,-1.11
1629456617140,-0.5
1629456617156,0.07
1629456617171,0.62
1629456617187,1.12
1629456617203,1.53
1629456617218,1.84
1629456617234,2.08
1629456617250,2.29
1629456617265,2.54
1629456617281,2.84
1629456617296,3.18
1629456617312,3.57
1629456617328,4.03
1629456617343,4.62
1629456617359,5.32
1629456617375,6.07
1629456617390,6.69
1629456617406,7.0
1629456617421,6.83
1629456617437,6.12
1629456617453,4.92
1629456617468,3.34
1629456617484,1.61
1629456617500,-0.06
1629456617515,-1.43
1629456617531,-2.36
1629456617546,-2.75
1629456617562,-2.71
1629456617578,-2.48
1629456617593,-2.4
1629456617609,-2.78
1629456617625,-3.8
1629456617640,-5.43
1629456617656,-7.4
1629456617671,-9.29
1629456617687,-10.7
1629456617703,-11.3
1629456617718,-10.94
1629456617734,-9.62
1629456617750,-7.54
1629456617765,-5.02
1629456617781,-2.49
1629456617796,-0.34
1629456617812,1.15
1629456617828,1.94
1629456617843,2.2
1629456617859,2.26
1629456617875,2.43
1629456617890,2.86
1629456617906,3.55
1629456617921,4.34
1629456617937,5.04
1629456617953,5.55
1629456617968,5.86
1629456617984,6.02
1629456618000,6.08
1629456618015,6.08
1629456618031,5.99
1629456618046,5.79
1629456618062,5.47
1629456618078,5.1
1629456618093,4.77
1629456618109,4.59
1629456618125,4.64
1629456618140,4.86
1629456618156,5.09
1629456618171,5.11
1629456618187,4.7
1629456618203,3.8
1629456618218,2.53
1629456618234,1.09
1629456618250,-0.28
1629456618265,-1.48
1629456618281,-2.49
1629456618296,-3.38
1629456618312,-4.23
1629456618328,-5.07
1629456618343,-5.93
1629456618359,-6.81
1629456618375,-7.79
1629456618390,-8.95
1629456618406,-10.28
1629456618421,-11.61
1629456618437,-12.67
1629456618453,-13.12
1629456618468,-12.73
1629456618484,-11.48
1629456618500,-9.52
1629456618515,-7.13
1629456618531,-4.62
1629456618546,-2.26
1629456618562,-0.19
1629456618578,1.49
1629456618593,2.74
1629456618609,3.57
1629456618625,3.98
1629456618640,4.07
1629456618656,4.0
1629456618671,3.94
1629456618687,4.05
1629456618703,4.39
1629456618718,4.89
1629456618734,5.39
1629456618750,5.76
1629456618765,5.95
1629456618781,6.0
1629456618796,6.0
1629456618812,6.01
1629456618828,6.02
1629456618843,5.98
1629456618859,5.78
1629456618875,5.4
1629456618890,4.82
1629456618906,4.13
1629456618921,3.44
1629456618937,2.86
1629456618953,2.44
1629456618968,2.16
1629456618984,1.91
1629456619000,1.51
1629456619015,0.79
1629456619031,-0.29
1629456619046,-1.67
1629456619062,-3.17
1629456619078,-4.57
1629456619093,-5.74
1629456619109,-6.67
1629456619125,-7.5
1629456619140,-8.37
1629456619156,-9.4
1629456619171,-10.65
1629456619187,-12.05
1629456619203,-13.5
1629456619218,-14.78
1629456619234,-15.69
1629456619250,-15.99
1629456619265,-15.57
1629456619281,-14.48
1629456619296,-12.86
1629456619312,-10.97
1629456619328,-8.98
1629456619343,-7.01
1629456619359,-5.04
1629456619375,-3.07
1629456619390,-1.19
1629456619406,0.43
1629456619421,1.61
1629456619437,2.25
1629456619453,2.4
1629456619468,2.19
1629456619484,1.8
1629456619500,1.33
1629456619515,0.85
1629456619531,0.36
1629456619546,-0.05
1629456619562,-0.32
1629456619578,-0.4
1629456619593,-0.29
1629456619609,-0.03
1629456619625,0.31
1629456619640,0.71
1629456619656,1.18
1629456619671,1.72
1629456619687,2.28
1629456619703,2.7
1629456619718,2.79
1629456619734,2.46
1629456619750,1.74
1629456619765,0.76
1629456619781,-0.26
1629456619796,-1.2
1629456619812,-2.03
1629456619828,-2.8
1629456619843,-3.59
1629456619859,-4.42
1629456619875,-5.23
1629456619890,-5.97
1629456619906,-6.6
1629456619921,-7.15
1629456619937,-7.75
1629456619953,-8.51
1629456619968,-9.5
1629456619984,-10.68
1629456620000,-11.85
1629456620015,-12.77
1629456620031,-13.18
1629456620046,-12.92
1629456620062,-11.94
1629456620078,-10.33
1629456620093,-8.28
1629456620109,-6.01
1629456620125,-3.67
1629456620140,-1.37
1629456620156,0.86
1629456620171,3.01
1629456620187,5.02
1629456620203,6.79
1629456620218,8.18
1629456620234,9.14
1629456620250,9.64
1629456620265,9.82
1629456620281,9.87
1629456620296,9.98
1629456620312,10.28
1629456620328,10.79
1629456620343,11.46
1629456620359,12.2
1629456620375,12.89
1629456620390,13.38
1629456620406,13.57
1629456620421,13.37
1629456620437,12.82
1629456620453,12.08
1629456620468,11.37
1629456620484,10.83
1629456620500,10.46
1629456620515,10.08
1629456620531,9.46
1629456620546,8.42
1629456620562,6.97
1629456620578,5.26
1629456620593,3.55
1629456620609,2.04
1629456620625,0.81
1629456620640,-0.19
1629456620656,-1.11
1629456620671,-2.12
1629456620687,-3.37
1629456620703,-4.93
1629456620718,-6.76
1629456620734,-8.69
1629456620750,-10.46
1629456620765,-11.79
1629456620781,-12.44
1629456620796,-12.3
1629456620812,-11.37
1629456620828,-9.8
1629456620843,-7.75
1629456620859,-5.43
1629456620875,-2.95
1629456620890,-0.43
1629456620906,2.03
1629456620921,4.32
1629456620937,6.3
1629456620953,7.84
1629456620968,8.88
1629456620984,9.44
1629456621000,9.64
1629456621015,9.67
1629456621031,9.73
1629456621046,9.97
1629456621062,10.41
1629456621078,10.99
1629456621093,11.6
1629456621109,12.11
1629456621125,12.4
1629456621140,12.42
1629456621156,12.18
1629456621171,11.73
1629456621187,11.15
1629456621203,10.51
1629456621218,9.81
1629456621234,9.06
1629456621250,8.24
1629456621265,7.41
1629456621281,6.61
1629456621296,5.93
1629456621312,5.36
1629456621328,4.86
1629456621343,4.3
1629456621359,3.57
1629456621375,2.56
1629456621390,1.2
1629456621406,-0.45
1629456621421,-2.28
1629456621437,-4.1
1629456621453,-5.72
1629456621468,-6.96
1629456621484,-7.8
1629456621500,-8.38
1629456621515,-8.95
1629456621531,-9.81
1629456621546,-11.12
1629456621562,-12.85
1629456621578,-14.7
1629456621593,-16.27
1629456621609,-17.16
1629456621625,-17.11
1629456621640,-16.09
1629456621656,-14.26
1629456621671,-11.92
1629456621687,-9.38
1629456621703,-6.88
1629456621718,-4.55
1629456621734,-2.44
1629456621750,-0.54
1629456621765,1.16
1629456621781,2.65
1629456621796,3.97
1629456621812,5.17
1629456621828,6.3
1629456621843,7.38
1629456621859,8.39
1629456621875,9.23
1629456621890,9.86
1629456621906,10.24
1629456621921,10.45
1629456621937,10.57
1629456621953,10.7
1629456621968,10.86
1629456621984,11.03
1629456622000,11.16
1629456622015,11.22
1629456622031,11.22
1629456622046,11.2
1629456622062,11.15
1629456622078,11.02
1629456622093,10.7
1629456622109,10.12
1629456622125,9.28
1629456622140,8.27
1629456622156,7.3
1629456622171,6.56
1629456622187,6.14
1629456622203,5.97
1629456622218,5.86
1629456622234,5.59
1629456622250,5.0
1629456622265,4.09
1629456622281,2.99
1629456622296,1.87
1629456622312,0.86
1629456622328,-0.06
1629456622343,-0.98
1629456622359,-2.03
1629456622375,-3.24
1629456622390,-4.56
1629456622406,-5.79
1629456622421,-6.75
1629456622437,-7.33
1629456622453,-7.54
1629456622468,-7.55
1629456622484,-7.62
1629456622500,-8.02
1629456622515,-8.89
1629456622531,-10.25
1629456622546,-11.94
1629456622562,-13.74
1629456622578,-15.41
1629456622593,-16.79
1629456622609,-17.72
1629456622625,-18.1
1629456622640,-17.78
1629456622656,-16.68
1629456622671,-14.78
1629456622687,-12.25
1629456622703,-9.39
1629456622718,-6.59
1629456622734,-4.16
1629456622750,-2.28
1629456622765,-0.92
1629456622781,0.1
1629456622796,0.99
1629456622812,1.85
1629456622828,2.71
1629456622843,3.48
1629456622859,4.07
1629456622875,4.48
1629456622890,4.74
1629456622906,4.95
1629456622921,5.2
1629456622937,5.5
1629456622953,5.8
1629456622968,6.08
1629456622984,6.32
1629456623000,6.61
1629456623015,7.06
1629456623031,7.74
1629456623046,8.59
1629456623062,9.46
1629456623078,10.12
1629456623093,10.38
1629456623109,10.15
1629456623125,9.52
1629456623140,8.67
1629456623156,7.81
1629456623171,7.08
1629456623187,6.5
1629456623203,5.95
1629456623218,5.3
1629456623234,4.42
1629456623250,3.32
1629456623265,2.11
1629456623281,0.98
1629456623296,0.09
1629456623312,-0.49
1629456623328,-0.84
1629456623343,-1.11
1629456623359,-1.5
1629456623375,-2.13
1629456623390,-2.99
1629456623406,-4.02
1629456623421,-5.1
1629456623437,-6.2
1629456623453,-7.31
1629456623468,-8.5
1629456623484,-9.89
1629456623500,-11.5
1629456623515,-13.29
1629456623531,-15.0
1629456623546,-16.33
1629456623562,-16.96
1629456623578,-16.73
1629456623593,-15.68
1629456623609,-14.04
1629456623625,-12.12
1629456623640,-10.18
1629456623656,-8.34
1629456623671,-6.6
1629456623687,-4.84
1629456623703,-2.96
1629456623718,-0.96
1629456623734,1.08
1629456623750,3.0
1629456623765,4.65
1629456623781,5.93
1629456623796,6.8
1629456623812,7.28
1629456623828,7.47
1629456623843,7.52
1629456623859,7.55
1629456623875,7.62
1629456623890,7.77
1629456623906,7.92
1629456623921,8.02
1629456623937,8.01
1629456623953,7.9
1629456623968,7.73
1629456623984,7.59
1629456624000,7.57
1629456624015,7.72
1629456624031,8.01
1629456624046,8.34
1629456624062,8.56
1629456624078,8.54
1629456624093,8.18
1629456624109,7.48
1629456624125,6.53
1629456624140,5.48
1629456624156,4.48
1629456624171,3.61
1629456624187,2.89
1629456624203,2.27
1629456624218,1.67
1629456624234,1.06
1629456624250,0.43
1629456624265,-0.17
1629456624281,-0.72
1629456624296,-1.25
1629456624312,-1.81
1629456624328,-2.53
1629456624343,-3.46
1629456624359,-4.63
1629456624375,-5.98
1629456624390,-7.37
1629456624406,-8.73
1629456624421,-10.02
1629456624437,-11.27
1629456624453,-12.53
1629456624468,-13.72
1629456624484,-14.68
1629456624500,-15.17
1629456624515,-14.98
1629456624531,-14.04
1629456624546,-12.45
1629456624562,-10.47
1629456624578,-8.42
1629456624593,-6.57
1629456624609,-5.03
1629456624625,-3.75
1629456624640,-2.59
1629456624656,-1.42
1629456624671,-0.16
1629456624687,1.16
1629456624703,2.41
1629456624718,3.48
1629456624734,4.27
1629456624750,4.79
1629456624765,5.14
1629456624781,5.44
1629456624796,5.79
1629456624812,6.24
1629456624828,6.75
1629456624843,7.25
1629456624859,7.68
1629456624875,8.0
1629456624890,8.2
1629456624906,8.28
1629456624921,8.25
1629456624937,8.1
1629456624953,7.81
1629456624968,7.37
1629456624984,6.8
1629456625000,6.18
1629456625015,5.62
1629456625031,5.23
1629456625046,5.08
1629456625062,5.08
1629456625078,5.07
1629456625093,4.81
1629456625109,4.19
1629456625125,3.21
1629456625140,2.07
1629456625156,1.04
1629456625171,0.29
1629456625187,-0.11
1629456625203,-0.31
1629456625218,-0.49
1629456625234,-0.77
1629456625250,-1.17
1629456625265,-1.65
1629456625281,-2.21
1629456625296,-2.94
1629456625312,-4.06
1629456625328,-5.74
1629456625343,-8.05
1629456625359,-10.86
1629456625375,-13.85
1629456625390,-16.6
1629456625406,-18.65
1629456625421,-19.67
1629456625437,-19.52
1629456625453,-18.26
1629456625468,-16.14
1629456625484,-13.59
1629456625500,-11.03
1629456625515,-8.8
1629456625531,-7.06
1629456625546,-5.78
1629456625562,-4.76
1629456625578,-3.8
1629456625593,-2.76
1629456625609,-1.63
1629456625625,-0.48
1629456625640,0.55
1629456625656,1.31
1629456625671,1.76
1629456625687,1.94
1629456625703,1.97
1629456625718,2.04
1629456625734,2.28
1629456625750,2.73
1629456625765,3.33
1629456625781,4.0
1629456625796,4.63
1629456625812,5.18
1629456625828,5.65
1629456625843,5.99
1629456625859,6.19
1629456625875,6.21
1629456625890,6.02
1629456625906,5.65
1629456625921,5.16
1629456625937,4.62
1629456625953,4.03
1629456625968,3.35
1629456625984,2.55
1629456626000,1.61
1629456626015,0.66
1629456626031,-0.15
1629456626046,-0.68
1629456626062,-0.91
1629456626078,-0.96
1629456626093,-0.99
1629456626109,-1.14
1629456626125,-1.49
1629456626140,-2.08
1629456626156,-2.9
1629456626171,-4.02
1629456626187,-5.47
1629456626203,-7.23
1629456626218,-9.17
1629456626234,-11.08
1629456626250,-12.78
1629456626265,-14.1
1629456626281,-15.01
1629456626296,-15.45
1629456626312,-15.36
1629456626328,-14.61
1629456626343,-13.15
1629456626359,-11.07
1629456626375,-8.61
1629456626390,-6.11
1629456626406,-3.8
1629456626421,-1.79
1629456626437,-0.05
1629456626453,1.49
1629456626468,2.85
1629456626484,3.96
1629456626500,4.75
1629456626515,5.18
1629456626531,5.37
1629456626546,5.53
1629456626562,5.88
1629456626578,6.56
1629456626593,7.58
1629456626609,8.78
1629456626625,9.92
1629456626640,10.77
1629456626656,11.17
1629456626671,11.09
1629456626687,10.67
1629456626703,10.07
1629456626718,9.46
1629456626734,8.96
1629456626750,8.58
1629456626765,8.24
1629456626781,7.87
1629456626796,7.4
1629456626812,6.81
1629456626828,6.06
1629456626843,5.1
1629456626859,3.9
1629456626875,2.46
1629456626890,0.87
1629456626906,-0.72
1629456626921,-2.11
1629456626937,-3.2
1629456626953,-3.98
1629456626968,-4.54
1629456626984,-5.02
1629456627000,-5.57
1629456627015,-6.31
1629456627031,-7.31
1629456627046,-8.62
1629456627062,-10.28
1629456627078,-12.3
1629456627093,-14.58
1629456627109,-16.93
1629456627125,-19.04
1629456627140,-20.58
1629456627156,-21.28
1629456627171,-20.99
1629456627187,-19.75
1629456627203,-17.71
1629456627218,-15.16
1629456627234,-12.39
1629456627250,-9.66
1629456627265,-7.11
1629456627281,-4.76
1629456627296,-2.55
1629456627312,-0.41
1629456627328,1.71
1629456627343,3.77
1629456627359,5.72
1629456627375,7.48
1629456627390,8.95
1629456627406,10.07
1629456627421,10.83
1629456627437,11.26
1629456627453,11.46
1629456627468,11.61
1629456627484,11.9
1629456627500,12.45
1629456627515,13.26
1629456627531,14.22
1629456627546,15.15
1629456627562,15.84
1629456627578,16.13
1629456627593,15.91
1629456627609,15.16
1629456627625,13.92
1629456627640,12.33
1629456627656,10.66
1629456627671,9.19
1629456627687,8.15
1629456627703,7.61
1629456627718,7.39
1629456627734,7.17
1629456627750,6.55
1629456627765,5.32
1629456627781,3.5
1629456627796,1.33
1629456627812,-0.82
1629456627828,-2.66
1629456627843,-4.1
1629456627859,-5.29
1629456627875,-6.49
1629456627890,-7.95
1629456627906,-9.76
1629456627921,-11.87
1629456627937,-14.09
1629456627953,-16.2
1629456627968,-17.96
1629456627984,-19.16
1629456628000,-19.61
1629456628015,-19.2
1629456628031,-17.94
1629456628046,-16.01
1629456628062,-13.7
1629456628078,-11.34
1629456628093,-9.16
1629456628109,-7.18
1629456628125,-5.27
1629456628140,-3.26
1629456628156,-1.06
1629456628171,1.28
1629456628187,3.58
1629456628203,5.61
1629456628218,7.17
1629456628234,8.14
1629456628250,8.58
1629456628265,8.64
1629456628281,8.58
1629456628296,8.68
1629456628312,9.08
1629456628328,9.76
1629456628343,10.52
1629456628359,11.17
1629456628375,11.55
1629456628390,11.69
1629456628406,11.67
1629456628421,11.57
1629456628437,11.38
1629456628453,11.02
1629456628468,10.38
1629456628484,9.48
1629456628500,8.44
1629456628515,7.46
1629456628531,6.64
1629456628546,5.94
1629456628562,5.14
1629456628578,4.01
1629456628593,2.38
1629456628609,0.26
1629456628625,-2.2
1629456628640,-4.77
1629456628656,-7.24
1629456628671,-9.43
1629456628687,-11.27
1629456628703,-12.68
1629456628718,-13.66
1629456628734,-14.24
1629456628750,-14.51
1629456628765,-14.6
1629456628781,-14.72
1629456628796,-15.01
1629456628812,-15.59
1629456628828,-16.44
1629456628843,-17.44
1629456628859,-18.4
1629456628875,-19.14
1629456628890,-19.44
1629456628906,-19.17
1629456628921,-18.22
1629456628937,-16.58
1629456628953,-14.34
1629456628968,-11.68
1629456628984,-8.88
1629456629000,-6.17
1629456629015,-3.76
1629456629031,-1.69
1629456629046,0.14
1629456629062,1.95
1629456629078,3.96
1629456629093,6.35
1629456629109,9.08
1629456629125,11.91
1629456629140,14.44
1629456629156,16.25
1629456629171,17.11
1629456629187,17.1
1629456629203,16.61
1629456629218,16.17
1629456629234,16.19
1629456629250,16.78
1629456629265,17.7
1629456629281,18.57
1629456629296,19.06
1629456629312,19.07
1629456629328,18.74
1629456629343,18.33
1629456629359,17.94
1629456629375,17.53
1629456629390,16.93
1629456629406,16.03
1629456629421,14.88
1629456629437,13.69
1629456629453,12.69
1629456629468,11.98
1629456629484,11.48
1629456629500,10.97
1629456629515,10.21
1629456629531,9.07
1629456629546,7.57
1629456629562,5.83
1629456629578,4.01
1629456629593,2.22
1629456629609,0.56
1629456629625,-0.9
1629456629640,-2.11
1629456629656,-3.11
1629456629671,-3.99
1629456629687,-5.0
1629456629703,-6.37
1629456629718,-8.31
1629456629734,-10.85
1629456629750,-13.8
1629456629765,-16.81
1629456629781,-19.49
1629456629796,-21.48
1629456629812,-22.56
1629456629828,-22.65
1629456629843,-21.74
1629456629859,-19.89
1629456629875,-17.22
1629456629890,-13.96
1629456629906,-10.42
1629456629921,-6.94
1629456629937,-3.81
1629456629953,-1.12
1629456629968,1.2
1629456629984,3.34
1629456630000,5.47
1629456630015,7.65
1629456630031,9.75
1629456630046,11.56
1629456630062,12.9
1629456630078,13.73
1629456630093,14.13
1629456630109,14.26
1629456630125,14.32
1629456630140,14.46
1629456630156,14.7
1629456630171,15.03
1629456630187,15.36
1629456630203,15.57
1629456630218,15.6
1629456630234,15.44
1629456630250,15.18
1629456630265,14.95
1629456630281,14.89
1629456630296,15.07
1629456630312,15.45
1629456630328,15.93
1629456630343,16.34
1629456630359,16.54
1629456630375,16.41
1629456630390,15.88
1629456630406,14.89
1629456630421,13.46
1629456630437,11.67
1629456630453,9.64
1629456630468,7.54
1629456630484,5.54
1629456630500,3.69
1629456630515,2.0
1629456630531,0.39
1629456630546,-1.18
1629456630562,-2.72
1629456630578,-4.18
1629456630593,-5.5
1629456630609,-6.62
1629456630625,-7.59
1629456630640,-8.51
1629456630656,-9.58
1629456630671,-10.95
1629456630687,-12.72
1629456630703,-14.89
1629456630718,-17.25
1629456630734,-19.5
1629456630750,-21.23
1629456630765,-22.08
1629456630781,-21.86
1629456630796,-20.55
1629456630812,-18.32
1629456630828,-15.45
1629456630843,-12.24
1629456630859,-8.94
1629456630875,-5.74
1629456630890,-2.78
1629456630906,-0.19
1629456630921,1.99
1629456630937,3.74
1629456630953,5.14
1629456630968,6.29
1629456630984,7.3
1629456631000,8.24
1629456631015,9.15
1629456631031,10.0
1629456631046,10.77
1629456631062,11.43
1629456631078,11.97
1629456631093,12.44
1629456631109,12.89
1629456631125,13.36
1629456631140,13.9
1629456631156,14.43
1629456631171,14.88
1629456631187,15.1
1629456631203,15.0
1629456631218,14.52
1629456631234,13.68
1629456631250,12.54
1629456631265,11.21
1629456631281,9.77
1629456631296,8.37
1629456631312,7.12
1629456631328,6.12
1629456631343,5.39
1629456631359,4.86
1629456631375,4.4
1629456631390,3.83
1629456631406,3.01
1629456631421,1.84
1629456631437,0.38
1629456631453,-1.25
1629456631468,-2.89
1629456631484,-4.4
1629456631500,-5.73
1629456631515,-6.94
1629456631531,-8.09
1629456631546,-9.22
1629456631562,-10.3
1629456631578,-11.28
1629456631593,-12.08
1629456631609,-12.77
1629456631625,-13.45
1629456631640,-14.29
1629456631656,-15.38
1629456631671,-16.69
1629456631687,-18.04
1629456631703,-19.22
1629456631718,-20.02
1629456631734,-20.3
1629456631750,-19.95
1629456631765,-18.9
1629456631781,-17.14
1629456631796,-14.72
1629456631812,-11.82
1629456631828,-8.7
1629456631843,-5.69
1629456631859,-3.01
1629456631875,-0.74
1629456631890,1.16
1629456631906,2.79
1629456631921,4.17
1629456631937,5.3
1629456631953,6.15
1629456631968,6.77
1629456631984,7.3
1629456632000,7.97
1629456632015,8.9
1629456632031,10.06
1629456632046,11.27
1629456632062,12.3
1629456632078,12.98
1629456632093,13.27
1629456632109,13.28
1629456632125,13.14
1629456632140,12.96
1629456632156,12.7
1629456632171,12.27
1629456632187,11.57
1629456632203,10.56
1629456632218,9.29
1629456632234,7.9
1629456632250,6.52
1629456632265,5.24
1629456632281,4.11
1629456632296,3.16
1629456632312,2.36
1629456632328,1.76
1629456632343,1.35
1629456632359,1.07
1629456632375,0.77
1629456632390,0.29
1629456632406,-0.51
1629456632421,-1.64
1629456632437,-3.02
1629456632453,-4.51
1629456632468,-6.04
1629456632484,-7.63
1629456632500,-9.31
1629456632515,-11.07
1629456632531,-12.73
1629456632546,-13.99
1629456632562,-14.51
1629456632578,-14.08
1629456632593,-12.7
1629456632609,-10.58
1629456632625,-8.03
1629456632640,-5.38
1629456632656,-2.85
1629456632671,-0.58
1629456632687,1.4
1629456632703,3.08
1629456632718,4.44
1629456632734,5.47
1629456632750,6.2
1629456632765,6.69
1629456632781,7.06
1629456632796,7.42
1629456632812,7.8
1629456632828,8.14
1629456632843,8.31
1629456632859,8.24
1629456632875,7.96
1629456632890,7.62
1629456632906,7.38
1629456632921,7.3
1629456632937,7.39
1629456632953,7.55
1629456632968,7.72
1629456632984,7.89
1629456633000,8.05
1629456633015,8.13
1629456633031,7.98
1629456633046,7.45
1629456633062,6.46
1629456633078,5.1
1629456633093,3.58
1629456633109,2.05
1629456633125,0.55
1629456633140,-0.98
1629456633156,-2.63
1629456633171,-4.33
1629456633187,-5.87
1629456633203,-7.01
1629456633218,-7.63
1629456633234,-7.82
1629456633250,-7.87
1629456633265,-8.11
1629456633281,-8.76
1629456633296,-9.87
1629456633312,-11.28
1629456633328,-12.79
1629456633343,-14.19
1629456633359,-15.32
1629456633375,-16.06
1629456633390,-16.31
1629456633406,-16.01
1629456633421,-15.15
1629456633437,-13.75
1629456633453,-11.93
1629456633468,-9.89
1629456633484,-7.84
1629456633500,-5.99
1629456633515,-4.42
1629456633531,-3.15
1629456633546,-2.07
1629456633562,-1.07
1629456633578,-0.06
1629456633593,1.01
1629456633609,2.13
1629456633625,3.26
1629456633640,4.32
1629456633656,5.18
1629456633671,5.75
1629456633687,5.99
1629456633703,5.92
1629456633718,5.68
1629456633734,5.48
1629456633750,5.45
1629456633765,5.66
1629456633781,6.04
1629456633796,6.45
1629456633812,6.78
1629456633828,6.92
1629456633843,6.8
1629456633859,6.34
1629456633875,5.49
1629456633890,4.31
1629456633906,2.93
1629456633921,1.61
1629456633937,0.64
1629456633953,0.18
1629456633968,0.24
1629456633984,0.61
1629456634000,0.99
1629456634015,1.08
1629456634031,0.68
1629456634046,-0.27
1629456634062,-1.63
1629456634078,-3.19
1629456634093,-4.72
1629456634109,-6.01
1629456634125,-6.99
1629456634140,-7.7
1629456634156,-8.29
1629456634171,-8.87
1629456634187,-9.52
1629456634203,-10.22
1629456634218,-10.99
1629456634234,-11.79
1629456634250,-12.51
1629456634265,-13.01
1629456634281,-13.05
1629456634296,-12.37
1629456634312,-10.86
1629456634328,-8.6
1629456634343,-5.87
1629456634359,-3.09
1629456634375,-0.64
1629456634390,1.28
1629456634406,2.6
1629456634421,3.35
1629456634437,3.66
1629456634453,3.66
1629456634468,3.48
1629456634484,3.27
1629456634500,3.17
1629456634515,3.22
1629456634531,3.39
1629456634546,3.56
1629456634562,3.64
1629456634578,3.59
1629456634593,3.4
1629456634609,3.12
1629456634625,2.75
1629456634640,2.33
1629456634656,1.87
1629456634671,1.46
1629456634687,1.2
1629456634703,1.22
1629456634718,1.55
1629456634734,2.12
1629456634750,2.76
1629456634765,3.29
1629456634781,3.53
1629456634796,3.38
1629456634812,2.8
1629456634828,1.83
1629456634843,0.58
1629456634859,-0.85
1629456634875,-2.29
1629456634890,-3.61
1629456634906,-4.62
1629456634921,-5.22
1629456634937,-5.38
1629456634953,-5.21
1629456634968,-4.98
1629456634984,-5.06
1629456635000,-5.75
1629456635015,-7.17
1629456635031,-9.14
1629456635046,-11.19
1629456635062,-12.75
1629456635078,-13.36
1629456635093,-12.8
1629456635109,-11.23
1629456635125,-9.01
1629456635140,-6.6
1629456635156,-4.36
1629456635171,-2.52
1629456635187,-1.08
1629456635203,0.03
1629456635218,0.94
1629456635234,1.74
1629456635250,2.48
1629456635265,3.15
1629456635281,3.7
1629456635296,4.14
1629456635312,4.45
1629456635328,4.67
1629456635343,4.78
1629456635359,4.77
1629456635375,4.6
1629456635390,4.28
1629456635406,3.87
1629456635421,3.48
1629456635437,3.2
1629456635453,3.06
1629456635468,3.04
1629456635484,3.06
1629456635500,3.03
1629456635515,2.89
1629456635531,2.56
1629456635546,1.95
1629456635562,1.01
1629456635578,-0.23
1629456635593,-1.67
1629456635609,-3.07
1629456635625,-4.22
1629456635640,-5.0
1629456635656,-5.46
1629456635671,-5.76
1629456635687,-6.09
1629456635703,-6.56
1629456635718,-7.23
1629456635734,-8.1
1629456635750,-9.13
1629456635765,-10.29
1629456635781,-11.49
1629456635796,-12.59
1629456635812,-13.38
1629456635828,-13.7
1629456635843,-13.4
1629456635859,-12.46
1629456635875,-10.91
1629456635890,-8.83
1629456635906,-6.41
1629456635921,-3.89
1629456635937,-1.57
1629456635953,0.28
1629456635968,1.57
1629456635984,2.4
1629456636000,3.0
1629456636015,3.66
1629456636031,4.53
1629456636046,5.56
1629456636062,6.55
1629456636078,7.27
1629456636093,7.57
1629456636109,7.45
1629456636125,7.02
1629456636140,6.46
1629456636156,5.85
1629456636171,5.26
1629456636187,4.66
1629456636203,4.08
1629456636218,3.59
1629456636234,3.31
1629456636250,3.28
1629456636265,3.44
1629456636281,3.59
1629456636296,3.47
1629456636312,2.89
1629456636328,1.89
1629456636343,0.68
1629456636359,-0.45
1629456636375,-1.28
1629456636390,-1.86
1629456636406,-2.41
1629456636421,-3.26
1629456636437,-4.57
1629456636453,-6.32
1629456636468,-8.28
1629456636484,-10.2
1629456636500,-11.87
1629456636515,-13.18
1629456636531,-14.07
1629456636546,-14.45
1629456636562,-14.21
1629456636578,-13.27
1629456636593,-11.68
1629456636609,-9.59
1629456636625,-7.28
1629456636640,-4.98
1629456636656,-2.91
1629456636671,-1.13
1629456636687,0.36
1629456636703,1.65
1629456636718,2.82
1629456636734,3.94
1629456636750,4.99
1629456636765,5.91
1629456636781,6.6
1629456636796,7.01
1629456636812,7.19
1629456636828,7.32
1629456636843,7.55
1629456636859,7.93
1629456636875,8.38
1629456636890,8.72
1629456636906,8.82
1629456636921,8.71
1629456636937,8.55
1629456636953,8.46
1629456636968,8.5
1629456636984,8.55
1629456637000,8.38
1629456637015,7.81
1629456637031,6.79
1629456637046,5.41
1629456637062,3.83
1629456637078,2.21
1629456637093,0.64
1629456637109,-0.82
1629456637125,-2.12
1629456637140,-3.2
1629456637156,-3.97
1629456637171,-4.43
1629456637187,-4.67
1629456637203,-4.9
1629456637218,-5.36
1629456637234,-6.25
1629456637250,-7.63
1629456637265,-9.36
1629456637281,-11.19
1629456637296,-12.76
1629456637312,-13.76
1629456637328,-14.04
1629456637343,-13.54
1629456637359,-12.37
1629456637375,-10.67
1629456637390,-8.64
1629456637406,-6.53
1629456637421,-4.56
1629456637437,-2.89
1629456637453,-1.53
1629456637468,-0.33
1629456637484,0.93
1629456637500,2.44
1629456637515,4.23
1629456637531,6.13
1629456637546,7.85
1629456637562,9.09
1629456637578,9.72
1629456637593,9.78
1629456637609,9.43
1629456637625,8.91
1629456637640,8.38
1629456637656,7.92
1629456637671,7.52
1629456637687,7.12
1629456637703,6.67
1629456637718,6.16
1629456637734,5.61
1629456637750,5.05
1629456637765,4.51
1629456637781,3.97
1629456637796,3.42
1629456637812,2.8
1629456637828,2.11
1629456637843,1.36
1629456637859,0.61
1629456637875,-0.12
1629456637890,-0.86
1629456637906,-1.69
1629456637921,-2.7
1629456637937,-3.92
1629456637953,-5.28
1629456637968,-6.67
1629456637984,-7.98
1629456638000,-9.14
1629456638015,-10.2
1629456638031,-11.25
1629456638046,-12.35
1629456638062,-13.46
1629456638078,-14.42
1629456638093,-14.99
1629456638109,-14.98
1629456638125,-14.28
1629456638140,-12.93
1629456638156,-11.08
1629456638171,-8.95
1629456638187,-6.72
1629456638203,-4.51
1629456638218,-2.37
1629456638234,-0.31
1629456638250,1.64
1629456638265,3.42
1629456638281,4.92
1629456638296,6.08
1629456638312,6.89
1629456638328,7.52
1629456638343,8.11
1629456638359,8.81
1629456638375,9.62
1629456638390,10.39
1629456638406,10.9
1629456638421,11.02
1629456638437,10.79
1629456638453,10.46
1629456638468,10.3
1629456638484,10.46
1629456638500,10.86
1629456638515,11.23
1629456638531,11.22
1629456638546,10.63
1629456638562,9.45
1629456638578,7.9
1629456638593,6.25
1629456638609,4.68
1629456638625,3.24
1629456638640,1.87
1629456638656,0.53
1629456638671,-0.74
1629456638687,-1.83
1629456638703,-2.66
1629456638718,-3.31
1629456638734,-3.98
1629456638750,-5.01
1629456638765,-6.6
1629456638781,-8.75
1629456638796,-11.16
1629456638812,-13.34
1629456638828,-14.76
1629456638843,-15.04
1629456638859,-14.12
1629456638875,-12.22
1629456638890,-9.75
1629456638906,-7.15
1629456638921,-4.7
1629456638937,-2.52
1629456638953,-0.55
1629456638968,1.27
1629456638984,2.96
1629456639000,4.48
1629456639015,5.78
1629456639031,6.87
1629456639046,7.85
1629456639062,8.79
1629456639078,9.71
1629456639093,10.54
1629456639109,11.15
1629456639125,11.44
1629456639140,11.43
1629456639156,11.27
1629456639171,11.13
1629456639187,11.13
1629456639203,11.28
1629456639218,11.48
1629456639234,11.58
1629456639250,11.5
1629456639265,11.22
1629456639281,10.8
1629456639296,10.28
1629456639312,9.69
1629456639328,8.99
1629456639343,8.14
1629456639359,7.07
1629456639375,5.77
1629456639390,4.23
1629456639406,2.53
1629456639421,0.79
1629456639437,-0.82
1629456639453,-2.14
1629456639468,-3.13
1629456639484,-3.87
1629456639500,-4.56
1629456639515,-5.48
1629456639531,-6.82
1629456639546,-8.59
1629456639562,-10.58
1629456639578,-12.4
1629456639593,-13.61
1629456639609,-13.87
1629456639625,-13.02
1629456639640,-11.17
1629456639656,-8.66
1629456639671,-5.9
1629456639687,-3.28
1629456639703,-1.0
1629456639718,0.95
1629456639734,2.68
1629456639750,4.31
1629456639765,5.85
1629456639781,7.19
1629456639796,8.25
1629456639812,9.01
1629456639828,9.57
1629456639843,10.1
1629456639859,10.7
1629456639875,11.35
1629456639890,11.93
1629456639906,12.36
1629456639921,12.62
1629456639937,12.82
1629456639953,13.08
1629456639968,13.41
1629456639984,13.73
1629456640000,13.9
1629456640015,13.83
1629456640031,13.56
1629456640046,13.23
1629456640062,13.02
1629456640078,12.99
1629456640093,13.05
1629456640109,13.03
1629456640125,12.8
1629456640140,12.31
1629456640156,11.62
1629456640171,10.83
1629456640187,10.03
1629456640203,9.25
1629456640218,8.46
1629456640234,7.66
1629456640250,6.83
1629456640265,6.05
1629456640281,5.32
1629456640296,4.63
1629456640312,3.92
1629456640328,3.1
1629456640343,2.15
1629456640359,1.15
1629456640375,0.23
1629456640390,-0.51
1629456640406,-1.05
1629456640421,-1.55
1629456640437,-2.15
1629456640453,-3.0
1629456640468,-4.09
1629456640484,-5.29
1629456640500,-6.44
1629456640515,-7.44
1629456640531,-8.29
1629456640546,-9.15
1629456640562,-10.21
1629456640578,-11.6
1629456640593,-13.35
1629456640609,-15.35
1629456640625,-17.39
1629456640640,-19.19
1629456640656,-20.44
1629456640671,-20.88
1629456640687,-20.37
1629456640703,-18.91
1629456640718,-16.68
1629456640734,-13.99
1629456640750,-11.2
1629456640765,-8.56
1629456640781,-6.24
1629456640796,-4.23
1629456640812,-2.48
1629456640828,-0.91
1629456640843,0.54
1629456640859,1.86
1629456640875,3.01
1629456640890,3.99
1629456640906,4.8
1629456640921,5.49
1629456640937,6.15
1629456640953,6.81
1629456640968,7.52
1629456640984,8.23
1629456641000,8.9
1629456641015,9.51
1629456641031,10.03
1629456641046,10.47
1629456641062,10.8
1629456641078,11.0
1629456641093,11.04
1629456641109,10.91
1629456641125,10.59
1629456641140,10.08
1629456641156,9.36
1629456641171,8.44
1629456641187,7.36
1629456641203,6.23
1629456641218,5.18
1629456641234,4.29
1629456641250,3.56
1629456641265,2.91
1629456641281,2.24
1629456641296,1.51
1629456641312,0.73
1629456641328,-0.06
1629456641343,-0.88
1629456641359,-1.8
1629456641375,-2.93
1629456641390,-4.29
1629456641406,-5.79
1629456641421,-7.18
1629456641437,-8.24
1629456641453,-8.86
1629456641468,-9.17
1629456641484,-9.41
1629456641500,-9.86
1629456641515,-10.71
1629456641531,-12.01
1629456641546,-13.69
1629456641562,-15.54
1629456641578,-17.33
1629456641593,-18.79
1629456641609,-19.6
1629456641625,-19.53
1629456641640,-18.45
1629456641656,-16.43
1629456641671,-13.73
1629456641687,-10.72
1629456641703,-7.82
1629456641718,-5.32
1629456641734,-3.39
1629456641750,-2.06
1629456641765,-1.24
1629456641781,-0.76
1629456641796,-0.46
1629456641812,-0.16
1629456641828,0.28
1629456641843,0.95
1629456641859,1.86
1629456641875,2.99
1629456641890,4.21
1629456641906,5.37
1629456641921,6.33
1629456641937,6.98
1629456641953,7.29
1629456641968,7.29
1629456641984,7.04
1629456642000,6.64
1629456642015,6.18
1629456642031,5.78
1629456642046,5.49
1629456642062,5.33
1629456642078,5.23
1629456642093,5.02
1629456642109,4.56
1629456642125,3.77
1629456642140,2.7
1629456642156,1.48
1629456642171,0.33
1629456642187,-0.67
1629456642203,-1.49
1629456642218,-2.17
1629456642234,-2.74
1629456642250,-3.2
1629456642265,-3.5
1629456642281,-3.67
1629456642296,-3.83
1629456642312,-4.16
1629456642328,-4.82
1629456642343,-5.89
1629456642359,-7.28
1629456642375,-8.83
1629456642390,-10.35
1629456642406,-11.66
1629456642421,-12.6
1629456642437,-13.01
1629456642453,-12.72
1629456642468,-11.63
1629456642484,-9.79
1629456642500,-7.44
1629456642515,-4.95
1629456642531,-2.71
1629456642546,-0.97
1629456642562,0.23
1629456642578,1.08
1629456642593,1.84
1629456642609,2.7
1629456642625,3.7
1629456642640,4.72
1629456642656,5.54
1629456642671,6.0
1629456642687,6.05
1629456642703,5.83
1629456642718,5.55
1629456642734,5.39
1629456642750,5.45
1629456642765,5.7
1629456642781,6.03
1629456642796,6.34
1629456642812,6.61
1629456642828,6.83
1629456642843,7.02
1629456642859,7.13
1629456642875,7.07
1629456642890,6.69
1629456642906,5.94
1629456642921,4.92
1629456642937,3.8
1629456642953,2.85
1629456642968,2.24
1629456642984,1.98
1629456643000,1.92
1629456643015,1.81
1629456643031,1.42
1629456643046,0.66
1629456643062,-0.45
1629456643078,-1.73
1629456643093,-3.0
1629456643109,-4.12
1629456643125,-5.07
1629456643140,-5.91
1629456643156,-6.76
1629456643171,-7.65
1629456643187,-8.62
1629456643203,-9.63
1629456643218,-10.68
1629456643234,-11.81
1629456643250,-13.01
1629456643265,-14.17
1629456643281,-15.05
1629456643296,-15.36
1629456643312,-14.88
1629456643328,-13.56
1629456643343,-11.63
1629456643359,-9.43
1629456643375,-7.28
1629456643390,-5.36
1629456643406,-3.67
1629456643421,-2.16
1629456643437,-0.79
1629456643453,0.41
1629456643468,1.39
1629456643484,2.14
1629456643500,2.75
1629456643515,3.3
1629456643531,3.85
1629456643546,4.4
1629456643562,4.9
1629456643578,5.3
1629456643593,5.63
1629456643609,5.95
1629456643625,6.31
1629456643640,6.73
1629456643656,7.14
1629456643671,7.51
1629456643687,7.84
1629456643703,8.18
1629456643718,8.58
1629456643734,9.0
1629456643750,9.3
1629456643765,9.27
1629456643781,8.74
1629456643796,7.71
1629456643812,6.34
1629456643828,4.87
1629456643843,3.54
1629456643859,2.51
1629456643875,1.79
1629456643890,1.32
1629456643906,0.96
1629456643921,0.6
1629456643937,0.14
1629456643953,-0.47
1629456643968,-1.25
1629456643984,-2.18
1629456644000,-3.21
1629456644015,-4.26
1629456644031,-5.29
1629456644046,-6.29
1629456644062,-7.34
1629456644078,-8.55
1629456644093,-10.04
1629456644109,-11.8
1629456644125,-13.67
1629456644140,-15.34
1629456644156,-16.49
1629456644171,-16.88
1629456644187,-16.44
1629456644203,-15.27
1629456644218,-13.56
1629456644234,-11.53
1629456644250,-9.34
1629456644265,-7.11
1629456644281,-4.96
1629456644296,-2.98
1629456644312,-1.23
1629456644328,0.26
1629456644343,1.51
1629456644359,2.52
1629456644375,3.25
1629456644390,3.66
1629456644406,3.76
1629456644421,3.62
1629456644437,3.44
1629456644453,3.43
1629456644468,3.76
1629456644484,4.43
1629456644500,5.36
1629456644515,6.37
1629456644531,7.33
1629456644546,8.11
1629456644562,8.64
1629456644578,8.84
1629456644593,8.68
1629456644609,8.17
1629456644625,7.35
1629456644640,6.37
1629456644656,5.34
1629456644671,4.38
1629456644687,3.51
1629456644703,2.72
1629456644718,1.98
1629456644734,1.27
1629456644750,0.61
1629456644765,0.01
1629456644781,-0.48
1629456644796,-0.87
1629456644812,-1.2
1629456644828,-1.53
1629456644843,-1.96
1629456644859,-2.58
1629456644875,-3.48
1629456644890,-4.7
1629456644906,-6.22
1629456644921,-7.93
1629456644937,-9.65
1629456644953,-11.1
1629456644968,-12.0
1629456644984,-12.17
1629456645000,-11.53
1629456645015,-10.16
1629456645031,-8.24
1629456645046,-6.02
1629456645062,-3.71
1629456645078,-1.55
1629456645093,0.29
1629456645109,1.7
1629456645125,2.7
1629456645140,3.4
1629456645156,3.99
1629456645171,4.65
1629456645187,5.48
1629456645203,6.45
1629456645218,7.43
1629456645234,8.26
1629456645250,8.82
1629456645265,9.05
1629456645281,8.97
1629456645296,8.64
1629456645312,8.2
1629456645328,7.8
1629456645343,7.57
1629456645359,7.58
1629456645375,7.75
1629456645390,7.95
1629456645406,8.0
1629456645421,7.83
1629456645437,7.43
1629456645453,6.87
1629456645468,6.16
1629456645484,5.26
1629456645500,4.06
1629456645515,2.55
1629456645531,0.84
1629456645546,-0.82
1629456645562,-2.17
1629456645578,-3.06
1629456645593,-3.54
1629456645609,-3.8
1629456645625,-4.12
1629456645640,-4.71
1629456645656,-5.71
1629456645671,-7.17
1629456645687,-9.03
1629456645703,-11.12
1629456645718,-13.15
1629456645734,-14.75
1629456645750,-15.58
1629456645765,-15.45
1629456645781,-14.37
1629456645796,-12.55
1629456645812,-10.3
1629456645828,-7.94
1629456645843,-5.71
1629456645859,-3.76
1629456645875,-2.13
1629456645890,-0.75
1629456645906,0.5
1629456645921,1.85
1629456645937,3.41
1629456645953,5.21
1629456645968,7.09
1629456645984,8.78
1629456646000,10.05
1629456646015,10.75
1629456646031,10.91
1629456646046,10.7
1629456646062,10.3
1629456646078,9.88
1629456646093,9.6
1629456646109,9.59
1629456646125,9.93
1629456646140,10.6
1629456646156,11.43
1629456646171,12.2
1629456646187,12.65
1629456646203,12.65
1629456646218,12.18
1629456646234,11.34
1629456646250,10.23
1629456646265,8.95
1629456646281,7.55
1629456646296,6.12
1629456646312,4.79
1629456646328,3.69
1629456646343,2.89
1629456646359,2.34
1629456646375,1.88
1629456646390,1.29
1629456646406,0.44
1629456646421,-0.7
1629456646437,-2.05
1629456646453,-3.49
1629456646468,-4.89
1629456646484,-6.17
1629456646500,-7.3
1629456646515,-8.33
1629456646531,-9.35
1629456646546,-10.54
1629456646562,-12.04
1629456646578,-13.91
1629456646593,-16.04
1629456646609,-18.19
1629456646625,-20.0
1629456646640,-21.13
1629456646656,-21.34
1629456646671,-20.53
1629456646687,-18.75
1629456646703,-16.2
1629456646718,-13.12
1629456646734,-9.84
1629456646750,-6.65
1629456646765,-3.83
1629456646781,-1.52
1629456646796,0.22
1629456646812,1.46
1629456646828,2.31
1629456646843,2.88
1629456646859,3.26
1629456646875,3.52
1629456646890,3.73
1629456646906,3.93
1629456646921,4.19
1629456646937,4.53
1629456646953,4.98
1629456646968,5.51
1629456646984,6.1
1629456647000,6.68
1629456647015,7.18
1629456647031,7.5
1629456647046,7.6
1629456647062,7.47
1629456647078,7.19
1629456647093,6.85
1629456647109,6.56
1629456647125,6.34
1629456647140,6.16
1629456647156,5.91
1629456647171,5.5
1629456647187,4.85
1629456647203,3.97
1629456647218,2.93
1629456647234,1.83
1629456647250,0.8
1629456647265,-0.09
1629456647281,-0.83
1629456647296,-1.43
1629456647312,-1.95
1629456647328,-2.42
1629456647343,-2.92
1629456647359,-3.52
1629456647375,-4.35
1629456647390,-5.47
1629456647406,-6.95
1629456647421,-8.71
1629456647437,-10.56
1629456647453,-12.22
1629456647468,-13.39
1629456647484,-13.83
1629456647500,-13.43
1629456647515,-12.19
1629456647531,-10.25
1629456647546,-7.84
1629456647562,-5.26
1629456647578,-2.75
1629456647593,-0.5
1629456647609,1.47
1629456647625,3.21
1629456647640,4.76
1629456647656,6.14
1629456647671,7.28
1629456647687,8.12
1629456647703,8.65
1629456647718,8.96
1629456647734,9.21
1629456647750,9.51
1629456647765,9.92
1629456647781,10.36
1629456647796,10.75
1629456647812,11.04
1629456647828,11.24
1629456647843,11.44
1629456647859,11.68
1629456647875,11.92
1629456647890,12.04
1629456647906,11.9
1629456647921,11.4
1629456647937,10.6
1629456647953,9.65
1629456647968,8.72
1629456647984,7.9
1629456648000,7.16
1629456648015,6.34
1629456648031,5.27
1629456648046,3.89
1629456648062,2.26
1629456648078,0.57
1629456648093,-1.03
1629456648109,-2.47
1629456648125,-3.83
1629456648140,-5.23
1629456648156,-6.8
1629456648171,-8.53
1629456648187,-10.34
1629456648203,-12.05
1629456648218,-13.54
1629456648234,-14.75
1629456648250,-15.66
1629456648265,-16.21
1629456648281,-16.31
1629456648296,-15.86
1629456648312,-14.77
1629456648328,-13.09
1629456648343,-10.97
1629456648359,-8.6
1629456648375,-6.2
1629456648390,-3.88
1629456648406,-1.66
1629456648421,0.49
1629456648437,2.54
1629456648453,4.44
1629456648468,6.04
1629456648484,7.28
1629456648500,8.14
1629456648515,8.76
1629456648531,9.32
1629456648546,9.93
1629456648562,10.6
1629456648578,11.21
1629456648593,11.65
1629456648609,11.89
1629456648625,12.05
1629456648640,12.28
1629456648656,12.7
1629456648671,13.29
1629456648687,13.9
1629456648703,14.32
1629456648718,14.41
1629456648734,14.14
1629456648750,13.63
1629456648765,12.97
1629456648781,12.27
1629456648796,11.53
1629456648812,10.77
1629456648828,10.04
1629456648843,9.38
1629456648859,8.82
1629456648875,8.35
1629456648890,7.88
1629456648906,7.32
1629456648921,6.61
1629456648937,5.76
1629456648953,4.81
1629456648968,3.85
1629456648984,2.93
1629456649000,2.07
1629456649015,1.24
1629456649031,0.38
1629456649046,-0.58
1629456649062,-1.67
1629456649078,-2.86
1629456649093,-4.07
1629456649109,-5.2
1629456649125,-6.17
1629456649140,-7.05
1629456649156,-7.98
1629456649171,-9.19
1629456649187,-10.82
1629456649203,-12.86
1629456649218,-15.15
1629456649234,-17.43
1629456649250,-19.45
1629456649265,-21.04
1629456649281,-22.06
1629456649296,-22.39
1629456649312,-21.93
1629456649328,-20.6
1629456649343,-18.45
1629456649359,-15.66
1629456649375,-12.57
1629456649390,-9.57
1629456649406,-6.96
1629456649421,-4.87
1629456649437,-3.22
1629456649453,-1.81
1629456649468,-0.4
1629456649484,1.18
1629456649500,2.98
1629456649515,4.9
1629456649531,6.77
1629456649546,8.38
1629456649562,9.57
1629456649578,10.23
1629456649593,10.43
1629456649609,10.36
1629456649625,10.26
1629456649640,10.37
1629456649656,10.81
1629456649671,11.56
1629456649687,12.47
1629456649703,13.32
1629456649718,13.9
1629456649734,14.0
1629456649750,13.56
1629456649765,12.63
1629456649781,11.41
1629456649796,10.16
1629456649812,9.15
1629456649828,8.5
1629456649843,8.19
1629456649859,8.07
1629456649875,7.95
1629456649890,7.67
1629456649906,7.18
1629456649921,6.47
1629456649937,5.56
1629456649953,4.49
1629456649968,3.28
1629456649984,2.02
1629456650000,0.79
1629456650015,-0.33
1629456650031,-1.33
1629456650046,-2.25
1629456650062,-3.14
1629456650078,-4.05
1629456650093,-4.97
1629456650109,-5.85
1629456650125,-6.7
1629456650140,-7.54
1629456650156,-8.43
1629456650171,-9.45
1629456650187,-10.64
1629456650203,-12.04
1629456650218,-13.61
1629456650234,-15.29
1629456650250,-16.95
1629456650265,-18.37
1629456650281,-19.34
1629456650296,-19.64
1629456650312,-19.18
1629456650328,-17.98
1629456650343,-16.2
1629456650359,-14.06
1629456650375,-11.77
1629456650390,-9.49
1629456650406,-7.35
1629456650421,-5.36
1629456650437,-3.52
1629456650453,-1.81
1629456650468,-0.18
1629456650484,1.39
1629456650500,2.93
1629456650515,4.42
1629456650531,5.83
1629456650546,7.08
1629456650562,8.13
1629456650578,8.95
1629456650593,9.54
1629456650609,9.92
1629456650625,10.15
1629456650640,10.25
1629456650656,10.23
1629456650671,10.12
1629456650687,9.97
1629456650703,9.83
1629456650718,9.73
1629456650734,9.65
1629456650750,9.48
1629456650765,9.15
1629456650781,8.58
1629456650796,7.85
1629456650812,7.12
1629456650828,6.62
1629456650843,6.48
1629456650859,6.71
1629456650875,7.15
1629456650890,7.5
1629456650906,7.52
1629456650921,7.05
1629456650937,6.14
1629456650953,4.91
1629456650968,3.56
1629456650984,2.2
1629456651000,0.88
1629456651015,-0.42
1629456651031,-1.71
1629456651046,-3.0
1629456651062,-4.23
1629456651078,-5.37
1629456651093,-6.42
1629456651109,-7.45
1629456651125,-8.59
1629456651140,-9.96
1629456651156,-11.64
1629456651171,-13.64
1629456651187,-15.83
1629456651203,-18.0
1629456651218,-19.86
1629456651234,-21.1
1629456651250,-21.5
1629456651265,-20.98
1629456651281,-19.62
1629456651296,-17.65
1629456651312,-15.34
1629456651328,-12.98
1629456651343,-10.75
1629456651359,-8.75
1629456651375,-7.0
1629456651390,-5.43
1629456651406,-3.94
1629456651421,-2.44
1629456651437,-0.89
1629456651453,0.72
1629456651468,2.32
1629456651484,3.8
1629456651500,5.05
1629456651515,5.98
1629456651531,6.53
1629456651546,6.77
1629456651562,6.8
1629456651578,6.82
1629456651593,6.98
1629456651609,7.42
1629456651625,8.12
1629456651640,9.01
1629456651656,9.89
1629456651671,10.55
1629456651687,10.82
1629456651703,10.67
1629456651718,10.16
1629456651734,9.44
1629456651750,8.67
1629456651765,7.92
1629456651781,7.18
1629456651796,6.42
1629456651812,5.63
1629456651828,4.83
1629456651843,4.1
1629456651859,3.44
1629456651875,2.8
1629456651890,2.08
1629456651906,1.18
1629456651921,0.07
1629456651937,-1.16
1629456651953,-2.44
1629456651968,-3.7
1629456651984,-4.96
1629456652000,-6.34
1629456652015,-7.91
1629456652031,-9.65
1629456652046,-11.44
1629456652062,-13.06
1629456652078,-14.26
1629456652093,-14.86
1629456652109,-14.73
1629456652125,-13.84
1629456652140,-12.24
1629456652156,-10.12
1629456652171,-7.72
1629456652187,-5.3
1629456652203,-3.06
1629456652218,-1.07
1629456652234,0.72
1629456652250,2.42
1629456652265,4.11
1629456652281,5.77
1629456652296,7.3
1629456652312,8.56
1629456652328,9.4
1629456652343,9.77
1629456652359,9.74
1629456652375,9.48
1629456652390,9.17
1629456652406,8.96
1629456652421,8.91
1629456652437,8.98
1629456652453,9.11
1629456652468,9.22
1629456652484,9.32
1629456652500,9.43
1629456652515,9.58
1629456652531,9.68
1629456652546,9.61
1629456652562,9.2
1629456652578,8.36
1629456652593,7.12
1629456652609,5.61
1629456652625,4.01
1629456652640,2.51
1629456652656,1.17
1629456652671,0.0
1629456652687,-1.06
1629456652703,-2.1
1629456652718,-3.13
1629456652734,-4.18
1629456652750,-5.22
1629456652765,-6.29
1629456652781,-7.44
1629456652796,-8.76
1629456652812,-10.32
1629456652828,-12.15
1629456652843,-14.15
1629456652859,-16.14
1629456652875,-17.84
1629456652890,-18.95
1629456652906,-19.27
1629456652921,-18.73
1629456652937,-17.44
1629456652953,-15.63
1629456652968,-13.55
1629456652984,-11.4
1629456653000,-9.27
1629456653015,-7.17
1629456653031,-5.03
1629456653046,-2.82
1629456653062,-0.58
1629456653078,1.56
1629456653093,3.45
1629456653109,4.95
1629456653125,6.06
1629456653140,6.87
1629456653156,7.5
1629456653171,8.02
1629456653187,8.46
1629456653203,8.81
1629456653218,9.04
1629456653234,9.2
1629456653250,9.38
1629456653265,9.66
1629456653281,10.08
1629456653296,10.59
1629456653312,11.13
1629456653328,11.58
1629456653343,11.84
1629456653359,11.8
1629456653375,11.33
1629456653390,10.36
1629456653406,8.94
1629456653421,7.26
1629456653437,5.67
1629456653453,4.43
1629456653468,3.64
1629456653484,3.14
1629456653500,2.6
1629456653515,1.68
1629456653531,0.22
1629456653546,-1.71
1629456653562,-3.85
1629456653578,-5.89
1629456653593,-7.64
1629456653609,-9.05
1629456653625,-10.24
1629456653640,-11.36
1629456653656,-12.53
1629456653671,-13.84
1629456653687,-15.24
1629456653703,-16.67
1629456653718,-17.98
1629456653734,-19.04
1629456653750,-19.68
1629456653765,-19.72
1629456653781,-18.98
1629456653796,-17.38
1629456653812,-14.95
1629456653828,-11.88
1629456653843,-8.45
1629456653859,-5.0
1629456653875,-1.81
1629456653890,0.92
1629456653906,3.11
1629456653921,4.75
1629456653937,5.92
1629456653953,6.76
1629456653968,7.39
1629456653984,8.0
1629456654000,8.68
1629456654015,9.49
1629456654031,10.38
1629456654046,11.21
1629456654062,11.85
1629456654078,12.18
1629456654093,12.19
1629456654109,11.95
1629456654125,11.59
1629456654140,11.26
1629456654156,11.09
1629456654171,11.11
1629456654187,11.3
1629456654203,11.52
1629456654218,11.64
1629456654234,11.52
1629456654250,11.08
1629456654265,10.33
1629456654281,9.33
1629456654296,8.21
1629456654312,7.07
1629456654328,6.0
1629456654343,5.04
1629456654359,4.19
1629456654375,3.41
1629456654390,2.66
1629456654406,1.85
1629456654421,0.96
1629456654437,-0.04
1629456654453,-1.12
1629456654468,-2.21
1629456654484,-3.27
1629456654500,-4.3
1629456654515,-5.4
1629456654531,-6.71
1629456654546,-8.32
1629456654562,-10.22
1629456654578,-12.33
1629456654593,-14.47
1629456654609,-16.52
1629456654625,-18.36
1629456654640,-19.9
1629456654656,-20.97
1629456654671,-21.41
1629456654687,-21.05
1629456654703,-19.88
1629456654718,-18.05
1629456654734,-15.84
1629456654750,-13.51
1629456654765,-11.25
1629456654781,-9.05
1629456654796,-6.88
1629456654812,-4.71
1629456654828,-2.61
1629456654843,-0.7
1629456654859,0.89
1629456654875,2.16
1629456654890,3.23
1629456654906,4.28
1629456654921,5.45
1629456654937,6.78
1629456654953,8.2
1629456654968,9.57
1629456654984,10.75
1629456655000,11.72
1629456655015,12.48
1629456655031,13.11
1629456655046,13.6
1629456655062,13.92
1629456655078,13.98
1629456655093,13.74
1629456655109,13.23
1629456655125,12.51
1629456655140,11.68
1629456655156,10.81
1629456655171,9.9
1629456655187,8.9
1629456655203,7.8
1629456655218,6.67
1629456655234,5.57
1629456655250,4.58
1629456655265,3.68
1629456655281,2.81
1629456655296,1.86
1629456655312,0.77
1629456655328,-0.41
1629456655343,-1.61
1629456655359,-2.76
1629456655375,-3.88
1629456655390,-5.05
1629456655406,-6.44
1629456655421,-8.15
1629456655437,-10.16
1629456655453,-12.32
1629456655468,-14.34
1629456655484,-15.92
1629456655500,-16.84
1629456655515,-16.99
1629456655531,-16.34
1629456655546,-14.97
1629456655562,-13.01
1629456655578,-10.64
1629456655593,-8.04
1629456655609,-5.43
1629456655625,-2.91
1629456655640,-0.54
1629456655656,1.69
1629456655671,3.79
1629456655687,5.73
1629456655703,7.4
1629456655718,8.67
1629456655734,9.45
1629456655750,9.81
1629456655765,9.89
1629456655781,9.94
1629456655796,10.1
1629456655812,10.39
1629456655828,10.7
1629456655843,10.92
1629456655859,10.99
1629456655875,10.97
1629456655890,10.96
1629456655906,10.99
1629456655921,11.01
1629456655937,10.87
1629456655953,10.45
1629456655968,9.71
1629456655984,8.77
1629456656000,7.76
1629456656015,6.77
1629456656031,5.75
1629456656046,4.64
1629456656062,3.36
1629456656078,1.98
1629456656093,0.59
1629456656109,-0.7
1629456656125,-1.9
1629456656140,-3.12
1629456656156,-4.5
1629456656171,-6.11
1629456656187,-7.88
1629456656203,-9.66
1629456656218,-11.26
1629456656234,-12.56
1629456656250,-13.48
1629456656265,-13.99
1629456656281,-14.05
1629456656296,-13.59
1629456656312,-12.59
1629456656328,-11.08
1629456656343,-9.17
1629456656359,-7.0
1629456656375,-4.71
1629456656390,-2.42
1629456656406,-0.19
1629456656421,1.94
1629456656437,4.0
1629456656453,5.98
1629456656468,7.88
1629456656484,9.6
1629456656500,11.03
1629456656515,12.04
1629456656531,12.58
1629456656546,12.75
1629456656562,12.71
1629456656578,12.64
1629456656593,12.68
1629456656609,12.8
1629456656625,12.95
1629456656640,13.06
1629456656656,13.11
1629456656671,13.13
1629456656687,13.16
1629456656703,13.15
1629456656718,13.02
1629456656734,12.64
1629456656750,11.92
1629456656765,10.87
1629456656781,9.58
1629456656796,8.24
1629456656812,6.99
1629456656828,5.97
1629456656843,5.14
1629456656859,4.39
1629456656875,3.54
1629456656890,2.42
1629456656906,1.0
1629456656921,-0.67
1629456656937,-2.42
1629456656953,-4.06
1629456656968,-5.43
1629456656984,-6.49
1629456657000,-7.31
1629456657015,-7.98
1629456657031,-8.67
1629456657046,-9.51
1629456657062,-10.69
1629456657078,-12.32
1629456657093,-14.42
1629456657109,-16.84
1629456657125,-19.2
1629456657140,-21.0
1629456657156,-21.82
1629456657171,-21.4
1629456657187,-19.82
1629456657203,-17.35
1629456657218,-14.4
1629456657234,-11.31
1629456657250,-8.3
1629456657265,-5.49
1629456657281,-2.96
1629456657296,-0.78
1629456657312,0.99
1629456657328,2.38
1629456657343,3.54
1629456657359,4.69
1629456657375,6.01
1629456657390,7.51
1629456657406,9.02
1629456657421,10.26
1629456657437,11.05
1629456657453,11.35
1629456657468,11.31
1629456657484,11.18
1629456657500,11.12
1629456657515,11.18
1629456657531,11.25
1629456657546,11.17
1629456657562,10.78
1629456657578,10.06
1629456657593,9.12
1629456657609,8.18
1629456657625,7.48
1629456657640,7.18
1629456657656,7.28
1629456657671,7.62
1629456657687,7.95
1629456657703,8.05
1629456657718,7.79
1629456657734,7.17
1629456657750,6.24
1629456657765,5.04
1629456657781,3.56
1629456657796,1.88
1629456657812,0.14
1629456657828,-1.43
1629456657843,-2.63
1629456657859,-3.43
1629456657875,-4.04
1629456657890,-4.83
1629456657906,-6.16
1629456657921,-8.18
1629456657937,-10.79
1629456657953,-13.61
1629456657968,-16.16
1629456657984,-17.99
1629456658000,-18.83
1629456658015,-18.57
1629456658031,-17.28
1629456658046,-15.18
1629456658062,-12.59
1629456658078,-9.86
1629456658093,-7.28
1629456658109,-5.02
1629456658125,-3.11
1629456658140,-1.49
1629456658156,-0.05
1629456658171,1.27
1629456658187,2.49
1629456658203,3.58
1629456658218,4.46
1629456658234,5.06
1629456658250,5.32
1629456658265,5.25
1629456658281,4.93
1629456658296,4.57
1629456658312,4.37
1629456658328,4.49
1629456658343,4.92
1629456658359,5.53
1629456658375,6.07
1629456658390,6.34
1629456658406,6.24
1629456658421,5.86
1629456658437,5.36
1629456658453,4.93
1629456658468,4.63
1629456658484,4.43
1629456658500,4.2
1629456658515,3.81
1629456658531,3.16
1629456658546,2.2
1629456658562,0.92
1629456658578,-0.68
1629456658593,-2.49
1629456658609,-4.4
1629456658625,-6.23
1629456658640,-7.85
1629456658656,-9.22
1629456658671,-10.39
1629456658687,-11.48
1629456658703,-12.64
1629456658718,-13.93
1629456658734,-15.29
1629456658750,-16.53
1629456658765,-17.39
1629456658781,-17.58
1629456658796,-16.86
1629456658812,-15.13
1629456658828,-12.51
1629456658843,-9.28
1629456658859,-5.92
1629456658875,-2.88
1629456658890,-0.49
1629456658906,1.12
1629456658921,2.13
1629456658937,2.82
1629456658953,3.51
1629456658968,4.43
1629456658984,5.59
1629456659000,6.87
1629456659015,8.1
1629456659031,9.15
1629456659046,9.94
1629456659062,10.49
1629456659078,10.79
1629456659093,10.87
1629456659109,10.75
1629456659125,10.53
1629456659140,10.36
1629456659156,10.4
1629456659171,10.72
1629456659187,11.24
1629456659203,11.75
1629456659218,12.01
1629456659234,11.86
1629456659250,11.25
1629456659265,10.29
1629456659281,9.12
1629456659296,7.93
1629456659312,6.85
1629456659328,5.95
1629456659343,5.27
1629456659359,4.73
1629456659375,4.22
1629456659390,3.55
1629456659406,2.59
1629456659421,1.27
1629456659437,-0.33
1629456659453,-2.02
1629456659468,-3.63
1629456659484,-5.01
1629456659500,-6.18
1629456659515,-7.26
1629456659531,-8.41
1629456659546,-9.8
1629456659562,-11.5
1629456659578,-13.49
1629456659593,-15.6
1629456659609,-17.56
1629456659625,-19.0
1629456659640,-19.61
1629456659656,-19.16
1629456659671,-17.65
1629456659687,-15.29
1629456659703,-12.45
1629456659718,-9.51
1629456659734,-6.76
1629456659750,-4.32
1629456659765,-2.17
1629456659781,-0.2
1629456659796,1.63
1629456659812,3.33
1629456659828,4.82
1629456659843,6.04
1629456659859,6.91
1629456659875,7.44
1629456659890,7.69
1629456659906,7.79
1629456659921,7.94
1629456659937,8.32
1629456659953,9.01
1629456659968,9.95
1629456659984,10.93
1629456660000,11.66
1629456660015,11.96
1629456660031,11.78
1629456660046,11.29
1629456660062,10.74
1629456660078,10.33
1629456660093,10.12
1629456660109,10.06
1629456660125,10.01
1629456660140,9.87
1629456660156,9.6
1629456660171,9.23
1629456660187,8.79
1629456660203,8.28
1629456660218,7.63
1629456660234,6.79
1629456660250,5.75
1629456660265,4.55
1629456660281,3.28
1629456660296,2.07
1629456660312,1.02
1629456660328,0.13
1629456660343,-0.63
1629456660359,-1.4
1629456660375,-2.26
1629456660390,-3.28
1629456660406,-4.48
1629456660421,-5.83
1629456660437,-7.3
1629456660453,-8.85
1629456660468,-10.48
1629456660484,-12.18
1629456660500,-13.92
1629456660515,-15.62
1629456660531,-17.2
1629456660546,-18.55
1629456660562,-19.54
1629456660578,-20.04
1629456660593,-19.9
1629456660609,-19.02
1629456660625,-17.35
1629456660640,-15.03
1629456660656,-12.32
1629456660671,-9.53
1629456660687,-6.94
1629456660703,-4.67
1629456660718,-2.72
1629456660734,-1.02
1629456660750,0.51
1629456660765,1.84
1629456660781,2.9
1629456660796,3.67
1629456660812,4.2
1629456660828,4.65
1629456660843,5.19
1629456660859,5.9
1629456660875,6.71
1629456660890,7.45
1629456660906,7.94
1629456660921,8.19
1629456660937,8.38
1629456660953,8.73
1629456660968,9.41
1629456660984,10.34
1629456661000,11.29
1629456661015,11.94
1629456661031,12.04
1629456661046,11.59
1629456661062,10.75
1629456661078,9.76
1629456661093,8.8
1629456661109,7.97
1629456661125,7.25
1629456661140,6.58
1629456661156,5.91
1629456661171,5.22
1629456661187,4.51
1629456661203,3.76
1629456661218,2.98
1629456661234,2.13
1629456661250,1.22
1629456661265,0.24
1629456661281,-0.78
1629456661296,-1.82
1629456661312,-2.83
1629456661328,-3.73
1629456661343,-4.46
1629456661359,-4.99
1629456661375,-5.33
1629456661390,-5.62
1629456661406,-6.06
1629456661421,-6.85
1629456661437,-8.14
1629456661453,-9.94
1629456661468,-12.07
1629456661484,-14.25
1629456661500,-16.11
1629456661515,-17.37
1629456661531,-17.84
1629456661546,-17.5
1629456661562,-16.45
1629456661578,-14.83
1629456661593,-12.8
1629456661609,-10.5
1629456661625,-8.06
1629456661640,-5.62
1629456661656,-3.31
1629456661671,-1.25
1629456661687,0.5
1629456661703,1.98
1629456661718,3.31
1629456661734,4.58
1629456661750,5.82
1629456661765,6.93
1629456661781,7.73
1629456661796,8.1
1629456661812,8.08
1629456661828,7.87
1629456661843,7.71
1629456661859,7.78
1629456661875,8.05
1629456661890,8.35
1629456661906,8.47
1629456661921,8.27
1629456661937,7.8
1629456661953,7.2
1629456661968,6.63
1629456661984,6.16
1629456662000,5.83
1629456662015,5.6
1629456662031,5.45
1629456662046,5.34
1629456662062,5.22
1629456662078,5.02
1629456662093,4.68
1629456662109,4.14
1629456662125,3.48
1629456662140,2.74
1629456662156,2.02
1629456662171,1.32
1629456662187,0.61
1629456662203,-0.15
1629456662218,-0.98
1629456662234,-1.89
1629456662250,-2.87
1629456662265,-3.92
1629456662281,-5.02
1629456662296,-6.14
1629456662312,-7.25
1629456662328,-8.37
1629456662343,-9.59
1629456662359,-11.09
1629456662375,-12.99
1629456662390,-15.3
1629456662406,-17.74
1629456662421,-19.86
1629456662437,-21.13
1629456662453,-21.18
1629456662468,-19.96
1629456662484,-17.75
1629456662500,-15.05
1629456662515,-12.38
1629456662531,-10.12
1629456662546,-8.38
1629456662562,-7.06
1629456662578,-5.94
1629456662593,-4.81
1629456662609,-3.59
1629456662625,-2.31
1629456662640,-1.13
1629456662656,-0.16
1629456662671,0.59
1629456662687,1.22
1629456662703,1.88
1629456662718,2.68
1629456662734,3.61
1629456662750,4.52
1629456662765,5.25
1629456662781,5.71
1629456662796,5.96
1629456662812,6.11
1629456662828,6.29
1629456662843,6.52
1629456662859,6.75
1629456662875,6.88
1629456662890,6.83
1629456662906,6.62
1629456662921,6.26
1629456662937,5.79
1629456662953,5.21
1629456662968,4.55
1629456662984,3.85
1629456663000,3.18
1629456663015,2.56
1629456663031,1.88
1629456663046,0.99
1629456663062,-0.25
1629456663078,-1.84
1629456663093,-3.63
1629456663109,-5.36
1629456663125,-6.82
1629456663140,-7.94
1629456663156,-8.81
1629456663171,-9.61
1629456663187,-10.48
1629456663203,-11.48
1629456663218,-12.58
1629456663234,-13.72
1629456663250,-14.83
1629456663265,-15.81
1629456663281,-16.54
1629456663296,-16.84
1629456663312,-16.55
1629456663328,-15.59
1629456663343,-14.01
1629456663359,-11.96
1629456663375,-9.65
1629456663390,-7.25
1629456663406,-4.84
1629456663421,-2.48
1629456663437,-0.24
1629456663453,1.8
1629456663468,3.51
1629456663484,4.81
1629456663500,5.69
1629456663515,6.3
1629456663531,6.78
1629456663546,7.24
1629456663562,7.7
1629456663578,8.08
1629456663593,8.3
1629456663609,8.31
1629456663625,8.18
1629456663640,7.97
1629456663656,7.74
1629456663671,7.5
1629456663687,7.22
1629456663703,6.92
1629456663718,6.66
1629456663734,6.54
1629456663750,6.61
1629456663765,6.84
1629456663781,7.07
1629456663796,7.08
1629456663812,6.71
1629456663828,5.91
1629456663843,4.75
1629456663859,3.4
1629456663875,2.0
1629456663890,0.69
1629456663906,-0.47
1629456663921,-1.47
1629456663937,-2.34
1629456663953,-3.17
1629456663968,-4.07
1629456663984,-5.17
1629456664000,-6.52
1629456664015,-8.07
1629456664031,-9.68
1629456664046,-11.16
1629456664062,-12.34
1629456664078,-13.06
1629456664093,-13.23
1629456664109,-12.76
1629456664125,-11.62
1629456664140,-9.87
1629456664156,-7.59
1629456664171,-4.98
1629456664187,-2.23
1629456664203,0.46
1629456664218,2.92
1629456664234,5.05
1629456664250,6.79
1629456664265,8.1
1629456664281,8.97
1629456664296,9.39
1629456664312,9.4
1629456664328,9.06
1629456664343,8.5
1629456664359,7.87
1629456664375,7.35
1629456664390,7.09
1629456664406,7.16
1629456664421,7.52
1629456664437,8.05
1629456664453,8.59
1629456664468,8.98
1629456664484,9.12
1629456664500,8.97
1629456664515,8.51
1629456664531,7.72
1629456664546,6.64
1629456664562,5.39
1629456664578,4.16
1629456664593,3.17
1629456664609,2.55
1629456664625,2.2
1629456664640,1.9
1629456664656,1.31
1629456664671,0.2
1629456664687,-1.49
1629456664703,-3.63
1629456664718,-5.97
1629456664734,-8.25
1629456664750,-10.25
1629456664765,-11.81
1629456664781,-12.76
1629456664796,-12.97
1629456664812,-12.41
1629456664828,-11.15
1629456664843,-9.4
1629456664859,-7.43
1629456664875,-5.48
1629456664890,-3.68
1629456664906,-2.03
1629456664921,-0.44
1629456664937,1.16
1629456664953,2.77
1629456664968,4.33
1629456664984,5.71
1629456665000,6.81
1629456665015,7.62
1629456665031,8.15
1629456665046,8.51
1629456665062,8.8
1629456665078,9.09
1629456665093,9.37
1629456665109,9.64
1629456665125,9.85
1629456665140,10.0
1629456665156,10.12
1629456665171,10.22
1629456665187,10.3
1629456665203,10.33
1629456665218,10.22
1629456665234,9.89
1629456665250,9.28
1629456665265,8.35
1629456665281,7.12
1629456665296,5.63
1629456665312,3.98
1629456665328,2.33
1629456665343,0.83
1629456665359,-0.41
1629456665375,-1.36
1629456665390,-2.13
1629456665406,-2.95
1629456665421,-4.08
1629456665437,-5.72
1629456665453,-7.91
1629456665468,-10.49
1629456665484,-13.08
1629456665500,-15.24
1629456665515,-16.56
1629456665531,-16.79
1629456665546,-15.98
1629456665562,-14.36
1629456665578,-12.28
1629456665593,-10.08
1629456665609,-7.94
1629456665625,-5.92
1629456665640,-3.94
1629456665656,-1.94
1629456665671,0.12
1629456665687,2.24
1629456665703,4.37
1629456665718,6.39
1629456665734,8.19
1629456665750,9.66
1629456665765,10.71
1629456665781,11.3
1629456665796,11.53
1629456665812,11.54
1629456665828,11.49
1629456665843,11.54
1629456665859,11.73
1629456665875,12.05
1629456665890,12.37
1629456665906,12.55
1629456665921,12.5
1629456665937,12.21
1629456665953,11.78
1629456665968,11.36
1629456665984,10.98
1629456666000,10.62
1629456666015,10.15
1629456666031,9.45
1629456666046,8.5
1629456666062,7.42
1629456666078,6.44
1629456666093,5.69
1629456666109,5.22
1629456666125,4.95
1629456666140,4.72
1629456666156,4.36
1629456666171,3.77
1629456666187,2.85
1629456666203,1.56
1629456666218,-0.11
1629456666234,-2.06
1629456666250,-4.07
1629456666265,-5.87
1629456666281,-7.26
1629456666296,-8.18
1629456666312,-8.8
1629456666328,-9.47
1629456666343,-10.5
1629456666359,-12.11
1629456666375,-14.28
1629456666390,-16.72
1629456666406,-18.94
1629456666421,-20.4
1629456666437,-20.67
1629456666453,-19.6
1629456666468,-17.37
1629456666484,-14.43
1629456666500,-11.32
1629456666515,-8.51
1629456666531,-6.23
1629456666546,-4.49
1629456666562,-3.2
1629456666578,-2.2
1629456666593,-1.36
1629456666609,-0.64
1629456666625,-0.0
1629456666640,0.57
1629456666656,1.1
1629456666671,1.64
1629456666687,2.24
1629456666703,2.94
1629456666718,3.75
1629456666734,4.58
1629456666750,5.31
1629456666765,5.84
1629456666781,6.18
1629456666796,6.47
1629456666812,6.93
1629456666828,7.74
1629456666843,8.88
1629456666859,10.12
1629456666875,11.13
1629456666890,11.64
1629456666906,11.55
1629456666921,10.98
1629456666937,10.13
1629456666953,9.25
1629456666968,8.49
1629456666984,7.91
1629456667000,7.53
1629456667015,7.27
1629456667031,7.03
1629456667046,6.65
1629456667062,6.0
1629456667078,5.01
1629456667093,3.72
1629456667109,2.25
1629456667125,0.77
1629456667140,-0.58
1629456667156,-1.69
1629456667171,-2.52
1629456667187,-3.02
1629456667203,-3.23
1629456667218,-3.21
1629456667234,-3.11
1629456667250,-3.16
1629456667265,-3.56
1629456667281,-4.43
1629456667296,-5.77
1629456667312,-7.46
1629456667328,-9.33
1629456667343,-11.16
1629456667359,-12.78
1629456667375,-14.01
1629456667390,-14.67
1629456667406,-14.6
1629456667421,-13.73
1629456667437,-12.11
1629456667453,-9.95
1629456667468,-7.58
1629456667484,-5.33
1629456667500,-3.41
1629456667515,-1.86
1629456667531,-0.55
1629456667546,0.71
1629456667562,2.07
1629456667578,3.53
1629456667593,4.93
1629456667609,6.09
1629456667625,6.81
1629456667640,7.09
1629456667656,7.04
1629456667671,6.92
1629456667687,6.97
1629456667703,7.31
1629456667718,7.94
1629456667734,8.7
1629456667750,9.41
1629456667765,9.9
1629456667781,10.08
1629456667796,9.96
1629456667812,9.6
1629456667828,9.1
1629456667843,8.58
1629456667859,8.17
1629456667875,7.93
1629456667890,7.85
1629456667906,7.86
1629456667921,7.84
1629456667937,7.68
1629456667953,7.35
1629456667968,6.88
1629456667984,6.3
1629456668000,5.68
1629456668015,5.0
1629456668031,4.28
1629456668046,3.5
1629456668062,2.68
1629456668078,1.88
1629456668093,1.16
1629456668109,0.56
1629456668125,0.07
1629456668140,-0.37
1629456668156,-0.83
1629456668171,-1.39
1629456668187,-2.06
1629456668203,-2.87
1629456668218,-3.78
1629456668234,-4.85
1629456668250,-6.12
1629456668265,-7.7
1629456668281,-9.61
1629456668296,-11.77
1629456668312,-13.89
1629456668328,-15.53
1629456668343,-16.26
1629456668359,-15.83
1629456668375,-14.27
1629456668390,-11.88
1629456668406,-9.16
1629456668421,-6.58
1629456668437,-4.49
1629456668453,-2.96
1629456668468,-1.87
1629456668484,-1.01
1629456668500,-0.13
1629456668515,0.91
1629456668531,2.18
1629456668546,3.61
1629456668562,5.07
1629456668578,6.37
1629456668593,7.35
1629456668609,7.87
1629456668625,7.88
1629456668640,7.45
1629456668656,6.79
1629456668671,6.12
1629456668687,5.7
1629456668703,5.74
1629456668718,6.32
1629456668734,7.36
1629456668750,8.71
1629456668765,10.1
1629456668781,11.25
1629456668796,11.88
1629456668812,11.76
1629456668828,10.83
1629456668843,9.23
1629456668859,7.35
1629456668875,5.67
1629456668890,4.58
1629456668906,4.18
1629456668921,4.25
1629456668937,4.33
1629456668953,3.98
1629456668968,2.99
1629456668984,1.45
1629456669000,-0.31
1629456669015,-1.96
1629456669031,-3.28
1629456669046,-4.27
1629456669062,-5.05
1629456669078,-5.76
1629456669093,-6.51
1629456669109,-7.37
1629456669125,-8.4
1629456669140,-9.63
1629456669156,-11.1
1629456669171,-12.72
1629456669187,-14.28
1629456669203,-15.48
1629456669218,-16.07
1629456669234,-15.88
1629456669250,-14.9
1629456669265,-13.24
1629456669281,-11.11
1629456669296,-8.7
1629456669312,-6.21
1629456669328,-3.84
1629456669343,-1.74
1629456669359,0.01
1629456669375,1.38
1629456669390,2.39
1629456669406,3.12
1629456669421,3.62
1629456669437,3.91
1629456669453,3.98
1629456669468,3.88
1629456669484,3.7
1629456669500,3.63
1629456669515,3.82
1629456669531,4.34
1629456669546,5.11
1629456669562,5.94
1629456669578,6.59
1629456669593,6.93
1629456669609,6.94
1629456669625,6.73
1629456669640,6.46
1629456669656,6.21
1629456669671,5.98
1629456669687,5.66
1629456669703,5.16
1629456669718,4.42
1629456669734,3.43
1629456669750,2.28
1629456669765,1.06
1629456669781,-0.13
1629456669796,-1.25
1629456669812,-2.29
1629456669828,-3.27
1629456669843,-4.24
1629456669859,-5.26
1629456669875,-6.37
1629456669890,-7.54
1629456669906,-8.74
1629456669921,-9.93
1629456669937,-11.09
1629456669953,-12.23
1629456669968,-13.37
1629456669984,-14.44
1629456670000,-15.28
1629456670015,-15.62
1629456670031,-15.24
1629456670046,-14.03
1629456670062,-12.05
1629456670078,-9.59
1629456670093,-6.94
1629456670109,-4.41
1629456670125,-2.14
1629456670140,-0.16
1629456670156,1.55
1629456670171,2.97
1629456670187,4.09
1629456670203,4.87
1629456670218,5.33
1629456670234,5.57
1629456670250,5.7
1629456670265,5.83
1629456670281,5.97
1629456670296,6.09
1629456670312,6.17
1629456670328,6.22
1629456670343,6.33
1629456670359,6.57
1629456670375,6.97
1629456670390,7.45
1629456670406,7.83
1629456670421,7.96
1629456670437,7.77
1629456670453,7.37
1629456670468,7.01
1629456670484,7.0
1629456670500,7.51
1629456670515,8.51
1629456670531,9.72
1629456670546,10.7
1629456670562,11.07
1629456670578,10.7
1629456670593,9.81
1629456670609,8.95
1629456670625,8.74
1629456670640,9.53
1629456670656,11.23
1629456670671,13.24
1629456670687,14.78
1629456670703,15.28
1629456670718,14.83
1629456670734,14.17
1629456670750,14.54
1629456670765,17.06
1629456670781,22.14
1629456670796,29.14
1629456670812,36.52
1629456670828,42.39
1629456670843,45.33
1629456670859,45.05
1629456670875,42.53
1629456670890,39.64
1629456670906,38.35
1629456670921,40.09
1629456670937,45.24
1629456670953,53.03
1629456670968,61.58
1629456670984,67.83
1629456671000,67.71
1629456671015,56.88
1629456671031,32.42
1629456671046,-5.43
1629456671062,-52.08
1629456671078,-99.31
1629456671093,-137.71
1629456671109,-160.04
1629456671125,-163.69
1629456671140,-151.22
1629456671156,-128.62
1629456671171,-102.44
1629456671187,-77.4
1629456671203,-55.52
1629456671218,-36.84
1629456671234,-20.85
1629456671250,-7.67
1629456671265,1.86
1629456671281,6.83
1629456671296,7.06
1629456671312,3.62
1629456671328,-1.51
1629456671343,-6.18
1629456671359,-8.87
1629456671375,-9.27
1629456671390,-8.2
1629456671406,-7.06
1629456671421,-6.93
1629456671437,-7.91
1629456671453,-9.17
1629456671468,-9.41
1629456671484,-7.74
1629456671500,-4.19
1629456671515,0.26
1629456671531,4.32
1629456671546,6.99
1629456671562,8.04
1629456671578,7.96
1629456671593,7.61
1629456671609,7.72
1629456671625,8.6
1629456671640,10.13
1629456671656,11.86
1629456671671,13.26
1629456671687,13.93
1629456671703,13.73
1629456671718,12.79
1629456671734,11.5
1629456671750,10.29
1629456671765,9.5
1629456671781,9.26
1629456671796,9.4
1629456671812,9.64
1629456671828,9.73
1629456671843,9.59
1629456671859,9.32
1629456671875,9.11
1629456671890,9.09
1629456671906,9.28
1629456671921,9.55
1629456671937,9.76
1629456671953,9.76
1629456671968,9.44
1629456671984,8.69
1629456672000,7.47
1629456672015,5.8
1629456672031,3.82
1629456672046,1.79
1629456672062,-0.02
1629456672078,-1.36
1629456672093,-2.22
1629456672109,-2.75
1629456672125,-3.27
1629456672140,-4.07
1629456672156,-5.35
1629456672171,-7.1
1629456672187,-9.14
1629456672203,-11.18
1629456672218,-13.01
1629456672234,-14.59
1629456672250,-16.02
1629456672265,-17.51
1629456672281,-19.15
1629456672296,-20.74
1629456672312,-21.84
1629456672328,-21.84
1629456672343,-20.31
1629456672359,-17.19
1629456672375,-12.91
1629456672390,-8.21
1629456672406,-3.85
1629456672421,-0.37
1629456672437,2.11
1629456672453,3.77
1629456672468,4.96
1629456672484,5.99
1629456672500,6.98
1629456672515,7.96
1629456672531,8.87
