timestamp,bvp
1630501821546,-5.33
1630501821562,-2.29
1630501821578,1.12
1630501821593,4.36
1630501821609,6.94
1630501821625,8.6
1630501821640,9.35
1630501821656,9.29
1630501821671,8.57
1630501821687,7.28
1630501821703,5.56
1630501821718,3.64
1630501821734,1.91
1630501821750,0.77
1630501821765,0.5
1630501821781,1.03
1630501821796,2.01
1630501821812,2.85
1630501821828,3.01
1630501821843,2.19
1630501821859,0.44
1630501821875,-1.99
1630501821890,-4.73
1630501821906,-7.54
1630501821921,-10.25
1630501821937,-12.88
1630501821953,-15.4
1630501821968,-17.75
1630501821984,-19.78
1630501822000,-21.29
1630501822015,-22.0
1630501822031,-21.72
1630501822046,-20.32
1630501822062,-17.85
1630501822078,-14.56
1630501822093,-10.83
1630501822109,-7.07
1630501822125,-3.58
1630501822140,-0.48
1630501822156,2.26
1630501822171,4.72
1630501822187,6.97
1630501822203,8.99
1630501822218,10.71
1630501822234,12.04
1630501822250,12.95
1630501822265,13.45
1630501822281,13.6
1630501822296,13.49
1630501822312,13.24
1630501822328,13.04
1630501822343,13.01
1630501822359,13.25
1630501822375,13.7
1630501822390,14.1
1630501822406,14.05
1630501822421,13.17
1630501822437,11.19
1630501822453,8.0
1630501822468,3.73
1630501822484,-1.33
1630501822500,-6.79
1630501822515,-12.18
1630501822531,-17.02
1630501822546,-20.96
1630501822562,-23.71
1630501822578,-25.17
1630501822593,-25.33
1630501822609,-24.25
1630501822625,-21.95
1630501822640,-18.49
1630501822656,-13.97
1630501822671,-8.64
1630501822687,-2.93
1630501822703,2.57
1630501822718,7.23
1630501822734,10.54
1630501822750,12.25
1630501822765,12.43
1630501822781,11.46
1630501822796,9.94
1630501822812,8.45
1630501822828,7.43
1630501822843,7.0
1630501822859,7.07
1630501822875,7.44
1630501822890,7.99
1630501822906,8.76
1630501822921,9.8
1630501822937,11.07
1630501822953,12.29
1630501822968,13.0
1630501822984,12.81
1630501823000,11.68
1630501823015,10.01
1630501823031,8.56
1630501823046,8.05
1630501823062,8.76
1630501823078,10.36
1630501823093,12.0
1630501823109,12.78
1630501823125,12.15
1630501823140,10.24
1630501823156,7.69
1630501823171,5.31
1630501823187,3.7
1630501823203,3.11
1630501823218,3.53
1630501823234,4.9
1630501823250,7.23
1630501823265,10.53
1630501823281,14.58
1630501823296,18.92
1630501823312,23.1
1630501823328,27.23
1630501823343,32.25
1630501823359,39.72
1630501823375,50.89
1630501823390,65.78
1630501823406,82.7
1630501823421,98.64
1630501823437,110.51
1630501823453,116.38
1630501823468,116.07
1630501823484,110.82
1630501823500,102.18
1630501823515,91.01
1630501823531,77.15
1630501823546,60.03
1630501823562,39.52
1630501823578,16.61
1630501823593,-6.79
1630501823609,-28.53
1630501823625,-46.96
1630501823640,-61.44
1630501823656,-72.32
1630501823671,-80.66
1630501823687,-87.55
1630501823703,-93.56
1630501823718,-98.25
1630501823734,-99.94
1630501823750,-96.17
1630501823765,-84.6
1630501823781,-64.18
1630501823796,-36.07
1630501823812,-3.69
1630501823828,28.29
1630501823843,55.59
1630501823859,75.91
1630501823875,89.66
1630501823890,99.22
1630501823906,107.5
1630501823921,116.3
1630501823937,125.57
1630501823953,133.74
1630501823968,138.77
1630501823984,139.3
1630501824000,135.32
1630501824015,128.1
1630501824031,119.42
1630501824046,110.76
1630501824062,102.68
1630501824078,94.87
1630501824093,86.55
1630501824109,77.06
1630501824125,66.2
1630501824140,54.2
1630501824156,41.63
1630501824171,29.08
1630501824187,17.11
1630501824203,6.18
1630501824218,-3.43
1630501824234,-11.69
1630501824250,-18.85
1630501824265,-25.27
1630501824281,-31.15
1630501824296,-36.41
1630501824312,-40.67
1630501824328,-43.61
1630501824343,-45.29
1630501824359,-46.31
1630501824375,-47.57
1630501824390,-49.76
1630501824406,-52.97
1630501824421,-56.58
1630501824437,-59.66
1630501824453,-61.52
1630501824468,-62.05
1630501824484,-61.6
1630501824500,-60.7
1630501824515,-59.63
1630501824531,-58.37
1630501824546,-56.74
1630501824562,-54.62
1630501824578,-52.1
1630501824593,-49.38
1630501824609,-46.62
1630501824625,-43.82
1630501824640,-40.87
1630501824656,-37.75
1630501824671,-34.63
1630501824687,-31.8
1630501824703,-29.64
1630501824718,-28.36
1630501824734,-27.98
1630501824750,-28.42
1630501824765,-29.44
1630501824781,-30.75
1630501824796,-31.9
1630501824812,-32.34
1630501824828,-31.57
1630501824843,-29.44
1630501824859,-26.35
1630501824875,-23.26
1630501824890,-21.33
1630501824906,-21.37
1630501824921,-23.37
1630501824937,-26.59
1630501824953,-29.92
1630501824968,-32.62
1630501824984,-34.66
1630501825000,-36.6
1630501825015,-39.17
1630501825031,-42.56
1630501825046,-46.32
1630501825062,-49.56
1630501825078,-51.59
1630501825093,-52.37
1630501825109,-52.59
1630501825125,-53.18
1630501825140,-54.81
1630501825156,-57.48
1630501825171,-60.59
1630501825187,-63.43
1630501825203,-65.58
1630501825218,-67.14
1630501825234,-68.51
1630501825250,-70.06
1630501825265,-71.73
1630501825281,-73.04
1630501825296,-73.24
1630501825312,-71.73
1630501825328,-68.29
1630501825343,-63.11
1630501825359,-56.71
1630501825375,-49.6
1630501825390,-42.16
1630501825406,-34.48
1630501825421,-26.52
1630501825437,-18.18
1630501825453,-9.5
1630501825468,-0.69
1630501825484,7.86
1630501825500,15.76
1630501825515,22.7
1630501825531,28.53
1630501825546,33.2
1630501825562,36.65
1630501825578,38.67
1630501825593,38.97
1630501825609,37.28
1630501825625,33.52
1630501825640,27.93
1630501825656,21.06
1630501825671,13.67
1630501825687,6.58
1630501825703,0.59
1630501825718,-3.68
1630501825734,-5.92
1630501825750,-6.22
1630501825765,-5.04
1630501825781,-3.04
1630501825796,-0.93
1630501825812,0.83
1630501825828,2.11
1630501825843,3.08
1630501825859,4.01
1630501825875,5.07
1630501825890,6.23
1630501825906,7.3
1630501825921,8.04
1630501825937,8.28
1630501825953,7.97
1630501825968,7.17
1630501825984,6.01
1630501826000,4.6
1630501826015,3.08
1630501826031,1.52
1630501826046,-0.01
1630501826062,-1.54
1630501826078,-3.07
1630501826093,-4.6
1630501826109,-6.04
1630501826125,-7.28
1630501826140,-8.16
1630501826156,-8.6
1630501826171,-8.68
1630501826187,-8.61
1630501826203,-8.73
1630501826218,-9.33
1630501826234,-10.55
1630501826250,-12.29
1630501826265,-14.27
1630501826281,-16.06
1630501826296,-17.27
1630501826312,-17.62
1630501826328,-16.94
1630501826343,-15.2
1630501826359,-12.49
1630501826375,-9.01
1630501826390,-5.06
1630501826406,-0.95
1630501826421,3.0
1630501826437,6.53
1630501826453,9.38
1630501826468,11.29
1630501826484,11.94
1630501826500,10.94
1630501826515,7.93
1630501826531,2.79
1630501826546,-4.25
1630501826562,-12.51
1630501826578,-21.0
1630501826593,-28.64
1630501826609,-34.6
1630501826625,-38.49
1630501826640,-40.47
1630501826656,-41.1
1630501826671,-41.09
1630501826687,-41.0
1630501826703,-41.07
1630501826718,-41.19
1630501826734,-40.97
1630501826750,-39.79
1630501826765,-36.98
1630501826781,-31.94
1630501826796,-24.31
1630501826812,-14.25
1630501826828,-2.51
1630501826843,9.56
1630501826859,20.46
1630501826875,28.99
1630501826890,34.73
1630501826906,38.06
1630501826921,39.89
1630501826937,41.19
1630501826953,42.6
1630501826968,44.34
1630501826984,46.47
1630501827000,49.03
1630501827015,52.14
1630501827031,55.71
1630501827046,59.12
1630501827062,61.23
1630501827078,60.65
1630501827093,56.44
1630501827109,48.64
1630501827125,38.42
1630501827140,27.63
1630501827156,18.1
1630501827171,10.93
1630501827187,6.26
1630501827203,3.41
1630501827218,1.37
1630501827234,-0.72
1630501827250,-3.31
1630501827265,-6.31
1630501827281,-9.28
1630501827296,-11.68
1630501827312,-13.1
1630501827328,-13.39
1630501827343,-12.77
1630501827359,-11.66
1630501827375,-10.46
1630501827390,-9.34
1630501827406,-8.15
1630501827421,-6.66
1630501827437,-4.76
1630501827453,-2.76
1630501827468,-1.3
1630501827484,-1.09
1630501827500,-2.47
1630501827515,-5.19
1630501827531,-8.41
1630501827546,-10.98
1630501827562,-11.99
1630501827578,-11.02
1630501827593,-8.32
1630501827609,-4.6
1630501827625,-0.68
1630501827640,2.84
1630501827656,5.74
1630501827671,8.14
1630501827687,10.27
1630501827703,12.18
1630501827718,13.61
1630501827734,14.12
1630501827750,13.32
1630501827765,11.18
1630501827781,8.1
1630501827796,4.81
1630501827812,2.08
1630501827828,0.33
1630501827843,-0.39
1630501827859,-0.37
1630501827875,0.02
1630501827890,0.53
1630501827906,1.09
1630501827921,1.72
1630501827937,2.43
1630501827953,3.07
1630501827968,3.42
1630501827984,3.27
1630501828000,2.52
1630501828015,1.21
1630501828031,-0.57
1630501828046,-2.71
1630501828062,-5.16
1630501828078,-7.89
1630501828093,-10.85
1630501828109,-13.94
1630501828125,-16.95
1630501828140,-19.57
1630501828156,-21.39
1630501828171,-21.98
1630501828187,-20.99
1630501828203,-18.24
1630501828218,-13.84
1630501828234,-8.25
1630501828250,-2.08
1630501828265,3.99
1630501828281,9.43
1630501828296,13.95
1630501828312,17.45
1630501828328,19.99
1630501828343,21.61
1630501828359,22.4
1630501828375,22.44
1630501828390,21.93
1630501828406,21.1
1630501828421,20.25
1630501828437,19.55
1630501828453,19.07
1630501828468,18.69
1630501828484,18.21
1630501828500,17.48
1630501828515,16.41
1630501828531,15.05
1630501828546,13.59
1630501828562,12.18
1630501828578,10.91
1630501828593,9.72
1630501828609,8.45
1630501828625,6.85
1630501828640,4.75
1630501828656,2.08
1630501828671,-1.11
1630501828687,-4.72
1630501828703,-8.66
1630501828718,-12.93
1630501828734,-17.48
1630501828750,-22.11
1630501828765,-26.45
1630501828781,-29.92
1630501828796,-31.94
1630501828812,-32.09
1630501828828,-30.3
1630501828843,-26.9
1630501828859,-22.52
1630501828875,-17.89
1630501828890,-13.64
1630501828906,-10.14
1630501828921,-7.52
1630501828937,-5.72
1630501828953,-4.64
1630501828968,-4.14
1630501828984,-4.14
1630501829000,-4.58
1630501829015,-5.3
1630501829031,-6.1
1630501829046,-6.75
1630501829062,-6.94
1630501829078,-6.47
1630501829093,-5.32
1630501829109,-3.64
1630501829125,-1.8
1630501829140,-0.2
1630501829156,0.85
1630501829171,1.26
1630501829187,1.15
1630501829203,0.74
1630501829218,0.18
1630501829234,-0.58
1630501829250,-1.69
1630501829265,-3.32
1630501829281,-5.47
1630501829296,-7.96
1630501829312,-10.54
1630501829328,-13.04
1630501829343,-15.44
1630501829359,-17.82
1630501829375,-20.11
1630501829390,-21.96
1630501829406,-22.76
1630501829421,-21.88
1630501829437,-18.94
1630501829453,-14.09
1630501829468,-7.96
1630501829484,-1.37
1630501829500,4.9
1630501829515,10.36
1630501829531,14.84
1630501829546,18.34
1630501829562,20.89
1630501829578,22.46
1630501829593,22.99
1630501829609,22.46
1630501829625,21.04
1630501829640,19.07
1630501829656,16.98
1630501829671,15.16
1630501829687,13.83
1630501829703,13.0
1630501829718,12.54
1630501829734,12.29
1630501829750,12.12
1630501829765,11.93
1630501829781,11.63
1630501829796,11.09
1630501829812,10.17
1630501829828,8.85
1630501829843,7.17
1630501829859,5.32
1630501829875,3.46
1630501829890,1.63
1630501829906,-0.25
1630501829921,-2.32
1630501829937,-4.75
1630501829953,-7.54
1630501829968,-10.6
1630501829984,-13.68
1630501830000,-16.42
1630501830015,-18.25
1630501830031,-18.55
1630501830046,-16.71
1630501830062,-12.49
1630501830078,-6.08
1630501830093,1.72
1630501830109,9.79
1630501830125,16.94
1630501830140,22.33
1630501830156,25.62
1630501830171,27.0
1630501830187,27.0
1630501830203,26.22
1630501830218,25.17
1630501830234,24.13
1630501830250,23.13
1630501830265,22.06
1630501830281,20.75
1630501830296,19.12
1630501830312,17.19
1630501830328,15.19
1630501830343,13.29
1630501830359,11.57
1630501830375,9.97
1630501830390,8.3
1630501830406,6.44
1630501830421,4.41
1630501830437,2.36
1630501830453,0.47
1630501830468,-1.19
1630501830484,-2.69
1630501830500,-4.26
1630501830515,-6.04
1630501830531,-8.06
1630501830546,-10.21
1630501830562,-12.41
1630501830578,-14.7
1630501830593,-17.3
1630501830609,-20.37
1630501830625,-23.77
1630501830640,-26.95
1630501830656,-28.92
1630501830671,-28.72
1630501830687,-25.74
1630501830703,-20.05
1630501830718,-12.4
1630501830734,-4.0
1630501830750,3.96
1630501830765,10.59
1630501830781,15.54
1630501830796,18.91
1630501830812,20.99
1630501830828,22.08
1630501830843,22.29
1630501830859,21.64
1630501830875,20.14
1630501830890,18.01
1630501830906,15.67
1630501830921,13.64
1630501830937,12.31
1630501830953,11.82
1630501830968,11.99
1630501830984,12.47
1630501831000,12.9
1630501831015,13.06
1630501831031,12.85
1630501831046,12.38
1630501831062,11.76
1630501831078,11.09
1630501831093,10.33
1630501831109,9.3
1630501831125,7.82
1630501831140,5.77
1630501831156,3.22
1630501831171,0.45
1630501831187,-2.21
1630501831203,-4.54
1630501831218,-6.55
1630501831234,-8.43
1630501831250,-10.37
1630501831265,-12.3
1630501831281,-13.86
1630501831296,-14.43
1630501831312,-13.52
1630501831328,-10.94
1630501831343,-6.95
1630501831359,-2.12
1630501831375,2.93
1630501831390,7.65
1630501831406,11.63
1630501831421,14.49
1630501831437,15.82
1630501831453,15.25
1630501831468,12.74
1630501831484,8.73
1630501831500,4.31
1630501831515,0.96
1630501831531,-0.07
1630501831546,1.81
1630501831562,6.05
1630501831578,11.21
1630501831593,15.49
1630501831609,17.38
1630501831625,16.24
1630501831640,12.49
1630501831656,7.37
1630501831671,2.62
1630501831687,-0.09
1630501831703,0.4
1630501831718,4.41
1630501831734,11.24
1630501831750,19.22
1630501831765,26.22
1630501831781,30.15
1630501831796,29.73
1630501831812,24.85
1630501831828,16.59
1630501831843,6.73
1630501831859,-2.77
1630501831875,-10.38
1630501831890,-15.17
1630501831906,-16.95
1630501831921,-16.1
1630501831937,-13.51
1630501831953,-10.29
1630501831968,-7.44
1630501831984,-5.58
1630501832000,-4.65
1630501832015,-4.08
1630501832031,-3.05
1630501832046,-1.07
1630501832062,1.71
1630501832078,4.63
1630501832093,6.78
1630501832109,7.6
1630501832125,7.08
1630501832140,5.82
1630501832156,4.62
1630501832171,4.17
1630501832187,4.78
1630501832203,6.34
1630501832218,8.32
1630501832234,9.86
1630501832250,9.9
1630501832265,7.53
1630501832281,2.38
1630501832296,-5.03
1630501832312,-13.26
1630501832328,-20.46
1630501832343,-25.02
1630501832359,-26.2
1630501832375,-24.23
1630501832390,-20.11
1630501832406,-15.15
1630501832421,-10.69
1630501832437,-7.84
1630501832453,-7.51
1630501832468,-10.19
1630501832484,-15.7
1630501832500,-22.95
1630501832515,-30.01
1630501832531,-34.62
1630501832546,-34.86
1630501832562,-29.88
1630501832578,-20.07
1630501832593,-6.98
1630501832609,7.37
1630501832625,20.95
1630501832640,32.2
1630501832656,40.25
1630501832671,44.95
1630501832687,46.76
1630501832703,46.52
1630501832718,45.19
1630501832734,43.54
1630501832750,42.0
1630501832765,40.67
1630501832781,39.48
1630501832796,38.42
1630501832812,37.67
1630501832828,37.53
1630501832843,38.23
1630501832859,39.68
1630501832875,41.37
1630501832890,42.45
1630501832906,42.11
1630501832921,39.84
1630501832937,35.72
1630501832953,30.28
1630501832968,24.28
1630501832984,18.4
1630501833000,12.99
1630501833015,8.09
1630501833031,3.57
1630501833046,-0.69
1630501833062,-4.85
1630501833078,-9.08
1630501833093,-13.73
1630501833109,-19.22
1630501833125,-25.77
1630501833140,-33.21
1630501833156,-40.74
1630501833171,-47.09
1630501833187,-50.92
1630501833203,-51.34
1630501833218,-48.21
1630501833234,-42.18
1630501833250,-34.46
1630501833265,-26.26
1630501833281,-18.53
1630501833296,-11.78
1630501833312,-6.2
1630501833328,-1.8
1630501833343,1.36
1630501833359,3.25
1630501833375,3.92
1630501833390,3.57
1630501833406,2.62
1630501833421,1.56
1630501833437,0.82
1630501833453,0.58
1630501833468,0.72
1630501833484,0.94
1630501833500,0.93
1630501833515,0.52
1630501833531,-0.24
1630501833546,-1.14
1630501833562,-1.96
1630501833578,-2.54
1630501833593,-2.91
1630501833609,-3.14
1630501833625,-3.26
1630501833640,-3.28
1630501833656,-3.22
1630501833671,-3.26
1630501833687,-3.71
1630501833703,-5.0
1630501833718,-7.43
1630501833734,-10.97
1630501833750,-15.23
1630501833765,-19.45
1630501833781,-22.76
1630501833796,-24.35
1630501833812,-23.66
1630501833828,-20.45
1630501833843,-14.86
1630501833859,-7.4
1630501833875,1.09
1630501833890,9.52
1630501833906,16.78
1630501833921,21.98
1630501833937,24.71
1630501833953,25.12
1630501833968,23.81
1630501833984,21.64
1630501834000,19.43
1630501834015,17.8
1630501834031,17.12
1630501834046,17.55
1630501834062,19.14
1630501834078,21.81
1630501834093,25.32
1630501834109,29.23
1630501834125,32.96
1630501834140,35.93
1630501834156,37.73
1630501834171,38.2
1630501834187,37.4
1630501834203,35.46
1630501834218,32.44
1630501834234,28.28
1630501834250,22.91
1630501834265,16.4
1630501834281,9.04
1630501834296,1.34
1630501834312,-6.23
1630501834328,-13.48
1630501834343,-20.57
1630501834359,-27.95
1630501834375,-35.92
1630501834390,-44.37
1630501834406,-52.52
1630501834421,-59.19
1630501834437,-63.21
1630501834453,-63.92
1630501834468,-61.39
1630501834484,-56.33
1630501834500,-49.74
1630501834515,-42.42
1630501834531,-34.87
1630501834546,-27.35
1630501834562,-20.11
1630501834578,-13.58
1630501834593,-8.31
1630501834609,-4.76
1630501834625,-3.07
1630501834640,-3.04
1630501834656,-4.26
1630501834671,-6.29
1630501834687,-8.8
1630501834703,-11.53
1630501834718,-14.18
1630501834734,-16.38
1630501834750,-17.74
1630501834765,-18.07
1630501834781,-17.47
1630501834796,-16.29
1630501834812,-14.95
1630501834828,-13.68
1630501834843,-12.46
1630501834859,-11.12
1630501834875,-9.66
1630501834890,-8.32
1630501834906,-7.6
1630501834921,-7.92
1630501834937,-9.34
1630501834953,-11.5
1630501834968,-13.82
1630501834984,-15.92
1630501835000,-17.86
1630501835015,-20.12
1630501835031,-23.19
1630501835046,-27.12
1630501835062,-31.36
1630501835078,-34.95
1630501835093,-36.98
1630501835109,-36.99
1630501835125,-35.14
1630501835140,-31.9
1630501835156,-27.74
1630501835171,-22.86
1630501835187,-17.23
1630501835203,-10.87
1630501835218,-4.0
1630501835234,2.92
1630501835250,9.49
1630501835265,15.52
1630501835281,21.13
1630501835296,26.63
1630501835312,32.23
1630501835328,37.91
1630501835343,43.46
1630501835359,48.72
1630501835375,53.65
1630501835390,58.39
1630501835406,63.06
1630501835421,67.64
1630501835437,71.89
1630501835453,75.47
1630501835468,78.11
1630501835484,79.69
1630501835500,80.12
1630501835515,79.29
1630501835531,76.99
1630501835546,73.03
1630501835562,67.38
1630501835578,60.39
1630501835593,52.6
1630501835609,44.58
1630501835625,36.67
1630501835640,28.84
1630501835656,20.88
1630501835671,12.64
1630501835687,4.28
1630501835703,-3.62
1630501835718,-10.23
1630501835734,-14.76
1630501835750,-16.8
1630501835765,-16.46
1630501835781,-14.47
1630501835796,-11.8
1630501835812,-9.49
1630501835828,-8.22
1630501835843,-8.19
1630501835859,-9.18
1630501835875,-10.73
1630501835890,-12.49
1630501835906,-14.36
1630501835921,-16.49
1630501835937,-19.0
1630501835953,-21.72
1630501835968,-24.09
1630501835984,-25.29
1630501836000,-24.63
1630501836015,-21.93
1630501836031,-17.64
1630501836046,-12.68
1630501836062,-8.08
1630501836078,-4.59
1630501836093,-2.49
1630501836109,-1.57
1630501836125,-1.42
1630501836140,-1.62
1630501836156,-1.92
1630501836171,-2.27
1630501836187,-2.76
1630501836203,-3.5
1630501836218,-4.59
1630501836234,-6.12
1630501836250,-8.14
1630501836265,-10.67
1630501836281,-13.63
1630501836296,-16.77
1630501836312,-19.67
1630501836328,-21.68
1630501836343,-22.07
1630501836359,-20.15
1630501836375,-15.58
1630501836390,-8.41
1630501836406,0.81
1630501836421,11.14
1630501836437,21.45
1630501836453,30.69
1630501836468,38.11
1630501836484,43.38
1630501836500,46.66
1630501836515,48.37
1630501836531,49.01
1630501836546,48.89
1630501836562,48.07
1630501836578,46.43
1630501836593,43.85
1630501836609,40.39
1630501836625,36.35
1630501836640,32.2
1630501836656,28.35
1630501836671,25.05
1630501836687,22.21
1630501836703,19.48
1630501836718,16.43
1630501836734,12.72
1630501836750,8.29
1630501836765,3.33
1630501836781,-1.68
1630501836796,-6.28
1630501836812,-10.09
1630501836828,-13.05
1630501836843,-15.34
1630501836859,-17.33
1630501836875,-19.41
1630501836890,-21.87
1630501836906,-24.83
1630501836921,-28.2
1630501836937,-31.65
1630501836953,-34.68
1630501836968,-36.59
1630501836984,-36.68
1630501837000,-34.49
1630501837015,-30.04
1630501837031,-23.92
1630501837046,-17.22
1630501837062,-11.17
1630501837078,-6.74
1630501837093,-4.44
1630501837109,-4.26
1630501837125,-5.84
1630501837140,-8.74
1630501837156,-12.6
1630501837171,-17.16
1630501837187,-22.12
1630501837203,-27.09
1630501837218,-31.5
1630501837234,-34.79
1630501837250,-36.57
1630501837265,-36.74
1630501837281,-35.46
1630501837296,-33.1
1630501837312,-29.99
1630501837328,-26.34
1630501837343,-22.26
1630501837359,-17.85
1630501837375,-13.32
1630501837390,-8.94
1630501837406,-4.99
1630501837421,-1.56
1630501837437,1.46
1630501837453,4.33
1630501837468,7.2
1630501837484,10.04
1630501837500,12.5
1630501837515,14.13
1630501837531,14.54
1630501837546,13.6
1630501837562,11.52
1630501837578,8.79
1630501837593,6.1
1630501837609,4.16
1630501837625,3.6
1630501837640,4.82
1630501837656,7.88
1630501837671,12.44
1630501837687,17.92
1630501837703,23.64
1630501837718,29.01
1630501837734,33.59
1630501837750,37.06
1630501837765,39.15
1630501837781,39.58
1630501837796,38.22
1630501837812,35.16
1630501837828,30.87
1630501837843,26.01
1630501837859,21.18
1630501837875,16.64
1630501837890,12.3
1630501837906,7.94
1630501837921,3.47
1630501837937,-0.98
1630501837953,-5.09
1630501837968,-8.59
1630501837984,-11.43
1630501838000,-13.81
1630501838015,-16.05
1630501838031,-18.38
1630501838046,-20.84
1630501838062,-23.43
1630501838078,-26.16
1630501838093,-29.17
1630501838109,-32.56
1630501838125,-36.27
1630501838140,-40.04
1630501838156,-43.56
1630501838171,-46.56
1630501838187,-48.92
1630501838203,-50.7
1630501838218,-52.24
1630501838234,-53.84
1630501838250,-55.47
1630501838265,-56.65
1630501838281,-56.7
1630501838296,-54.9
1630501838312,-50.98
1630501838328,-44.81
1630501838343,-36.88
1630501838359,-28.22
1630501838375,-20.09
1630501838390,-13.39
1630501838406,-8.45
1630501838421,-5.28
1630501838437,-3.56
1630501838453,-3.08
1630501838468,-3.1
1630501838484,-2.97
1630501838500,-2.5
1630501838515,-1.81
1630501838531,-0.98
1630501838546,0.22
1630501838562,1.79
1630501838578,4.0
1630501838593,7.01
1630501838609,11.69
1630501838625,18.8
1630501838640,28.21
1630501838656,39.04
1630501838671,50.33
1630501838687,61.63
1630501838703,72.59
1630501838718,83.53
1630501838734,90.14
1630501838750,89.0
1630501838765,80.6
1630501838781,68.55
1630501838796,56.02
1630501838812,44.26
1630501838828,35.4
1630501838843,28.21
1630501838859,22.27
1630501838875,17.49
1630501838890,14.62
1630501838906,14.29
1630501838921,15.18
1630501838937,15.74
1630501838953,14.49
1630501838968,10.52
1630501838984,2.84
1630501839000,-8.86
1630501839015,-24.54
1630501839031,-42.51
1630501839046,-58.83
1630501839062,-70.17
1630501839078,-75.88
1630501839093,-77.3
1630501839109,-75.96
1630501839125,-73.12
1630501839140,-69.18
1630501839156,-64.35
1630501839171,-58.56
1630501839187,-52.2
1630501839203,-46.53
1630501839218,-43.13
1630501839234,-43.43
1630501839250,-46.86
1630501839265,-52.43
1630501839281,-58.46
1630501839296,-63.25
1630501839312,-65.28
1630501839328,-63.9
1630501839343,-59.81
1630501839359,-54.54
1630501839375,-49.65
1630501839390,-46.08
1630501839406,-44.07
1630501839421,-42.97
1630501839437,-42.18
1630501839453,-40.91
1630501839468,-38.6
1630501839484,-35.41
1630501839500,-31.89
1630501839515,-28.53
1630501839531,-25.27
1630501839546,-21.67
1630501839562,-17.02
1630501839578,-10.77
1630501839593,-2.81
1630501839609,6.5
1630501839625,16.46
1630501839640,26.56
1630501839656,36.7
1630501839671,47.05
1630501839687,57.52
1630501839703,67.44
1630501839718,75.64
1630501839734,80.87
1630501839750,82.48
1630501839765,80.76
1630501839781,76.92
1630501839796,72.64
1630501839812,69.27
1630501839828,67.29
1630501839843,66.21
1630501839859,65.06
1630501839875,62.99
1630501839890,59.79
1630501839906,55.93
1630501839921,52.21
1630501839937,49.25
1630501839953,47.07
1630501839968,45.16
1630501839984,42.9
1630501840000,39.97
1630501840015,36.49
1630501840031,32.83
1630501840046,29.15
1630501840062,25.23
1630501840078,20.52
1630501840093,14.47
1630501840109,6.94
1630501840125,-1.57
1630501840140,-9.99
1630501840156,-17.11
1630501840171,-22.01
1630501840187,-24.26
1630501840203,-23.84
1630501840218,-21.03
1630501840234,-16.15
1630501840250,-9.43
1630501840265,-1.04
1630501840281,8.91
1630501840296,19.86
1630501840312,30.71
1630501840328,40.19
1630501840343,47.22
1630501840359,51.31
1630501840375,52.71
1630501840390,52.39
1630501840406,51.52
1630501840421,51.29
1630501840437,51.97
1630501840453,53.24
1630501840468,54.84
1630501840484,56.92
1630501840500,59.83
1630501840515,63.59
1630501840531,67.62
1630501840546,70.76
1630501840562,72.25
1630501840578,71.25
1630501840593,67.75
1630501840609,62.82
1630501840625,58.19
1630501840640,55.17
1630501840656,53.97
1630501840671,53.85
1630501840687,53.7
1630501840703,53.25
1630501840718,51.67
1630501840734,47.9
1630501840750,40.95
1630501840765,30.23
1630501840781,15.79
1630501840796,-1.41
1630501840812,-19.53
1630501840828,-40.57
1630501840843,-60.75
1630501840859,-75.59
1630501840875,-84.27
1630501840890,-89.27
1630501840906,-92.8
1630501840921,-95.2
1630501840937,-95.67
1630501840953,-93.6
1630501840968,-89.44
1630501840984,-83.88
1630501841000,-79.62
1630501841015,-77.0
1630501841031,-75.31
1630501841046,-73.22
1630501841062,-69.7
1630501841078,-64.48
1630501841093,-58.07
1630501841109,-51.35
1630501841125,-44.69
1630501841140,-38.69
1630501841156,-33.62
1630501841171,-28.23
1630501841187,-21.87
1630501841203,-14.54
1630501841218,-6.52
1630501841234,1.75
1630501841250,9.36
1630501841265,15.22
1630501841281,17.87
1630501841296,16.84
1630501841312,13.25
1630501841328,9.51
1630501841343,7.58
1630501841359,8.09
1630501841375,9.73
1630501841390,9.57
1630501841406,4.64
1630501841421,-6.64
1630501841437,-23.67
1630501841453,-42.25
1630501841468,-57.49
1630501841484,-67.96
1630501841500,-75.74
1630501841515,-82.83
1630501841531,-88.61
1630501841546,-90.46
1630501841562,-86.5
1630501841578,-77.3
1630501841593,-68.34
1630501841609,-61.48
1630501841625,-57.82
1630501841640,-56.46
1630501841656,-54.84
1630501841671,-50.51
1630501841687,-42.82
1630501841703,-33.23
1630501841718,-24.27
1630501841734,-17.62
1630501841750,-14.81
1630501841765,-16.7
1630501841781,-22.66
1630501841796,-30.86
1630501841812,-39.29
1630501841828,-46.22
1630501841843,-50.28
1630501841859,-50.26
1630501841875,-45.26
1630501841890,-34.79
1630501841906,-19.42
1630501841921,-0.28
1630501841937,21.34
1630501841953,44.08
1630501841968,66.63
1630501841984,87.8
1630501842000,106.71
1630501842015,122.74
1630501842031,135.59
1630501842046,144.92
1630501842062,150.46
1630501842078,152.06
1630501842093,149.66
1630501842109,143.45
1630501842125,134.03
1630501842140,122.39
1630501842156,109.66
1630501842171,96.64
1630501842187,83.69
1630501842203,71.02
1630501842218,59.18
1630501842234,48.88
1630501842250,40.66
1630501842265,34.27
1630501842281,28.6
1630501842296,22.39
1630501842312,15.05
1630501842328,7.43
1630501842343,1.49
1630501842359,-0.71
1630501842375,1.62
1630501842390,7.27
1630501842406,13.55
1630501842421,17.65
1630501842437,18.04
1630501842453,15.11
1630501842468,10.51
1630501842484,5.8
1630501842500,1.31
1630501842515,-3.95
1630501842531,-11.35
1630501842546,-21.24
1630501842562,-32.16
1630501842578,-41.16
1630501842593,-45.18
1630501842609,-42.65
1630501842625,-34.57
1630501842640,-24.27
1630501842656,-16.11
1630501842671,-13.55
1630501842687,-17.91
1630501842703,-28.01
1630501842718,-40.89
1630501842734,-53.12
1630501842750,-62.01
1630501842765,-66.39
1630501842781,-66.63
1630501842796,-63.98
1630501842812,-59.79
1630501842828,-54.79
1630501842843,-48.99
1630501842859,-42.1
1630501842875,-34.31
1630501842890,-26.81
1630501842906,-21.58
1630501842921,-20.68
1630501842937,-25.21
1630501842953,-34.67
1630501842968,-46.96
1630501842984,-59.25
1630501843000,-68.97
1630501843015,-74.51
1630501843031,-75.51
1630501843046,-72.56
1630501843062,-66.69
1630501843078,-58.89
1630501843093,-49.96
1630501843109,-40.46
1630501843125,-30.95
1630501843140,-22.19
1630501843156,-15.02
1630501843171,-10.09
1630501843187,-7.39
1630501843203,-6.08
1630501843218,-4.73
1630501843234,-2.04
1630501843250,2.41
1630501843265,7.79
1630501843281,12.38
1630501843296,14.46
1630501843312,13.26
1630501843328,9.31
1630501843343,4.03
1630501843359,-1.09
1630501843375,-5.43
1630501843390,-9.36
1630501843406,-13.75
1630501843421,-19.21
1630501843437,-25.48
1630501843453,-31.49
1630501843468,-35.78
1630501843484,-37.19
1630501843500,-35.3
1630501843515,-30.37
1630501843531,-23.09
1630501843546,-14.2
1630501843562,-4.3
1630501843578,6.2
1630501843593,16.82
1630501843609,27.0
1630501843625,36.05
1630501843640,43.26
1630501843656,48.05
1630501843671,49.9
1630501843687,48.29
1630501843703,42.63
1630501843718,32.45
1630501843734,17.69
1630501843750,-0.77
1630501843765,-20.96
1630501843781,-39.92
1630501843796,-54.34
1630501843812,-61.54
1630501843828,-60.33
1630501843843,-51.44
1630501843859,-37.25
1630501843875,-21.07
1630501843890,-6.07
1630501843906,5.43
1630501843921,12.42
1630501843937,15.18
1630501843953,15.07
1630501843968,14.13
1630501843984,14.52
1630501844000,17.86
1630501844015,24.71
1630501844031,34.34
1630501844046,45.06
1630501844062,55.0
1630501844078,63.02
1630501844093,69.05
1630501844109,73.8
1630501844125,77.89
1630501844140,81.02
1630501844156,81.91
1630501844171,79.19
1630501844187,72.59
1630501844203,63.68
1630501844218,55.69
1630501844234,52.15
1630501844250,55.5
1630501844265,66.01
1630501844281,81.72
1630501844296,99.39
1630501844312,115.72
1630501844328,128.47
1630501844343,136.97
1630501844359,141.95
1630501844375,144.77
1630501844390,146.71
1630501844406,148.45
1630501844421,149.78
1630501844437,149.84
1630501844453,147.43
1630501844468,141.36
1630501844484,130.62
1630501844500,114.63
1630501844515,93.39
1630501844531,67.87
1630501844546,40.05
1630501844562,12.54
1630501844578,-12.14
1630501844593,-32.38
1630501844609,-47.97
1630501844625,-60.03
1630501844640,-70.24
1630501844656,-80.01
1630501844671,-89.63
1630501844687,-98.32
1630501844703,-105.05
1630501844718,-109.26
1630501844734,-110.98
1630501844750,-110.65
1630501844765,-108.64
1630501844781,-105.12
1630501844796,-100.31
1630501844812,-94.43
1630501844828,-87.99
1630501844843,-82.25
1630501844859,-78.8
1630501844875,-78.77
1630501844890,-82.21
1630501844906,-87.84
1630501844921,-93.67
1630501844937,-98.01
1630501844953,-99.78
1630501844968,-98.42
1630501844984,-94.45
1630501845000,-88.9
1630501845015,-82.66
1630501845031,-76.02
1630501845046,-68.81
1630501845062,-59.92
1630501845078,-50.59
1630501845093,-43.6
1630501845109,-40.36
1630501845125,-40.45
1630501845140,-42.14
1630501845156,-43.41
1630501845171,-42.6
1630501845187,-38.6
1630501845203,-30.88
1630501845218,-18.94
1630501845234,-2.39
1630501845250,19.09
1630501845265,43.66
1630501845281,67.23
1630501845296,84.44
1630501845312,90.5
1630501845328,83.11
1630501845343,63.74
1630501845359,37.42
1630501845375,7.24
1630501845390,-19.39
1630501845406,-36.17
1630501845421,-40.02
1630501845437,-31.72
1630501845453,-15.13
1630501845468,4.17
1630501845484,20.51
1630501845500,29.52
1630501845515,29.26
1630501845531,21.47
1630501845546,9.75
1630501845562,-1.28
1630501845578,-7.48
1630501845593,-6.47
1630501845609,1.75
1630501845625,15.12
1630501845640,30.56
1630501845656,45.18
1630501845671,57.61
1630501845687,67.09
1630501845703,73.17
1630501845718,75.58
1630501845734,74.22
1630501845750,69.49
1630501845765,62.45
1630501845781,54.68
1630501845796,47.75
1630501845812,43.0
1630501845828,40.46
1630501845843,39.1
1630501845859,37.42
1630501845875,34.15
1630501845890,28.79
1630501845906,21.76
1630501845921,14.09
1630501845937,6.89
1630501845953,1.03
1630501845968,-3.41
1630501845984,-7.03
1630501846000,-10.7
1630501846015,-15.13
1630501846031,-20.56
1630501846046,-26.63
1630501846062,-32.63
1630501846078,-37.84
1630501846093,-41.78
1630501846109,-44.51
1630501846125,-46.5
1630501846140,-48.46
1630501846156,-50.95
1630501846171,-54.18
1630501846187,-57.84
1630501846203,-61.2
1630501846218,-63.25
1630501846234,-63.09
1630501846250,-60.14
1630501846265,-54.33
1630501846281,-46.17
1630501846296,-36.53
1630501846312,-26.42
1630501846328,-16.69
1630501846343,-7.92
1630501846359,-0.3
1630501846375,6.18
1630501846390,11.67
1630501846406,16.28
1630501846421,20.03
1630501846437,22.9
1630501846453,24.84
1630501846468,25.85
1630501846484,26.07
1630501846500,25.7
1630501846515,25.02
1630501846531,24.25
1630501846546,23.56
1630501846562,22.98
1630501846578,22.42
1630501846593,21.79
1630501846609,21.01
1630501846625,20.12
1630501846640,19.25
1630501846656,18.55
1630501846671,18.12
1630501846687,17.92
1630501846703,17.83
1630501846718,17.6
1630501846734,16.98
1630501846750,15.76
1630501846765,13.85
1630501846781,11.43
1630501846796,8.95
1630501846812,7.17
1630501846828,6.96
1630501846843,9.02
1630501846859,13.64
1630501846875,20.49
1630501846890,28.69
1630501846906,37.21
1630501846921,45.18
1630501846937,52.2
1630501846953,58.29
1630501846968,63.66
1630501846984,68.41
1630501847000,72.28
1630501847015,74.75
1630501847031,75.19
1630501847046,73.06
1630501847062,68.01
1630501847078,59.9
1630501847093,48.75
1630501847109,34.85
1630501847125,18.9
1630501847140,2.01
1630501847156,-14.47
1630501847171,-29.35
1630501847187,-41.97
1630501847203,-52.4
1630501847218,-61.18
1630501847234,-68.9
1630501847250,-75.66
1630501847265,-80.86
1630501847281,-83.47
1630501847296,-82.6
1630501847312,-78.02
1630501847328,-70.44
1630501847343,-61.24
1630501847359,-52.03
1630501847375,-44.08
1630501847390,-38.08
1630501847406,-34.14
1630501847421,-32.0
1630501847437,-31.2
1630501847453,-31.21
1630501847468,-31.46
1630501847484,-31.31
1630501847500,-30.22
1630501847515,-27.92
1630501847531,-24.5
1630501847546,-20.45
1630501847562,-16.51
1630501847578,-13.35
1630501847593,-11.41
1630501847609,-10.8
1630501847625,-11.34
1630501847640,-12.74
1630501847656,-14.63
1630501847671,-16.67
1630501847687,-18.52
1630501847703,-19.92
1630501847718,-20.67
1630501847734,-20.79
1630501847750,-20.51
1630501847765,-20.18
1630501847781,-20.2
1630501847796,-20.77
1630501847812,-21.83
1630501847828,-23.11
1630501847843,-24.29
1630501847859,-25.16
1630501847875,-25.71
1630501847890,-26.11
1630501847906,-26.54
1630501847921,-27.13
1630501847937,-27.86
1630501847953,-28.73
1630501847968,-29.77
1630501847984,-31.17
1630501848000,-33.04
1630501848015,-35.39
1630501848031,-37.85
1630501848046,-39.75
1630501848062,-40.24
1630501848078,-38.61
1630501848093,-34.58
1630501848109,-28.39
1630501848125,-20.75
1630501848140,-12.57
1630501848156,-4.7
1630501848171,2.34
1630501848187,8.4
1630501848203,13.59
1630501848218,18.13
1630501848234,22.14
1630501848250,25.58
1630501848265,28.23
1630501848281,29.88
1630501848296,30.49
1630501848312,30.14
1630501848328,29.12
1630501848343,27.69
1630501848359,26.01
1630501848375,24.06
1630501848390,21.79
1630501848406,19.22
1630501848421,16.5
1630501848437,14.02
1630501848453,12.09
1630501848468,10.92
1630501848484,10.37
1630501848500,10.06
1630501848515,9.49
1630501848531,8.31
1630501848546,6.43
1630501848562,3.99
1630501848578,1.3
1630501848593,-1.39
1630501848609,-3.95
1630501848625,-6.38
1630501848640,-8.65
1630501848656,-10.55
1630501848671,-11.69
1630501848687,-11.57
1630501848703,-9.78
1630501848718,-6.23
1630501848734,-1.26
1630501848750,4.54
1630501848765,10.36
1630501848781,15.55
1630501848796,19.67
1630501848812,22.62
1630501848828,24.55
1630501848843,25.77
1630501848859,26.58
1630501848875,27.2
1630501848890,27.71
1630501848906,28.1
1630501848921,28.28
1630501848937,28.19
1630501848953,27.87
1630501848968,27.48
1630501848984,27.21
1630501849000,27.16
1630501849015,27.33
1630501849031,27.51
1630501849046,27.37
1630501849062,26.6
1630501849078,24.99
1630501849093,22.51
1630501849109,19.29
1630501849125,15.59
1630501849140,11.66
1630501849156,7.67
1630501849171,3.69
1630501849187,-0.25
1630501849203,-4.17
1630501849218,-8.04
1630501849234,-11.86
1630501849250,-15.62
1630501849265,-19.26
1630501849281,-22.57
1630501849296,-25.18
1630501849312,-26.6
1630501849328,-26.41
1630501849343,-24.47
1630501849359,-21.02
1630501849375,-16.62
1630501849390,-11.87
1630501849406,-7.26
1630501849421,-3.01
1630501849437,0.86
1630501849453,4.32
1630501849468,7.26
1630501849484,9.46
1630501849500,10.67
1630501849515,10.82
1630501849531,10.0
1630501849546,8.46
1630501849562,6.57
1630501849578,4.73
1630501849593,3.31
1630501849609,2.59
1630501849625,2.69
1630501849640,3.54
1630501849656,4.84
1630501849671,6.15
1630501849687,7.03
1630501849703,7.23
1630501849718,6.7
1630501849734,5.62
1630501849750,4.23
1630501849765,2.7
1630501849781,1.11
1630501849796,-0.54
1630501849812,-2.3
1630501849828,-4.13
1630501849843,-6.02
1630501849859,-8.02
1630501849875,-10.25
1630501849890,-12.82
1630501849906,-15.69
1630501849921,-18.49
1630501849937,-20.49
1630501849953,-20.88
1630501849968,-19.06
1630501849984,-14.98
1630501850000,-9.17
1630501850015,-2.62
1630501850031,3.62
1630501850046,8.8
1630501850062,12.55
1630501850078,14.94
1630501850093,16.17
1630501850109,16.47
1630501850125,15.99
1630501850140,14.85
1630501850156,13.26
1630501850171,11.47
1630501850187,9.79
1630501850203,8.47
1630501850218,7.59
1630501850234,7.09
1630501850250,6.75
1630501850265,6.32
1630501850281,5.64
1630501850296,4.68
1630501850312,3.55
1630501850328,2.45
1630501850343,1.57
1630501850359,0.99
1630501850375,0.69
1630501850390,0.52
1630501850406,0.31
1630501850421,-0.15
1630501850437,-0.97
1630501850453,-2.27
1630501850468,-4.11
1630501850484,-6.49
1630501850500,-9.28
1630501850515,-12.21
1630501850531,-14.8
1630501850546,-16.46
1630501850562,-16.66
1630501850578,-15.09
1630501850593,-11.74
1630501850609,-7.01
1630501850625,-1.55
1630501850640,3.86
1630501850656,8.57
1630501850671,12.13
1630501850687,14.47
1630501850703,15.77
1630501850718,16.42
1630501850734,16.77
1630501850750,17.07
1630501850765,17.39
1630501850781,17.71
1630501850796,17.99
1630501850812,18.27
1630501850828,18.66
1630501850843,19.19
1630501850859,19.74
1630501850875,20.02
1630501850890,19.69
1630501850906,18.57
1630501850921,16.73
1630501850937,14.55
1630501850953,12.51
1630501850968,10.98
1630501850984,9.99
1630501851000,9.31
1630501851015,8.51
1630501851031,7.19
1630501851046,5.21
1630501851062,2.63
1630501851078,-0.34
1630501851093,-3.5
1630501851109,-6.68
1630501851125,-9.82
1630501851140,-12.76
1630501851156,-15.26
1630501851171,-16.94
1630501851187,-17.42
1630501851203,-16.44
1630501851218,-14.03
1630501851234,-10.54
1630501851250,-6.5
1630501851265,-2.53
1630501851281,0.9
1630501851296,3.58
1630501851312,5.52
1630501851328,6.92
1630501851343,7.96
1630501851359,8.73
1630501851375,9.14
1630501851390,9.04
1630501851406,8.35
1630501851421,7.17
1630501851437,5.81
1630501851453,4.69
1630501851468,4.09
1630501851484,4.04
1630501851500,4.32
1630501851515,4.53
1630501851531,4.33
1630501851546,3.55
1630501851562,2.24
1630501851578,0.52
1630501851593,-1.5
1630501851609,-3.77
1630501851625,-6.27
1630501851640,-8.88
1630501851656,-11.4
1630501851671,-13.63
1630501851687,-15.45
1630501851703,-16.92
1630501851718,-18.24
1630501851734,-19.64
1630501851750,-21.15
1630501851765,-22.55
1630501851781,-23.4
1630501851796,-23.17
1630501851812,-21.44
1630501851828,-18.06
1630501851843,-13.22
1630501851859,-7.38
1630501851875,-1.21
1630501851890,4.62
1630501851906,9.58
1630501851921,13.36
1630501851937,15.97
1630501851953,17.65
1630501851968,18.79
1630501851984,19.68
1630501852000,20.47
1630501852015,21.15
1630501852031,21.58
1630501852046,21.65
1630501852062,21.33
1630501852078,20.7
1630501852093,19.89
1630501852109,18.95
1630501852125,17.86
1630501852140,16.55
1630501852156,14.95
1630501852171,13.09
1630501852187,11.14
1630501852203,9.28
1630501852218,7.69
1630501852234,6.34
1630501852250,5.12
1630501852265,3.76
1630501852281,2.07
1630501852296,-0.09
1630501852312,-2.69
1630501852328,-5.62
1630501852343,-8.68
1630501852359,-11.65
1630501852375,-14.24
1630501852390,-16.18
1630501852406,-17.17
1630501852421,-17.07
1630501852437,-15.85
1630501852453,-13.71
1630501852468,-10.96
1630501852484,-7.95
1630501852500,-4.95
1630501852515,-2.16
1630501852531,0.3
1630501852546,2.37
1630501852562,4.0
1630501852578,5.21
1630501852593,6.09
1630501852609,6.79
1630501852625,7.44
1630501852640,8.1
1630501852656,8.75
1630501852671,9.28
1630501852687,9.66
1630501852703,9.91
1630501852718,10.21
1630501852734,10.75
1630501852750,11.68
1630501852765,13.02
1630501852781,14.73
1630501852796,16.74
1630501852812,19.0
1630501852828,21.52
1630501852843,24.26
1630501852859,27.14
1630501852875,29.95
1630501852890,32.47
1630501852906,34.54
1630501852921,36.19
1630501852937,37.63
1630501852953,39.16
1630501852968,41.05
1630501852984,43.34
1630501853000,45.87
1630501853015,48.33
1630501853031,50.36
1630501853046,51.76
1630501853062,52.53
1630501853078,52.96
1630501853093,53.5
1630501853109,54.67
1630501853125,56.84
1630501853140,60.12
1630501853156,64.28
1630501853171,68.86
1630501853187,73.27
1630501853203,76.86
1630501853218,79.09
1630501853234,79.58
1630501853250,78.15
1630501853265,74.88
1630501853281,69.99
1630501853296,63.84
1630501853312,56.72
1630501853328,48.71
1630501853343,39.69
1630501853359,29.5
1630501853375,18.15
1630501853390,6.11
1630501853406,-5.76
1630501853421,-16.44
1630501853437,-25.18
1630501853453,-31.79
1630501853468,-36.72
1630501853484,-40.71
1630501853500,-44.47
1630501853515,-48.26
1630501853531,-51.79
1630501853546,-54.25
1630501853562,-54.67
1630501853578,-52.32
1630501853593,-47.08
1630501853609,-39.59
1630501853625,-31.17
1630501853640,-23.5
1630501853656,-18.23
1630501853671,-16.52
1630501853687,-18.77
1630501853703,-24.57
1630501853718,-32.82
1630501853734,-42.04
1630501853750,-50.82
1630501853765,-58.22
1630501853781,-64.09
1630501853796,-68.96
1630501853812,-73.83
1630501853828,-79.64
1630501853843,-86.81
1630501853859,-95.02
1630501853875,-103.19
1630501853890,-109.92
1630501853906,-113.9
1630501853921,-114.35
1630501853937,-111.06
1630501853953,-104.38
1630501853968,-95.05
1630501853984,-84.05
1630501854000,-72.44
1630501854015,-61.25
1630501854031,-51.33
1630501854046,-43.16
1630501854062,-36.77
1630501854078,-31.69
1630501854093,-27.19
1630501854109,-22.48
1630501854125,-17.08
1630501854140,-11.06
1630501854156,-5.02
1630501854171,0.09
1630501854187,3.4
1630501854203,4.56
1630501854218,3.88
1630501854234,2.23
1630501854250,0.74
1630501854265,0.27
1630501854281,1.24
1630501854296,3.41
1630501854312,6.23
1630501854328,9.0
1630501854343,11.27
1630501854359,12.8
1630501854375,13.62
1630501854390,13.85
1630501854406,13.56
1630501854421,12.83
1630501854437,11.73
1630501854453,10.39
1630501854468,9.01
1630501854484,7.79
1630501854500,6.84
1630501854515,6.2
1630501854531,5.8
1630501854546,5.6
1630501854562,5.57
1630501854578,5.71
1630501854593,6.02
1630501854609,6.43
1630501854625,6.76
1630501854640,6.81
1630501854656,6.37
1630501854671,5.33
1630501854687,3.71
1630501854703,1.62
1630501854718,-0.77
1630501854734,-3.28
1630501854750,-5.82
1630501854765,-8.36
1630501854781,-10.88
1630501854796,-13.29
1630501854812,-15.3
1630501854828,-16.44
1630501854843,-16.23
1630501854859,-14.33
1630501854875,-10.76
1630501854890,-5.96
1630501854906,-0.63
1630501854921,4.46
1630501854937,8.74
1630501854953,11.97
1630501854968,14.23
1630501854984,15.75
1630501855000,16.73
1630501855015,17.22
1630501855031,17.15
1630501855046,16.45
1630501855062,15.14
1630501855078,13.46
1630501855093,11.74
1630501855109,10.32
1630501855125,9.35
1630501855140,8.76
1630501855156,8.27
1630501855171,7.59
1630501855187,6.57
1630501855203,5.25
1630501855218,3.87
1630501855234,2.69
1630501855250,1.81
1630501855265,1.11
1630501855281,0.3
1630501855296,-0.88
1630501855312,-2.61
1630501855328,-4.82
1630501855343,-7.34
1630501855359,-9.93
1630501855375,-12.42
1630501855390,-14.69
1630501855406,-16.63
1630501855421,-18.02
1630501855437,-18.57
1630501855453,-17.98
1630501855468,-16.12
1630501855484,-13.12
1630501855500,-9.35
1630501855515,-5.3
1630501855531,-1.42
1630501855546,1.99
1630501855562,4.84
1630501855578,7.14
1630501855593,8.95
1630501855609,10.3
1630501855625,11.2
1630501855640,11.59
1630501855656,11.47
1630501855671,10.84
1630501855687,9.79
1630501855703,8.47
1630501855718,7.06
1630501855734,5.77
1630501855750,4.73
1630501855765,4.02
1630501855781,3.59
1630501855796,3.32
1630501855812,3.04
1630501855828,2.62
1630501855843,1.91
1630501855859,0.85
1630501855875,-0.6
1630501855890,-2.39
1630501855906,-4.45
1630501855921,-6.69
1630501855937,-9.1
1630501855953,-11.68
1630501855968,-14.41
1630501855984,-17.16
1630501856000,-19.64
1630501856015,-21.41
1630501856031,-22.07
1630501856046,-21.3
1630501856062,-19.12
1630501856078,-15.75
1630501856093,-11.58
1630501856109,-7.06
1630501856125,-2.52
1630501856140,1.77
1630501856156,5.58
1630501856171,8.71
1630501856187,11.02
1630501856203,12.43
1630501856218,12.99
1630501856234,12.83
1630501856250,12.11
1630501856265,11.0
1630501856281,9.64
1630501856296,8.19
1630501856312,6.84
1630501856328,5.79
1630501856343,5.19
1630501856359,5.11
1630501856375,5.46
1630501856390,5.99
1630501856406,6.43
1630501856421,6.49
1630501856437,6.02
1630501856453,5.04
1630501856468,3.66
1630501856484,2.08
1630501856500,0.41
1630501856515,-1.34
1630501856531,-3.25
1630501856546,-5.41
1630501856562,-7.82
1630501856578,-10.31
1630501856593,-12.53
1630501856609,-14.03
1630501856625,-14.49
1630501856640,-13.71
1630501856656,-11.76
1630501856671,-8.83
1630501856687,-5.2
1630501856703,-1.1
1630501856718,3.24
1630501856734,7.65
1630501856750,11.96
1630501856765,15.97
1630501856781,19.42
1630501856796,22.05
1630501856812,23.64
1630501856828,24.06
1630501856843,23.32
1630501856859,21.62
1630501856875,19.33
1630501856890,16.89
1630501856906,14.7
1630501856921,12.98
1630501856937,11.75
1630501856953,10.85
1630501856968,10.08
1630501856984,9.29
1630501857000,8.38
1630501857015,7.28
1630501857031,5.91
1630501857046,4.13
1630501857062,1.84
1630501857078,-0.92
1630501857093,-3.91
1630501857109,-6.82
1630501857125,-9.41
1630501857140,-11.69
1630501857156,-13.86
1630501857171,-16.2
1630501857187,-18.8
1630501857203,-21.38
1630501857218,-23.36
1630501857234,-24.09
1630501857250,-23.09
1630501857265,-20.33
1630501857281,-16.17
1630501857296,-11.18
1630501857312,-5.89
1630501857328,-0.68
1630501857343,4.24
1630501857359,8.69
1630501857375,12.46
1630501857390,15.23
1630501857406,16.7
1630501857421,16.71
1630501857437,15.37
1630501857453,13.06
1630501857468,10.4
1630501857484,8.06
1630501857500,6.55
1630501857515,6.09
1630501857531,6.51
1630501857546,7.4
1630501857562,8.22
1630501857578,8.55
1630501857593,8.26
1630501857609,7.4
1630501857625,6.17
1630501857640,4.72
1630501857656,3.06
1630501857671,1.06
1630501857687,-1.33
1630501857703,-4.05
1630501857718,-6.87
1630501857734,-9.54
1630501857750,-11.98
1630501857765,-14.27
1630501857781,-16.57
1630501857796,-18.88
1630501857812,-20.88
1630501857828,-21.95
1630501857843,-21.4
1630501857859,-18.85
1630501857875,-14.4
1630501857890,-8.73
1630501857906,-2.71
1630501857921,2.84
1630501857937,7.51
1630501857953,11.2
1630501857968,14.06
1630501857984,16.2
1630501858000,17.62
1630501858015,18.22
1630501858031,17.97
1630501858046,17.02
1630501858062,15.6
1630501858078,14.05
1630501858093,12.59
1630501858109,11.37
1630501858125,10.4
1630501858140,9.63
1630501858156,8.91
1630501858171,8.07
1630501858187,6.95
1630501858203,5.51
1630501858218,3.85
1630501858234,2.17
1630501858250,0.67
1630501858265,-0.64
1630501858281,-1.91
1630501858296,-3.41
1630501858312,-5.35
1630501858328,-7.78
1630501858343,-10.59
1630501858359,-13.6
1630501858375,-16.67
1630501858390,-19.7
1630501858406,-22.51
1630501858421,-24.78
1630501858437,-26.01
1630501858453,-25.7
1630501858468,-23.55
1630501858484,-19.65
1630501858500,-14.44
1630501858515,-8.61
1630501858531,-2.89
1630501858546,2.19
1630501858562,6.32
1630501858578,9.49
1630501858593,11.82
1630501858609,13.51
1630501858625,14.73
1630501858640,15.54
1630501858656,15.91
1630501858671,15.78
1630501858687,15.12
1630501858703,14.08
1630501858718,12.93
1630501858734,11.95
1630501858750,11.33
1630501858765,11.04
1630501858781,10.87
1630501858796,10.53
1630501858812,9.82
1630501858828,8.71
1630501858843,7.3
1630501858859,5.72
1630501858875,4.07
1630501858890,2.37
1630501858906,0.53
1630501858921,-1.52
1630501858937,-3.8
1630501858953,-6.29
1630501858968,-8.92
1630501858984,-11.61
1630501859000,-14.18
1630501859015,-16.37
1630501859031,-17.82
1630501859046,-18.14
1630501859062,-17.05
1630501859078,-14.37
1630501859093,-10.21
1630501859109,-4.84
1630501859125,1.33
1630501859140,7.82
1630501859156,14.15
1630501859171,19.93
1630501859187,24.83
1630501859203,28.69
1630501859218,31.46
1630501859234,33.17
1630501859250,33.95
1630501859265,33.96
1630501859281,33.4
1630501859296,32.48
1630501859312,31.41
1630501859328,30.42
1630501859343,29.66
1630501859359,29.3
1630501859375,29.46
1630501859390,30.21
1630501859406,31.49
1630501859421,33.15
1630501859437,34.85
1630501859453,36.26
1630501859468,37.05
1630501859484,37.06
1630501859500,36.25
1630501859515,34.71
1630501859531,32.6
1630501859546,29.99
1630501859562,26.81
1630501859578,22.9
1630501859593,18.05
1630501859609,12.27
1630501859625,5.79
1630501859640,-0.82
1630501859656,-6.88
1630501859671,-11.81
1630501859687,-15.34
1630501859703,-17.63
1630501859718,-19.14
1630501859734,-20.45
1630501859750,-22.05
1630501859765,-24.18
1630501859781,-26.86
1630501859796,-29.94
1630501859812,-33.15
1630501859828,-36.16
1630501859843,-38.59
1630501859859,-40.08
1630501859875,-40.4
1630501859890,-39.59
1630501859906,-37.91
1630501859921,-35.77
1630501859937,-33.54
1630501859953,-31.43
1630501859968,-29.39
1630501859984,-27.28
1630501860000,-24.99
1630501860015,-22.56
1630501860031,-20.15
1630501860046,-18.01
1630501860062,-16.32
1630501860078,-15.09
1630501860093,-14.24
1630501860109,-13.58
1630501860125,-13.01
1630501860140,-12.5
1630501860156,-12.22
1630501860171,-12.38
1630501860187,-13.24
1630501860203,-15.01
1630501860218,-17.7
1630501860234,-21.07
1630501860250,-24.56
1630501860265,-27.38
1630501860281,-28.64
1630501860296,-27.67
1630501860312,-24.14
1630501860328,-18.2
1630501860343,-10.48
1630501860359,-1.95
1630501860375,6.33
1630501860390,13.35
1630501860406,18.39
1630501860421,21.13
1630501860437,21.65
1630501860453,20.4
1630501860468,17.95
1630501860484,14.9
1630501860500,11.68
1630501860515,8.54
1630501860531,5.61
1630501860546,3.0
1630501860562,0.8
1630501860578,-0.9
1630501860593,-2.09
1630501860609,-2.91
1630501860625,-3.6
1630501860640,-4.4
1630501860656,-5.44
1630501860671,-6.72
1630501860687,-8.08
1630501860703,-9.35
1630501860718,-10.42
1630501860734,-11.34
1630501860750,-12.26
1630501860765,-13.36
1630501860781,-14.78
1630501860796,-16.59
1630501860812,-18.77
1630501860828,-21.17
1630501860843,-23.47
1630501860859,-25.16
1630501860875,-25.64
1630501860890,-24.39
1630501860906,-21.18
1630501860921,-16.21
1630501860937,-10.11
1630501860953,-3.67
1630501860968,2.35
1630501860984,7.47
1630501861000,11.54
1630501861015,14.65
1630501861031,16.98
1630501861046,18.65
1630501861062,19.68
1630501861078,20.05
1630501861093,19.77
1630501861109,18.91
1630501861125,17.7
1630501861140,16.35
1630501861156,15.05
1630501861171,13.83
1630501861187,12.64
1630501861203,11.37
1630501861218,9.98
1630501861234,8.53
1630501861250,7.14
1630501861265,5.92
1630501861281,4.85
1630501861296,3.75
1630501861312,2.37
1630501861328,0.5
1630501861343,-1.97
1630501861359,-4.99
1630501861375,-8.38
1630501861390,-11.96
1630501861406,-15.51
1630501861421,-18.8
1630501861437,-21.54
1630501861453,-23.37
1630501861468,-23.93
1630501861484,-22.97
1630501861500,-20.36
1630501861515,-16.23
1630501861531,-10.84
1630501861546,-4.62
1630501861562,1.95
1630501861578,8.41
1630501861593,14.35
1630501861609,19.51
1630501861625,23.72
1630501861640,26.95
1630501861656,29.19
1630501861671,30.4
1630501861687,30.57
1630501861703,29.68
1630501861718,27.81
1630501861734,25.2
1630501861750,22.21
1630501861765,19.21
1630501861781,16.49
1630501861796,14.14
1630501861812,12.12
1630501861828,10.27
1630501861843,8.43
1630501861859,6.54
1630501861875,4.52
1630501861890,2.34
1630501861906,-0.1
1630501861921,-2.91
1630501861937,-6.15
1630501861953,-9.76
1630501861968,-13.59
1630501861984,-17.46
1630501862000,-21.2
1630501862015,-24.75
1630501862031,-27.98
1630501862046,-30.68
1630501862062,-32.39
1630501862078,-32.58
1630501862093,-30.78
1630501862109,-26.83
1630501862125,-20.99
1630501862140,-13.87
1630501862156,-6.23
1630501862171,1.24
1630501862187,8.11
1630501862203,14.13
1630501862218,19.19
1630501862234,23.19
1630501862250,25.98
1630501862265,27.49
1630501862281,27.77
1630501862296,27.04
1630501862312,25.59
1630501862328,23.77
1630501862343,21.82
1630501862359,19.86
1630501862375,17.94
1630501862390,16.03
1630501862406,14.12
1630501862421,12.21
1630501862437,10.31
1630501862453,8.43
1630501862468,6.55
1630501862484,4.59
1630501862500,2.46
1630501862515,0.05
1630501862531,-2.68
1630501862546,-5.72
1630501862562,-9.05
1630501862578,-12.64
1630501862593,-16.51
1630501862609,-20.66
1630501862625,-25.03
1630501862640,-29.36
1630501862656,-33.16
1630501862671,-35.83
1630501862687,-36.74
1630501862703,-35.52
1630501862718,-32.08
1630501862734,-26.7
1630501862750,-19.91
1630501862765,-12.36
1630501862781,-4.68
1630501862796,2.62
1630501862812,9.19
1630501862828,14.83
1630501862843,19.45
1630501862859,23.0
1630501862875,25.45
1630501862890,26.78
1630501862906,27.02
1630501862921,26.27
1630501862937,24.72
1630501862953,22.68
1630501862968,20.51
1630501862984,18.49
1630501863000,16.78
1630501863015,15.36
1630501863031,14.11
1630501863046,12.84
1630501863062,11.35
1630501863078,9.61
1630501863093,7.64
1630501863109,5.57
1630501863125,3.54
1630501863140,1.6
1630501863156,-0.31
1630501863171,-2.33
1630501863187,-4.65
1630501863203,-7.44
1630501863218,-10.76
1630501863234,-14.56
1630501863250,-18.64
1630501863265,-22.62
1630501863281,-25.97
1630501863296,-28.07
1630501863312,-28.29
1630501863328,-26.17
1630501863343,-21.64
1630501863359,-15.08
1630501863375,-7.26
1630501863390,0.89
1630501863406,8.5
1630501863421,15.0
1630501863437,20.15
1630501863453,24.01
1630501863468,26.79
1630501863484,28.7
1630501863500,29.88
1630501863515,30.35
1630501863531,30.07
1630501863546,28.97
1630501863562,27.06
1630501863578,24.49
1630501863593,21.59
1630501863609,18.76
1630501863625,16.31
1630501863640,14.39
1630501863656,12.88
1630501863671,11.49
1630501863687,9.92
1630501863703,7.99
1630501863718,5.71
1630501863734,3.17
1630501863750,0.48
1630501863765,-2.38
1630501863781,-5.48
1630501863796,-8.92
1630501863812,-12.76
1630501863828,-16.94
1630501863843,-21.37
1630501863859,-25.89
1630501863875,-30.28
1630501863890,-34.23
1630501863906,-37.33
1630501863921,-39.11
1630501863937,-39.16
1630501863953,-37.24
1630501863968,-33.33
1630501863984,-27.66
1630501864000,-20.68
1630501864015,-12.95
1630501864031,-5.05
1630501864046,2.49
1630501864062,9.24
1630501864078,14.93
1630501864093,19.41
1630501864109,22.7
1630501864125,24.86
1630501864140,26.03
1630501864156,26.34
1630501864171,25.84
1630501864187,24.61
1630501864203,22.75
1630501864218,20.48
1630501864234,18.11
1630501864250,15.98
1630501864265,14.33
1630501864281,13.19
1630501864296,12.38
1630501864312,11.61
1630501864328,10.57
1630501864343,9.05
1630501864359,7.02
1630501864375,4.56
1630501864390,1.78
1630501864406,-1.24
1630501864421,-4.42
1630501864437,-7.69
1630501864453,-10.91
1630501864468,-13.97
1630501864484,-16.85
1630501864500,-19.71
1630501864515,-22.8
1630501864531,-26.27
1630501864546,-30.03
1630501864562,-33.6
1630501864578,-36.29
1630501864593,-37.36
1630501864609,-36.27
1630501864625,-32.9
1630501864640,-27.45
1630501864656,-20.43
1630501864671,-12.44
1630501864687,-4.1
1630501864703,4.07
1630501864718,11.56
1630501864734,17.99
1630501864750,23.03
1630501864765,26.55
1630501864781,28.55
1630501864796,29.19
1630501864812,28.8
1630501864828,27.74
1630501864843,26.38
1630501864859,24.95
1630501864875,23.56
1630501864890,22.16
1630501864906,20.63
1630501864921,18.91
1630501864937,17.03
1630501864953,15.14
1630501864968,13.38
1630501864984,11.78
1630501865000,10.23
1630501865015,8.51
1630501865031,6.43
1630501865046,3.94
1630501865062,1.1
1630501865078,-1.88
1630501865093,-4.82
1630501865109,-7.6
1630501865125,-10.2
1630501865140,-12.66
1630501865156,-15.09
1630501865171,-17.6
1630501865187,-20.34
1630501865203,-23.42
1630501865218,-26.9
1630501865234,-30.65
1630501865250,-34.31
1630501865265,-37.27
1630501865281,-38.79
1630501865296,-38.26
1630501865312,-35.37
1630501865328,-30.24
1630501865343,-23.39
1630501865359,-15.54
1630501865375,-7.38
1630501865390,0.52
1630501865406,7.75
1630501865421,14.02
1630501865437,19.04
1630501865453,22.58
1630501865468,24.53
1630501865484,24.97
1630501865500,24.29
1630501865515,23.03
1630501865531,21.76
1630501865546,20.85
1630501865562,20.4
1630501865578,20.26
1630501865593,20.12
1630501865609,19.74
1630501865625,18.96
1630501865640,17.81
1630501865656,16.4
1630501865671,14.83
1630501865687,13.2
1630501865703,11.54
1630501865718,9.9
1630501865734,8.31
1630501865750,6.82
1630501865765,5.39
1630501865781,3.92
1630501865796,2.24
1630501865812,0.19
1630501865828,-2.28
1630501865843,-5.12
1630501865859,-8.15
1630501865875,-11.26
1630501865890,-14.4
1630501865906,-17.59
1630501865921,-20.77
1630501865937,-23.7
1630501865953,-25.92
1630501865968,-26.84
1630501865984,-25.97
1630501866000,-23.15
1630501866015,-18.62
1630501866031,-12.92
1630501866046,-6.72
1630501866062,-0.59
1630501866078,5.16
1630501866093,10.43
1630501866109,15.25
1630501866125,19.6
1630501866140,23.29
1630501866156,26.03
1630501866171,27.51
1630501866187,27.63
1630501866203,26.52
1630501866218,24.59
1630501866234,22.34
1630501866250,20.17
1630501866265,18.3
1630501866281,16.72
1630501866296,15.34
1630501866312,14.06
1630501866328,12.89
1630501866343,11.85
1630501866359,10.94
1630501866375,9.97
1630501866390,8.72
1630501866406,6.89
1630501866421,4.37
1630501866437,1.27
1630501866453,-2.15
1630501866468,-5.49
1630501866484,-8.48
1630501866500,-11.03
1630501866515,-13.3
1630501866531,-15.57
1630501866546,-18.12
1630501866562,-21.08
1630501866578,-24.46
1630501866593,-28.11
1630501866609,-31.78
1630501866625,-35.16
1630501866640,-37.81
1630501866656,-39.23
1630501866671,-38.93
1630501866687,-36.61
1630501866703,-32.3
1630501866718,-26.4
1630501866734,-19.61
1630501866750,-12.62
1630501866765,-5.97
1630501866781,0.1
1630501866796,5.56
1630501866812,10.42
1630501866828,14.58
1630501866843,17.84
1630501866859,20.04
1630501866875,21.16
1630501866890,21.38
1630501866906,21.0
1630501866921,20.3
1630501866937,19.42
1630501866953,18.39
1630501866968,17.18
1630501866984,15.82
1630501867000,14.42
1630501867015,13.15
1630501867031,12.09
1630501867046,11.24
1630501867062,10.46
1630501867078,9.6
1630501867093,8.45
1630501867109,6.91
1630501867125,4.91
1630501867140,2.52
1630501867156,-0.2
1630501867171,-3.07
1630501867187,-5.94
1630501867203,-8.7
1630501867218,-11.22
1630501867234,-13.52
1630501867250,-15.65
1630501867265,-17.77
1630501867281,-20.09
1630501867296,-22.81
1630501867312,-25.94
1630501867328,-29.28
1630501867343,-32.31
1630501867359,-34.33
1630501867375,-34.67
1630501867390,-32.92
1630501867406,-29.06
1630501867421,-23.5
1630501867437,-16.87
1630501867453,-9.87
1630501867468,-3.05
1630501867484,3.19
1630501867500,8.59
1630501867515,12.95
1630501867531,16.14
1630501867546,18.05
1630501867562,18.73
1630501867578,18.4
1630501867593,17.44
1630501867609,16.28
1630501867625,15.28
1630501867640,14.66
1630501867656,14.35
1630501867671,14.18
1630501867687,13.9
1630501867703,13.34
1630501867718,12.44
1630501867734,11.27
1630501867750,9.95
1630501867765,8.58
1630501867781,7.23
1630501867796,5.87
1630501867812,4.46
1630501867828,2.91
1630501867843,1.15
1630501867859,-0.87
1630501867875,-3.12
1630501867890,-5.55
1630501867906,-8.08
1630501867921,-10.63
1630501867937,-13.19
1630501867953,-15.76
1630501867968,-18.37
1630501867984,-21.05
1630501868000,-23.71
1630501868015,-26.21
1630501868031,-28.28
1630501868046,-29.61
1630501868062,-29.89
1630501868078,-28.87
1630501868093,-26.4
1630501868109,-22.48
1630501868125,-17.33
1630501868140,-11.32
1630501868156,-4.95
1630501868171,1.28
1630501868187,6.97
1630501868203,11.88
1630501868218,15.87
1630501868234,18.89
1630501868250,20.88
1630501868265,21.83
1630501868281,21.82
1630501868296,21.05
1630501868312,19.8
1630501868328,18.37
1630501868343,17.01
1630501868359,15.85
1630501868375,14.94
1630501868390,14.29
1630501868406,13.85
1630501868421,13.56
1630501868437,13.31
1630501868453,12.94
1630501868468,12.3
1630501868484,11.3
1630501868500,9.9
1630501868515,8.14
1630501868531,6.13
1630501868546,3.93
1630501868562,1.68
1630501868578,-0.55
1630501868593,-2.67
1630501868609,-4.7
1630501868625,-6.72
1630501868640,-8.94
1630501868656,-11.55
1630501868671,-14.65
1630501868687,-18.11
1630501868703,-21.57
1630501868718,-24.37
1630501868734,-25.8
1630501868750,-25.25
1630501868765,-22.49
1630501868781,-17.74
1630501868796,-11.65
1630501868812,-5.1
1630501868828,1.14
1630501868843,6.57
1630501868859,11.03
1630501868875,14.57
1630501868890,17.25
1630501868906,19.11
1630501868921,20.1
1630501868937,20.17
1630501868953,19.35
1630501868968,17.8
1630501868984,15.76
1630501869000,13.55
1630501869015,11.47
1630501869031,9.77
1630501869046,8.58
1630501869062,7.83
1630501869078,7.33
1630501869093,6.79
1630501869109,6.0
1630501869125,4.89
1630501869140,3.52
1630501869156,1.96
1630501869171,0.22
1630501869187,-1.78
1630501869203,-4.12
1630501869218,-6.74
1630501869234,-9.45
1630501869250,-12.0
1630501869265,-14.24
1630501869281,-16.25
1630501869296,-18.3
1630501869312,-20.75
1630501869328,-23.76
1630501869343,-27.22
1630501869359,-30.69
1630501869375,-33.5
1630501869390,-34.97
1630501869406,-34.6
1630501869421,-32.21
1630501869437,-27.88
1630501869453,-22.06
1630501869468,-15.31
1630501869484,-8.29
1630501869500,-1.55
1630501869515,4.52
1630501869531,9.68
1630501869546,13.84
1630501869562,16.94
1630501869578,19.05
1630501869593,20.21
1630501869609,20.58
1630501869625,20.33
1630501869640,19.68
1630501869656,18.77
1630501869671,17.73
1630501869687,16.59
1630501869703,15.38
1630501869718,14.17
1630501869734,13.01
1630501869750,11.96
1630501869765,11.01
1630501869781,10.04
1630501869796,8.87
1630501869812,7.36
1630501869828,5.44
1630501869843,3.22
1630501869859,0.89
1630501869875,-1.32
1630501869890,-3.32
1630501869906,-5.18
1630501869921,-7.12
1630501869937,-9.39
1630501869953,-12.14
1630501869968,-15.4
1630501869984,-19.06
1630501870000,-22.94
1630501870015,-26.79
1630501870031,-30.29
1630501870046,-33.02
1630501870062,-34.44
1630501870078,-34.04
1630501870093,-31.54
1630501870109,-26.98
1630501870125,-20.86
1630501870140,-13.98
1630501870156,-7.18
1630501870171,-1.05
1630501870187,4.09
1630501870203,8.18
1630501870218,11.34
1630501870234,13.69
1630501870250,15.31
1630501870265,16.29
1630501870281,16.72
1630501870296,16.7
1630501870312,16.32
1630501870328,15.56
1630501870343,14.44
1630501870359,13.0
1630501870375,11.4
1630501870390,9.87
1630501870406,8.66
1630501870421,7.96
1630501870437,7.72
1630501870453,7.75
1630501870468,7.75
1630501870484,7.42
1630501870500,6.55
1630501870515,5.11
1630501870531,3.16
1630501870546,0.86
1630501870562,-1.64
1630501870578,-4.25
1630501870593,-6.9
1630501870609,-9.55
1630501870625,-12.17
1630501870640,-14.71
1630501870656,-17.12
1630501870671,-19.36
1630501870687,-21.31
1630501870703,-22.75
1630501870718,-23.33
1630501870734,-22.64
1630501870750,-20.33
1630501870765,-16.3
1630501870781,-10.81
1630501870796,-4.41
1630501870812,2.21
1630501870828,8.43
1630501870843,13.82
1630501870859,18.17
1630501870875,21.39
1630501870890,23.48
1630501870906,24.49
1630501870921,24.56
1630501870937,23.9
1630501870953,22.79
1630501870968,21.48
1630501870984,20.16
1630501871000,18.95
1630501871015,17.83
1630501871031,16.83
1630501871046,15.94
1630501871062,15.16
1630501871078,14.47
1630501871093,13.76
1630501871109,12.89
1630501871125,11.71
1630501871140,10.12
1630501871156,8.1
1630501871171,5.71
1630501871187,3.08
1630501871203,0.32
1630501871218,-2.49
1630501871234,-5.3
1630501871250,-8.12
1630501871265,-11.01
1630501871281,-14.06
1630501871296,-17.32
1630501871312,-20.76
1630501871328,-24.18
1630501871343,-27.2
1630501871359,-29.29
1630501871375,-29.89
1630501871390,-28.59
1630501871406,-25.3
1630501871421,-20.34
1630501871437,-14.29
1630501871453,-7.88
1630501871468,-1.71
1630501871484,3.83
1630501871500,8.58
1630501871515,12.47
1630501871531,15.45
1630501871546,17.44
1630501871562,18.35
1630501871578,18.21
1630501871593,17.2
1630501871609,15.65
1630501871625,13.94
1630501871640,12.41
1630501871656,11.24
1630501871671,10.46
1630501871687,9.91
1630501871703,9.41
1630501871718,8.78
1630501871734,7.93
1630501871750,6.83
1630501871765,5.54
1630501871781,4.12
1630501871796,2.58
1630501871812,0.87
1630501871828,-1.06
1630501871843,-3.24
1630501871859,-5.64
1630501871875,-8.19
1630501871890,-10.78
1630501871906,-13.38
1630501871921,-16.02
1630501871937,-18.82
1630501871953,-21.85
1630501871968,-25.03
1630501871984,-28.06
1630501872000,-30.39
1630501872015,-31.41
1630501872031,-30.58
1630501872046,-27.7
1630501872062,-22.96
1630501872078,-16.91
1630501872093,-10.23
1630501872109,-3.54
1630501872125,2.76
1630501872140,8.43
1630501872156,13.33
1630501872171,17.28
1630501872187,20.11
1630501872203,21.65
1630501872218,21.94
1630501872234,21.21
1630501872250,19.81
1630501872265,18.11
1630501872281,16.42
1630501872296,14.9
1630501872312,13.6
1630501872328,12.52
1630501872343,11.59
1630501872359,10.75
1630501872375,9.89
1630501872390,8.9
1630501872406,7.68
1630501872421,6.19
1630501872437,4.35
1630501872453,2.15
1630501872468,-0.41
1630501872484,-3.2
1630501872500,-5.98
1630501872515,-8.44
1630501872531,-10.37
1630501872546,-11.81
1630501872562,-13.08
1630501872578,-14.66
1630501872593,-16.98
1630501872609,-20.19
1630501872625,-24.03
1630501872640,-27.86
1630501872656,-30.89
1630501872671,-32.39
1630501872687,-31.88
1630501872703,-29.2
1630501872718,-24.55
1630501872734,-18.4
1630501872750,-11.4
1630501872765,-4.29
1630501872781,2.29
1630501872796,7.84
1630501872812,12.11
1630501872828,15.08
1630501872843,16.9
1630501872859,17.86
1630501872875,18.21
1630501872890,18.2
1630501872906,17.94
1630501872921,17.52
1630501872937,16.92
1630501872953,16.19
1630501872968,15.39
1630501872984,14.61
1630501873000,13.95
1630501873015,13.45
1630501873031,13.08
1630501873046,12.76
1630501873062,12.37
1630501873078,11.79
1630501873093,10.91
1630501873109,9.65
1630501873125,7.98
1630501873140,5.9
1630501873156,3.52
1630501873171,0.97
1630501873187,-1.57
1630501873203,-3.96
1630501873218,-6.18
1630501873234,-8.34
1630501873250,-10.66
1630501873265,-13.34
1630501873281,-16.37
1630501873296,-19.47
1630501873312,-22.07
1630501873328,-23.46
1630501873343,-23.04
1630501873359,-20.55
1630501873375,-16.12
1630501873390,-10.27
1630501873406,-3.66
1630501873421,3.02
1630501873437,9.2
1630501873453,14.51
1630501873468,18.72
1630501873484,21.79
1630501873500,23.82
1630501873515,24.97
1630501873531,25.39
1630501873546,25.2
1630501873562,24.45
1630501873578,23.17
1630501873593,21.45
1630501873609,19.56
1630501873625,17.8
1630501873640,16.48
1630501873656,15.72
1630501873671,15.43
1630501873687,15.3
1630501873703,14.99
1630501873718,14.18
1630501873734,12.76
1630501873750,10.73
1630501873765,8.21
1630501873781,5.32
1630501873796,2.21
1630501873812,-0.97
1630501873828,-4.11
1630501873843,-7.08
1630501873859,-9.86
1630501873875,-12.56
1630501873890,-15.36
1630501873906,-18.48
1630501873921,-22.08
1630501873937,-26.05
1630501873953,-30.01
1630501873968,-33.31
1630501873984,-35.14
1630501874000,-34.82
1630501874015,-31.96
1630501874031,-26.69
1630501874046,-19.63
1630501874062,-11.72
1630501874078,-3.93
1630501874093,3.02
1630501874109,8.73
1630501874125,13.16
1630501874140,16.39
1630501874156,18.51
1630501874171,19.58
1630501874187,19.67
1630501874203,18.91
1630501874218,17.56
1630501874234,15.97
1630501874250,14.45
1630501874265,13.18
1630501874281,12.23
1630501874296,11.55
1630501874312,11.03
1630501874328,10.5
1630501874343,9.83
1630501874359,8.94
1630501874375,7.76
1630501874390,6.32
1630501874406,4.66
1630501874421,2.86
1630501874437,0.93
1630501874453,-1.1
1630501874468,-3.23
1630501874484,-5.42
1630501874500,-7.67
1630501874515,-9.97
1630501874531,-12.39
1630501874546,-15.06
1630501874562,-18.13
1630501874578,-21.68
1630501874593,-25.59
1630501874609,-29.41
1630501874625,-32.45
1630501874640,-33.9
1630501874656,-33.09
1630501874671,-29.75
1630501874687,-24.14
1630501874703,-16.99
1630501874718,-9.22
1630501874734,-1.69
1630501874750,5.06
1630501874765,10.87
1630501874781,15.72
1630501874796,19.63
1630501874812,22.5
1630501874828,24.14
1630501874843,24.49
1630501874859,23.68
1630501874875,22.08
1630501874890,20.19
1630501874906,18.38
1630501874921,16.8
1630501874937,15.36
1630501874953,13.84
1630501874968,12.1
1630501874984,10.19
1630501875000,8.29
1630501875015,6.61
1630501875031,5.25
1630501875046,4.1
1630501875062,2.92
1630501875078,1.45
1630501875093,-0.39
1630501875109,-2.51
1630501875125,-4.69
1630501875140,-6.74
1630501875156,-8.61
1630501875171,-10.44
1630501875187,-12.44
1630501875203,-14.81
1630501875218,-17.66
1630501875234,-20.93
1630501875250,-24.52
1630501875265,-28.11
1630501875281,-31.27
1630501875296,-33.41
1630501875312,-33.89
1630501875328,-32.18
1630501875343,-28.16
1630501875359,-22.14
1630501875375,-14.86
1630501875390,-7.24
1630501875406,-0.11
1630501875421,6.0
1630501875437,10.88
1630501875453,14.55
1630501875468,17.17
1630501875484,18.88
1630501875500,19.82
1630501875515,20.12
1630501875531,19.88
1630501875546,19.23
1630501875562,18.28
1630501875578,17.15
1630501875593,15.94
1630501875609,14.8
1630501875625,13.82
1630501875640,13.02
1630501875656,12.4
1630501875671,11.85
1630501875687,11.32
1630501875703,10.73
1630501875718,10.03
1630501875734,9.12
1630501875750,7.85
1630501875765,6.05
1630501875781,3.67
1630501875796,0.83
1630501875812,-2.17
1630501875828,-4.97
1630501875843,-7.28
1630501875859,-9.09
1630501875875,-10.6
1630501875890,-12.2
1630501875906,-14.23
1630501875921,-16.82
1630501875937,-19.8
1630501875953,-22.64
1630501875968,-24.63
1630501875984,-25.06
1630501876000,-23.44
1630501876015,-19.64
1630501876031,-13.97
1630501876046,-7.06
1630501876062,0.32
1630501876078,7.44
1630501876093,13.72
1630501876109,18.84
1630501876125,22.6
1630501876140,24.99
1630501876156,26.09
1630501876171,26.09
1630501876187,25.25
1630501876203,23.86
1630501876218,22.15
1630501876234,20.28
1630501876250,18.41
1630501876265,16.7
1630501876281,15.35
1630501876296,14.53
1630501876312,14.25
1630501876328,14.34
1630501876343,14.46
1630501876359,14.22
1630501876375,13.35
1630501876390,11.76
1630501876406,9.57
1630501876421,6.96
1630501876437,4.12
1630501876453,1.18
1630501876468,-1.78
1630501876484,-4.68
1630501876500,-7.4
1630501876515,-9.94
1630501876531,-12.39
1630501876546,-14.96
1630501876562,-17.94
1630501876578,-21.48
1630501876593,-25.5
1630501876609,-29.54
1630501876625,-32.81
1630501876640,-34.39
1630501876656,-33.53
1630501876671,-29.96
1630501876687,-23.99
1630501876703,-16.47
1630501876718,-8.48
1630501876734,-1.02
1630501876750,5.29
1630501876765,10.24
1630501876781,13.91
1630501876796,16.54
1630501876812,18.27
1630501876828,19.19
1630501876843,19.36
1630501876859,18.92
1630501876875,18.09
1630501876890,17.13
1630501876906,16.23
1630501876921,15.43
1630501876937,14.63
1630501876953,13.65
1630501876968,12.35
1630501876984,10.72
1630501877000,8.93
1630501877015,7.18
1630501877031,5.67
1630501877046,4.4
1630501877062,3.24
1630501877078,1.94
1630501877093,0.33
1630501877109,-1.68
1630501877125,-3.98
1630501877140,-6.43
1630501877156,-8.85
1630501877171,-11.21
1630501877187,-13.61
1630501877203,-16.23
1630501877218,-19.23
1630501877234,-22.66
1630501877250,-26.34
1630501877265,-29.86
1630501877281,-32.59
1630501877296,-33.85
1630501877312,-33.13
1630501877328,-30.31
1630501877343,-25.67
1630501877359,-19.8
1630501877375,-13.37
1630501877390,-6.88
1630501877406,-0.59
1630501877421,5.39
1630501877437,10.95
1630501877453,15.8
1630501877468,19.59
1630501877484,21.97
1630501877500,22.83
1630501877515,22.34
1630501877531,20.93
1630501877546,19.1
1630501877562,17.25
1630501877578,15.61
1630501877593,14.23
1630501877609,13.05
1630501877625,12.03
1630501877640,11.12
1630501877656,10.27
1630501877671,9.41
1630501877687,8.46
1630501877703,7.3
1630501877718,5.86
1630501877734,4.11
1630501877750,2.14
1630501877765,0.04
1630501877781,-2.04
1630501877796,-4.04
1630501877812,-5.94
1630501877828,-7.79
1630501877843,-9.7
1630501877859,-11.75
1630501877875,-14.05
1630501877890,-16.68
1630501877906,-19.76
1630501877921,-23.26
1630501877937,-27.02
1630501877953,-30.55
1630501877968,-33.16
1630501877984,-34.07
1630501878000,-32.74
1630501878015,-29.04
1630501878031,-23.38
1630501878046,-16.58
1630501878062,-9.5
1630501878078,-2.84
1630501878093,3.05
1630501878109,8.09
1630501878125,12.35
1630501878140,15.85
1630501878156,18.5
1630501878171,20.17
1630501878187,20.8
1630501878203,20.51
1630501878218,19.57
1630501878234,18.36
1630501878250,17.2
1630501878265,16.29
1630501878281,15.67
1630501878296,15.3
1630501878312,15.09
1630501878328,14.96
1630501878343,14.86
1630501878359,14.69
1630501878375,14.3
1630501878390,13.54
1630501878406,12.32
1630501878421,10.68
1630501878437,8.74
1630501878453,6.67
1630501878468,4.56
1630501878484,2.36
1630501878500,-0.01
1630501878515,-2.64
1630501878531,-5.51
1630501878546,-8.5
1630501878562,-11.48
1630501878578,-14.37
1630501878593,-17.17
1630501878609,-19.81
1630501878625,-22.11
1630501878640,-23.66
1630501878656,-23.95
1630501878671,-22.53
1630501878687,-19.22
1630501878703,-14.19
1630501878718,-7.95
1630501878734,-1.17
1630501878750,5.49
1630501878765,11.48
1630501878781,16.45
1630501878796,20.19
1630501878812,22.64
1630501878828,23.77
1630501878843,23.69
1630501878859,22.66
1630501878875,21.08
1630501878890,19.42
1630501878906,18.11
1630501878921,17.28
1630501878937,16.77
1630501878953,16.21
1630501878968,15.23
1630501878984,13.73
1630501879000,11.91
1630501879015,10.12
1630501879031,8.69
1630501879046,7.67
1630501879062,6.78
1630501879078,5.63
1630501879093,3.88
1630501879109,1.46
1630501879125,-1.51
1630501879140,-4.76
1630501879156,-8.1
1630501879171,-11.41
1630501879187,-14.65
1630501879203,-17.82
1630501879218,-20.92
1630501879234,-24.02
1630501879250,-27.19
1630501879265,-30.46
1630501879281,-33.7
1630501879296,-36.5
1630501879312,-38.27
1630501879328,-38.35
1630501879343,-36.31
1630501879359,-32.16
1630501879375,-26.32
1630501879390,-19.61
1630501879406,-12.89
1630501879421,-6.86
1630501879437,-1.9
1630501879453,1.93
1630501879468,4.78
1630501879484,6.87
1630501879500,8.39
1630501879515,9.44
1630501879531,10.07
1630501879546,10.39
1630501879562,10.5
1630501879578,10.5
1630501879593,10.4
1630501879609,10.19
1630501879625,9.81
1630501879640,9.31
1630501879656,8.83
1630501879671,8.61
1630501879687,8.81
1630501879703,9.46
1630501879718,10.39
1630501879734,11.25
1630501879750,11.66
1630501879765,11.35
1630501879781,10.23
1630501879796,8.43
1630501879812,6.21
1630501879828,3.8
1630501879843,1.35
1630501879859,-1.15
1630501879875,-3.81
1630501879890,-6.8
1630501879906,-10.23
1630501879921,-14.09
1630501879937,-18.21
1630501879953,-22.29
1630501879968,-25.95
1630501879984,-28.71
1630501880000,-30.09
1630501880015,-29.62
1630501880031,-27.04
1630501880046,-22.31
1630501880062,-15.82
1630501880078,-8.25
1630501880093,-0.44
1630501880109,6.92
1630501880125,13.43
1630501880140,19.08
1630501880156,24.08
1630501880171,28.69
1630501880187,33.03
1630501880203,37.05
1630501880218,40.56
1630501880234,43.41
1630501880250,45.56
1630501880265,47.12
1630501880281,48.27
1630501880296,49.11
1630501880312,49.56
1630501880328,49.44
1630501880343,48.51
1630501880359,46.6
1630501880375,43.77
1630501880390,40.19
1630501880406,36.12
1630501880421,31.72
1630501880437,27.0
1630501880453,21.83
1630501880468,16.07
1630501880484,9.62
1630501880500,2.57
1630501880515,-4.87
1630501880531,-12.44
1630501880546,-19.91
1630501880562,-27.13
1630501880578,-33.99
1630501880593,-40.33
1630501880609,-45.89
1630501880625,-50.26
1630501880640,-52.95
1630501880656,-53.52
1630501880671,-51.73
1630501880687,-47.63
1630501880703,-41.64
1630501880718,-34.4
1630501880734,-26.67
1630501880750,-19.13
1630501880765,-12.32
1630501880781,-6.66
1630501880796,-2.38
1630501880812,0.37
1630501880828,1.63
1630501880843,1.59
1630501880859,0.63
1630501880875,-0.79
1630501880890,-2.22
1630501880906,-3.33
1630501880921,-3.95
1630501880937,-4.02
1630501880953,-3.53
1630501880968,-2.51
1630501880984,-1.02
1630501881000,0.77
1630501881015,2.6
1630501881031,4.16
1630501881046,5.21
1630501881062,5.65
1630501881078,5.45
1630501881093,4.71
1630501881109,3.53
1630501881125,1.97
1630501881140,0.06
1630501881156,-2.21
1630501881171,-4.87
1630501881187,-7.93
1630501881203,-11.39
1630501881218,-15.17
1630501881234,-19.08
1630501881250,-22.76
1630501881265,-25.69
1630501881281,-27.27
1630501881296,-26.98
1630501881312,-24.54
1630501881328,-20.03
1630501881343,-13.91
1630501881359,-6.93
1630501881375,0.1
1630501881390,6.46
1630501881406,11.69
1630501881421,15.65
1630501881437,18.48
1630501881453,20.42
1630501881468,21.7
1630501881484,22.45
1630501881500,22.73
1630501881515,22.59
1630501881531,22.07
1630501881546,21.25
1630501881562,20.23
1630501881578,19.12
1630501881593,17.97
1630501881609,16.84
1630501881625,15.65
1630501881640,14.29
1630501881656,12.59
1630501881671,10.46
1630501881687,7.9
1630501881703,5.12
1630501881718,2.36
1630501881734,-0.2
1630501881750,-2.52
1630501881765,-4.79
1630501881781,-7.26
1630501881796,-10.16
1630501881812,-13.56
1630501881828,-17.4
1630501881843,-21.57
1630501881859,-25.94
1630501881875,-30.31
1630501881890,-34.31
1630501881906,-37.36
1630501881921,-38.75
1630501881937,-37.89
1630501881953,-34.59
1630501881968,-29.19
1630501881984,-22.46
1630501882000,-15.32
1630501882015,-8.53
1630501882031,-2.45
1630501882046,2.87
1630501882062,7.54
1630501882078,11.65
1630501882093,15.11
1630501882109,17.75
1630501882125,19.37
1630501882140,19.91
1630501882156,19.48
1630501882171,18.31
1630501882187,16.69
1630501882203,14.89
1630501882218,13.1
1630501882234,11.46
1630501882250,10.08
1630501882265,9.0
1630501882281,8.22
1630501882296,7.67
1630501882312,7.22
1630501882328,6.67
1630501882343,5.82
1630501882359,4.49
1630501882375,2.62
1630501882390,0.3
1630501882406,-2.29
1630501882421,-4.85
1630501882437,-7.2
1630501882453,-9.28
1630501882468,-11.28
1630501882484,-13.46
1630501882500,-16.03
1630501882515,-18.97
1630501882531,-21.99
1630501882546,-24.49
1630501882562,-25.82
1630501882578,-25.46
1630501882593,-23.18
1630501882609,-19.09
1630501882625,-13.62
1630501882640,-7.33
1630501882656,-0.78
1630501882671,5.57
1630501882687,11.38
1630501882703,16.42
1630501882718,20.56
1630501882734,23.74
1630501882750,25.98
1630501882765,27.37
1630501882781,27.99
1630501882796,27.97
1630501882812,27.39
1630501882828,26.36
1630501882843,24.96
1630501882859,23.32
1630501882875,21.55
1630501882890,19.76
1630501882906,17.95
1630501882921,16.12
1630501882937,14.25
1630501882953,12.34
1630501882968,10.41
1630501882984,8.43
1630501883000,6.36
1630501883015,4.1
1630501883031,1.61
1630501883046,-1.08
1630501883062,-3.84
1630501883078,-6.52
1630501883093,-9.01
1630501883109,-11.34
1630501883125,-13.64
1630501883140,-16.13
1630501883156,-18.95
1630501883171,-22.09
1630501883187,-25.24
1630501883203,-27.83
1630501883218,-29.19
1630501883234,-28.72
1630501883250,-26.12
1630501883265,-21.51
1630501883281,-15.37
1630501883296,-8.38
1630501883312,-1.26
1630501883328,5.44
1630501883343,11.32
1630501883359,16.08
1630501883375,19.54
1630501883390,21.64
1630501883406,22.49
1630501883421,22.39
1630501883437,21.73
1630501883453,20.86
1630501883468,19.99
1630501883484,19.1
1630501883500,18.05
1630501883515,16.7
1630501883531,14.98
1630501883546,12.97
1630501883562,10.83
1630501883578,8.71
1630501883593,6.72
1630501883609,4.87
1630501883625,3.07
1630501883640,1.17
1630501883656,-0.97
1630501883671,-3.41
1630501883687,-6.09
1630501883703,-8.8
1630501883718,-11.37
1630501883734,-13.69
1630501883750,-15.8
1630501883765,-17.87
1630501883781,-20.1
1630501883796,-22.66
1630501883812,-25.59
1630501883828,-28.82
1630501883843,-32.16
1630501883859,-35.27
1630501883875,-37.65
1630501883890,-38.66
1630501883906,-37.67
1630501883921,-34.34
1630501883937,-28.73
1630501883953,-21.44
1630501883968,-13.37
1630501883984,-5.46
1630501884000,1.65
1630501884015,7.66
1630501884031,12.6
1630501884046,16.58
1630501884062,19.65
1630501884078,21.72
1630501884093,22.68
1630501884109,22.6
1630501884125,21.72
1630501884140,20.5
1630501884156,19.36
1630501884171,18.58
1630501884187,18.16
1630501884203,17.9
1630501884218,17.49
1630501884234,16.68
1630501884250,15.39
1630501884265,13.73
1630501884281,11.87
1630501884296,10.03
1630501884312,8.29
1630501884328,6.62
1630501884343,4.91
1630501884359,2.94
1630501884375,0.57
1630501884390,-2.27
1630501884406,-5.45
1630501884421,-8.76
1630501884437,-11.93
1630501884453,-14.77
1630501884468,-17.35
1630501884484,-19.87
1630501884500,-22.7
1630501884515,-26.02
1630501884531,-29.73
1630501884546,-33.31
1630501884562,-35.93
1630501884578,-36.78
1630501884593,-35.35
1630501884609,-31.66
1630501884625,-26.22
1630501884640,-19.82
1630501884656,-13.24
1630501884671,-6.95
1630501884687,-1.11
1630501884703,4.35
1630501884718,9.49
1630501884734,14.21
1630501884750,18.18
1630501884765,21.04
1630501884781,22.59
1630501884796,22.88
1630501884812,22.27
1630501884828,21.24
1630501884843,20.17
1630501884859,19.21
1630501884875,18.29
1630501884890,17.26
1630501884906,16.02
1630501884921,14.67
1630501884937,13.38
1630501884953,12.39
1630501884968,11.76
1630501884984,11.42
1630501885000,11.11
1630501885015,10.53
1630501885031,9.45
1630501885046,7.78
1630501885062,5.62
1630501885078,3.15
1630501885093,0.62
1630501885109,-1.79
1630501885125,-3.97
1630501885140,-5.93
1630501885156,-7.76
1630501885171,-9.59
1630501885187,-11.56
1630501885203,-13.8
1630501885218,-16.39
1630501885234,-19.29
1630501885250,-22.3
1630501885265,-25.03
1630501885281,-26.88
1630501885296,-27.26
1630501885312,-25.73
1630501885328,-22.16
1630501885343,-16.83
1630501885359,-10.33
1630501885375,-3.36
1630501885390,3.39
1630501885406,9.44
1630501885421,14.5
1630501885437,18.49
1630501885453,21.41
1630501885468,23.36
1630501885484,24.48
1630501885500,24.92
1630501885515,24.88
1630501885531,24.54
1630501885546,24.03
1630501885562,23.39
1630501885578,22.61
1630501885593,21.65
1630501885609,20.42
1630501885625,18.93
1630501885640,17.27
1630501885656,15.62
1630501885671,14.23
1630501885687,13.25
1630501885703,12.69
1630501885718,12.32
1630501885734,11.81
1630501885750,10.75
1630501885765,8.89
1630501885781,6.25
1630501885796,3.07
1630501885812,-0.25
1630501885828,-3.31
1630501885843,-5.89
1630501885859,-7.98
1630501885875,-9.73
1630501885890,-11.44
1630501885906,-13.37
1630501885921,-15.69
1630501885937,-18.41
1630501885953,-21.37
1630501885968,-24.26
1630501885984,-26.61
1630501886000,-27.9
1630501886015,-27.61
1630501886031,-25.4
1630501886046,-21.23
1630501886062,-15.44
1630501886078,-8.66
1630501886093,-1.64
1630501886109,4.98
1630501886125,10.76
1630501886140,15.5
1630501886156,19.14
1630501886171,21.64
1630501886187,23.0
1630501886203,23.26
1630501886218,22.58
1630501886234,21.31
1630501886250,19.87
1630501886265,18.59
1630501886281,17.67
1630501886296,17.05
1630501886312,16.52
1630501886328,15.84
1630501886343,14.86
1630501886359,13.53
1630501886375,11.93
1630501886390,10.16
1630501886406,8.35
1630501886421,6.58
1630501886437,4.85
1630501886453,3.12
1630501886468,1.26
1630501886484,-0.81
1630501886500,-3.12
1630501886515,-5.58
1630501886531,-8.0
1630501886546,-10.22
1630501886562,-12.11
1630501886578,-13.72
1630501886593,-15.23
1630501886609,-16.94
1630501886625,-19.11
1630501886640,-21.86
1630501886656,-25.16
1630501886671,-28.75
1630501886687,-32.17
1630501886703,-34.87
1630501886718,-36.23
1630501886734,-35.8
1630501886750,-33.37
1630501886765,-29.03
1630501886781,-23.22
1630501886796,-16.51
1630501886812,-9.55
1630501886828,-2.87
1630501886843,3.15
1630501886859,8.31
1630501886875,12.49
1630501886890,15.63
1630501886906,17.77
1630501886921,18.95
1630501886937,19.29
1630501886953,19.01
1630501886968,18.32
1630501886984,17.43
1630501887000,16.5
1630501887015,15.57
1630501887031,14.6
1630501887046,13.52
1630501887062,12.28
1630501887078,10.87
1630501887093,9.44
1630501887109,8.16
1630501887125,7.2
1630501887140,6.57
1630501887156,6.14
1630501887171,5.58
1630501887187,4.53
1630501887203,2.75
1630501887218,0.22
1630501887234,-2.86
1630501887250,-6.18
1630501887265,-9.43
1630501887281,-12.43
1630501887296,-15.12
1630501887312,-17.57
1630501887328,-19.84
1630501887343,-22.06
1630501887359,-24.31
1630501887375,-26.69
1630501887390,-29.19
1630501887406,-31.66
1630501887421,-33.76
1630501887437,-34.94
1630501887453,-34.66
1630501887468,-32.57
1630501887484,-28.65
1630501887500,-23.21
1630501887515,-16.87
1630501887531,-10.26
1630501887546,-3.95
1630501887562,1.71
1630501887578,6.55
1630501887593,10.49
1630501887609,13.5
1630501887625,15.56
1630501887640,16.71
1630501887656,17.06
1630501887671,16.86
1630501887687,16.37
1630501887703,15.81
1630501887718,15.34
1630501887734,15.0
1630501887750,14.76
1630501887765,14.57
1630501887781,14.37
1630501887796,14.08
1630501887812,13.63
1630501887828,12.93
1630501887843,11.95
1630501887859,10.68
1630501887875,9.18
1630501887890,7.58
1630501887906,6.01
1630501887921,4.55
1630501887937,3.28
1630501887953,2.16
1630501887968,1.11
1630501887984,-0.02
1630501888000,-1.41
1630501888015,-3.21
1630501888031,-5.47
1630501888046,-8.14
1630501888062,-11.06
1630501888078,-14.07
1630501888093,-17.0
1630501888109,-19.68
1630501888125,-21.92
1630501888140,-23.36
1630501888156,-23.65
1630501888171,-22.41
1630501888187,-19.5
1630501888203,-15.07
1630501888218,-9.55
1630501888234,-3.6
1630501888250,2.21
1630501888265,7.43
1630501888281,11.91
1630501888296,15.65
1630501888312,18.69
1630501888328,21.04
1630501888343,22.59
1630501888359,23.25
1630501888375,23.06
1630501888390,22.22
1630501888406,21.03
1630501888421,19.84
1630501888437,18.84
1630501888453,18.07
1630501888468,17.41
1630501888484,16.7
1630501888500,15.8
1630501888515,14.73
1630501888531,13.59
1630501888546,12.47
1630501888562,11.37
1630501888578,10.15
1630501888593,8.65
1630501888609,6.71
1630501888625,4.32
1630501888640,1.61
1630501888656,-1.19
1630501888671,-3.82
1630501888687,-6.14
1630501888703,-8.2
1630501888718,-10.14
1630501888734,-12.19
1630501888750,-14.52
1630501888765,-17.24
1630501888781,-20.32
1630501888796,-23.56
1630501888812,-26.6
1630501888828,-28.92
1630501888843,-29.94
1630501888859,-29.17
1630501888875,-26.4
1630501888890,-21.75
1630501888906,-15.78
1630501888921,-9.21
1630501888937,-2.79
1630501888953,2.94
1630501888968,7.69
1630501888984,11.36
1630501889000,13.98
1630501889015,15.62
1630501889031,16.39
1630501889046,16.49
1630501889062,16.21
1630501889078,15.87
1630501889093,15.73
1630501889109,15.84
1630501889125,16.07
1630501889140,16.17
1630501889156,15.87
1630501889171,15.07
1630501889187,13.84
1630501889203,12.4
1630501889218,10.98
1630501889234,9.67
1630501889250,8.45
1630501889265,7.15
1630501889281,5.6
1630501889296,3.66
1630501889312,1.34
1630501889328,-1.25
1630501889343,-3.96
1630501889359,-6.62
1630501889375,-9.16
1630501889390,-11.56
1630501889406,-13.87
1630501889421,-16.18
1630501889437,-18.57
1630501889453,-21.14
1630501889468,-23.92
1630501889484,-26.84
1630501889500,-29.68
1630501889515,-32.04
1630501889531,-33.39
1630501889546,-33.23
1630501889562,-31.22
1630501889578,-27.38
1630501889593,-22.07
1630501889609,-15.93
1630501889625,-9.68
1630501889640,-3.86
1630501889656,1.23
1630501889671,5.56
1630501889687,9.21
1630501889703,12.18
1630501889718,14.38
1630501889734,15.64
1630501889750,15.84
1630501889765,15.06
1630501889781,13.61
1630501889796,11.95
1630501889812,10.51
1630501889828,9.59
1630501889843,9.25
1630501889859,9.35
1630501889875,9.63
1630501889890,9.84
1630501889906,9.8
1630501889921,9.45
1630501889937,8.78
1630501889953,7.81
1630501889968,6.53
1630501889984,4.91
1630501890000,2.93
1630501890015,0.67
1630501890031,-1.74
1630501890046,-4.15
1630501890062,-6.4
1630501890078,-8.44
1630501890093,-10.27
1630501890109,-11.99
1630501890125,-13.78
1630501890140,-15.81
1630501890156,-18.18
1630501890171,-20.88
1630501890187,-23.73
1630501890203,-26.31
1630501890218,-28.11
1630501890234,-28.63
1630501890250,-27.51
1630501890265,-24.69
1630501890281,-20.37
1630501890296,-14.98
1630501890312,-9.04
1630501890328,-3.02
1630501890343,2.72
1630501890359,7.89
1630501890375,12.3
1630501890390,15.77
1630501890406,18.14
1630501890421,19.38
1630501890437,19.65
1630501890453,19.28
1630501890468,18.66
1630501890484,18.14
1630501890500,17.85
1630501890515,17.72
1630501890531,17.58
1630501890546,17.25
1630501890562,16.73
1630501890578,16.08
1630501890593,15.44
1630501890609,14.85
1630501890625,14.26
1630501890640,13.55
1630501890656,12.63
1630501890671,11.5
1630501890687,10.22
1630501890703,8.89
1630501890718,7.52
1630501890734,6.08
1630501890750,4.45
1630501890765,2.55
1630501890781,0.33
1630501890796,-2.19
1630501890812,-4.91
1630501890828,-7.79
1630501890843,-10.79
1630501890859,-13.89
1630501890875,-17.04
1630501890890,-20.01
1630501890906,-22.36
1630501890921,-23.58
1630501890937,-23.16
1630501890953,-20.89
1630501890968,-16.89
1630501890984,-11.62
1630501891000,-5.68
1630501891015,0.35
1630501891031,6.05
1630501891046,11.19
1630501891062,15.58
1630501891078,19.08
1630501891093,21.58
1630501891109,23.02
1630501891125,23.5
1630501891140,23.23
1630501891156,22.48
1630501891171,21.51
1630501891187,20.46
1630501891203,19.37
1630501891218,18.16
1630501891234,16.79
1630501891250,15.27
1630501891265,13.66
1630501891281,12.1
1630501891296,10.71
1630501891312,9.52
1630501891328,8.49
1630501891343,7.48
1630501891359,6.31
1630501891375,4.84
1630501891390,2.99
1630501891406,0.76
1630501891421,-1.72
1630501891437,-4.29
1630501891453,-6.83
1630501891468,-9.23
1630501891484,-11.56
1630501891500,-13.93
1630501891515,-16.54
1630501891531,-19.47
1630501891546,-22.7
1630501891562,-26.01
1630501891578,-29.01
1630501891593,-31.2
1630501891609,-32.09
1630501891625,-31.34
1630501891640,-28.8
1630501891656,-24.6
1630501891671,-19.08
1630501891687,-12.74
1630501891703,-6.15
1630501891718,0.16
1630501891734,5.75
1630501891750,10.27
1630501891765,13.48
1630501891781,15.3
1630501891796,15.85
1630501891812,15.46
1630501891828,14.64
1630501891843,13.94
1630501891859,13.68
1630501891875,13.92
1630501891890,14.41
1630501891906,14.73
1630501891921,14.53
1630501891937,13.65
1630501891953,12.18
1630501891968,10.39
1630501891984,8.54
1630501892000,6.83
1630501892015,5.3
1630501892031,3.88
1630501892046,2.48
1630501892062,1.0
1630501892078,-0.65
1630501892093,-2.5
1630501892109,-4.59
1630501892125,-6.93
1630501892140,-9.48
1630501892156,-12.17
1630501892171,-14.93
1630501892187,-17.69
1630501892203,-20.44
1630501892218,-23.18
1630501892234,-25.92
1630501892250,-28.57
1630501892265,-30.92
1630501892281,-32.58
1630501892296,-33.08
1630501892312,-32.0
1630501892328,-29.16
1630501892343,-24.73
1630501892359,-19.18
1630501892375,-13.19
1630501892390,-7.35
1630501892406,-2.06
1630501892421,2.6
1630501892437,6.69
1630501892453,10.33
1630501892468,13.46
1630501892484,15.89
1630501892500,17.36
1630501892515,17.7
1630501892531,17.01
1630501892546,15.62
1630501892562,14.04
1630501892578,12.73
1630501892593,11.96
1630501892609,11.73
1630501892625,11.81
1630501892640,11.9
1630501892656,11.75
1630501892671,11.33
1630501892687,10.72
1630501892703,10.05
1630501892718,9.3
1630501892734,8.37
1630501892750,7.04
1630501892765,5.2
1630501892781,2.93
1630501892796,0.48
1630501892812,-1.82
1630501892828,-3.76
1630501892843,-5.38
1630501892859,-6.92
1630501892875,-8.72
1630501892890,-11.03
1630501892906,-13.87
1630501892921,-17.04
1630501892937,-20.16
1630501892953,-22.77
1630501892968,-24.41
1630501892984,-24.66
1630501893000,-23.19
1630501893015,-19.94
1630501893031,-15.07
1630501893046,-9.05
1630501893062,-2.51
1630501893078,3.88
1630501893093,9.57
1630501893109,14.17
1630501893125,17.51
1630501893140,19.57
1630501893156,20.49
1630501893171,20.51
1630501893187,19.94
1630501893203,19.11
1630501893218,18.28
1630501893234,17.59
1630501893250,17.05
1630501893265,16.57
1630501893281,16.01
1630501893296,15.26
1630501893312,14.34
1630501893328,13.34
1630501893343,12.37
1630501893359,11.51
1630501893375,10.67
1630501893390,9.67
1630501893406,8.3
1630501893421,6.47
1630501893437,4.25
1630501893453,1.93
1630501893468,-0.2
1630501893484,-1.94
1630501893500,-3.38
1630501893515,-4.78
1630501893531,-6.5
1630501893546,-8.77
1630501893562,-11.63
1630501893578,-14.89
1630501893593,-18.26
1630501893609,-21.33
1630501893625,-23.67
1630501893640,-24.85
1630501893656,-24.48
1630501893671,-22.29
1630501893687,-18.24
1630501893703,-12.63
1630501893718,-6.03
1630501893734,0.8
1630501893750,7.15
1630501893765,12.49
1630501893781,16.62
1630501893796,19.55
1630501893812,21.44
1630501893828,22.48
1630501893843,22.8
1630501893859,22.48
1630501893875,21.59
1630501893890,20.25
1630501893906,18.7
1630501893921,17.14
1630501893937,15.78
1630501893953,14.65
1630501893968,13.67
1630501893984,12.7
1630501894000,11.57
1630501894015,10.2
1630501894031,8.61
1630501894046,6.89
1630501894062,5.12
1630501894078,3.35
1630501894093,1.52
1630501894109,-0.43
1630501894125,-2.6
1630501894140,-5.01
1630501894156,-7.64
1630501894171,-10.37
1630501894187,-13.07
1630501894203,-15.68
1630501894218,-18.25
1630501894234,-20.94
1630501894250,-23.86
1630501894265,-26.97
1630501894281,-29.95
1630501894296,-32.23
1630501894312,-33.17
1630501894328,-32.33
1630501894343,-29.64
1630501894359,-25.37
1630501894375,-19.98
1630501894390,-13.99
1630501894406,-7.77
1630501894421,-1.59
1630501894437,4.32
1630501894453,9.69
1630501894468,14.19
1630501894484,17.58
1630501894500,19.75
1630501894515,20.79
1630501894531,20.89
1630501894546,20.33
1630501894562,19.36
1630501894578,18.22
1630501894593,17.11
1630501894609,16.16
1630501894625,15.35
1630501894640,14.6
1630501894656,13.79
1630501894671,12.83
1630501894687,11.74
1630501894703,10.58
1630501894718,9.38
1630501894734,8.07
1630501894750,6.49
1630501894765,4.48
1630501894781,2.03
1630501894796,-0.71
1630501894812,-3.47
1630501894828,-6.02
1630501894843,-8.32
1630501894859,-10.53
1630501894875,-12.93
1630501894890,-15.75
1630501894906,-19.09
1630501894921,-22.84
1630501894937,-26.78
1630501894953,-30.63
1630501894968,-34.03
1630501894984,-36.63
1630501895000,-37.94
1630501895015,-37.56
1630501895031,-35.16
1630501895046,-30.73
1630501895062,-24.58
1630501895078,-17.36
1630501895093,-9.85
1630501895109,-2.74
1630501895125,3.47
1630501895140,8.58
1630501895156,12.55
1630501895171,15.45
1630501895187,17.29
1630501895203,18.16
1630501895218,18.17
1630501895234,17.59
1630501895250,16.78
1630501895265,16.14
1630501895281,15.91
1630501895296,16.09
1630501895312,16.46
1630501895328,16.65
1630501895343,16.33
1630501895359,15.33
1630501895375,13.67
1630501895390,11.52
1630501895406,9.14
1630501895421,6.79
1630501895437,4.64
1630501895453,2.79
1630501895468,1.19
1630501895484,-0.25
1630501895500,-1.67
1630501895515,-3.17
1630501895531,-4.79
1630501895546,-6.52
1630501895562,-8.35
1630501895578,-10.31
1630501895593,-12.46
1630501895609,-14.84
1630501895625,-17.39
1630501895640,-19.93
1630501895656,-22.11
1630501895671,-23.45
1630501895687,-23.45
1630501895703,-21.7
1630501895718,-18.08
1630501895734,-12.78
1630501895750,-6.38
1630501895765,0.36
1630501895781,6.76
1630501895796,12.4
1630501895812,17.22
1630501895828,21.4
1630501895843,25.13
1630501895859,28.41
1630501895875,31.01
1630501895890,32.64
1630501895906,33.19
1630501895921,32.89
1630501895937,32.24
1630501895953,31.82
1630501895968,32.05
1630501895984,32.96
1630501896000,34.27
1630501896015,35.54
1630501896031,36.41
1630501896046,36.79
1630501896062,36.87
1630501896078,37.02
1630501896093,37.56
1630501896109,38.58
1630501896125,39.86
1630501896140,40.91
1630501896156,41.17
1630501896171,40.25
1630501896187,37.91
1630501896203,34.07
1630501896218,28.63
1630501896234,21.55
1630501896250,12.97
1630501896265,3.47
1630501896281,-5.86
1630501896296,-13.6
1630501896312,-18.55
1630501896328,-20.18
1630501896343,-18.87
1630501896359,-15.54
1630501896375,-11.13
1630501896390,-6.1
1630501896406,-0.37
1630501896421,6.31
1630501896437,13.85
1630501896453,21.56
1630501896468,28.45
1630501896484,33.79
1630501896500,37.54
1630501896515,40.56
1630501896531,44.09
1630501896546,49.14
1630501896562,55.94
1630501896578,63.83
1630501896593,71.52
1630501896609,77.65
1630501896625,81.22
1630501896640,81.82
1630501896656,79.61
1630501896671,75.11
1630501896687,69.03
1630501896703,62.16
1630501896718,55.24
1630501896734,48.94
1630501896750,43.75
1630501896765,39.75
1630501896781,36.57
1630501896796,33.4
1630501896812,29.25
1630501896828,23.23
1630501896843,14.83
1630501896859,4.02
1630501896875,-8.82
1630501896890,-23.15
1630501896906,-38.45
1630501896921,-54.32
1630501896937,-70.44
1630501896953,-86.5
1630501896968,-102.11
1630501896984,-116.8
1630501897000,-130.04
1630501897015,-141.29
1630501897031,-150.0
1630501897046,-155.75
1630501897062,-158.26
1630501897078,-157.55
1630501897093,-153.93
1630501897109,-148.06
1630501897125,-140.69
1630501897140,-132.62
1630501897156,-124.47
1630501897171,-116.66
1630501897187,-109.38
1630501897203,-102.7
1630501897218,-96.61
1630501897234,-90.99
1630501897250,-85.61
1630501897265,-80.13
1630501897281,-74.15
1630501897296,-67.28
1630501897312,-59.39
1630501897328,-50.56
1630501897343,-41.17
1630501897359,-31.7
1630501897375,-22.61
1630501897390,-14.18
1630501897406,-6.56
1630501897421,0.13
1630501897437,5.72
1630501897453,9.86
1630501897468,12.21
1630501897484,12.59
1630501897500,11.14
1630501897515,8.39
1630501897531,5.08
1630501897546,1.92
1630501897562,-0.59
1630501897578,-2.33
1630501897593,-3.47
1630501897609,-4.35
1630501897625,-5.36
1630501897640,-6.81
1630501897656,-8.8
1630501897671,-11.09
1630501897687,-13.11
1630501897703,-14.03
1630501897718,-13.04
1630501897734,-9.67
1630501897750,-4.02
1630501897765,3.21
1630501897781,11.01
1630501897796,18.42
1630501897812,24.88
1630501897828,30.21
1630501897843,34.56
1630501897859,38.07
1630501897875,40.72
1630501897890,42.35
1630501897906,42.78
1630501897921,41.99
1630501897937,40.2
1630501897953,37.78
1630501897968,35.1
1630501897984,32.39
1630501898000,29.65
1630501898015,26.79
1630501898031,23.71
1630501898046,20.4
1630501898062,16.99
1630501898078,13.69
1630501898093,10.7
1630501898109,8.13
1630501898125,5.94
1630501898140,3.98
1630501898156,2.1
1630501898171,0.09
1630501898187,-2.16
1630501898203,-4.74
1630501898218,-7.68
1630501898234,-11.03
1630501898250,-14.82
1630501898265,-19.04
1630501898281,-23.57
1630501898296,-28.14
1630501898312,-32.27
1630501898328,-35.31
1630501898343,-36.6
1630501898359,-35.64
1630501898375,-32.34
1630501898390,-27.09
1630501898406,-20.62
1630501898421,-13.76
1630501898437,-7.24
1630501898453,-1.43
1630501898468,3.58
1630501898484,7.9
1630501898500,11.63
1630501898515,14.83
1630501898531,17.51
1630501898546,19.69
1630501898562,21.44
1630501898578,22.83
1630501898593,23.94
1630501898609,24.72
1630501898625,25.13
1630501898640,25.13
1630501898656,24.74
1630501898671,24.12
1630501898687,23.43
1630501898703,22.83
1630501898718,22.39
1630501898734,22.1
1630501898750,21.83
1630501898765,21.41
1630501898781,20.61
1630501898796,19.33
1630501898812,17.53
1630501898828,15.33
1630501898843,12.92
1630501898859,10.45
1630501898875,7.98
1630501898890,5.38
1630501898906,2.44
1630501898921,-1.01
1630501898937,-4.94
1630501898953,-9.04
1630501898968,-12.7
1630501898984,-15.16
1630501899000,-15.77
1630501899015,-14.15
1630501899031,-10.39
1630501899046,-4.99
1630501899062,1.28
1630501899078,7.62
1630501899093,13.46
1630501899109,18.5
1630501899125,22.73
1630501899140,26.16
1630501899156,28.8
1630501899171,30.59
1630501899187,31.48
1630501899203,31.5
1630501899218,30.8
1630501899234,29.66
1630501899250,28.29
1630501899265,26.82
1630501899281,25.26
1630501899296,23.57
1630501899312,21.75
1630501899328,19.85
1630501899343,17.97
1630501899359,16.2
1630501899375,14.54
1630501899390,12.89
1630501899406,11.14
1630501899421,9.2
1630501899437,7.09
1630501899453,4.95
1630501899468,2.91
1630501899484,1.08
1630501899500,-0.61
1630501899515,-2.35
1630501899531,-4.41
1630501899546,-6.97
1630501899562,-10.03
1630501899578,-13.34
1630501899593,-16.41
1630501899609,-18.68
1630501899625,-19.65
1630501899640,-19.0
1630501899656,-16.67
1630501899671,-12.82
1630501899687,-7.8
1630501899703,-2.07
1630501899718,3.88
1630501899734,9.58
1630501899750,14.6
1630501899765,18.68
1630501899781,21.71
1630501899796,23.75
1630501899812,24.94
1630501899828,25.47
1630501899843,25.44
1630501899859,24.88
1630501899875,23.77
1630501899890,22.15
1630501899906,20.14
1630501899921,17.96
1630501899937,15.91
1630501899953,14.19
1630501899968,12.86
1630501899984,11.84
1630501900000,10.94
1630501900015,9.97
1630501900031,8.83
1630501900046,7.48
1630501900062,5.99
1630501900078,4.44
1630501900093,2.85
1630501900109,1.22
1630501900125,-0.51
1630501900140,-2.43
1630501900156,-4.63
1630501900171,-7.23
1630501900187,-10.28
1630501900203,-13.7
1630501900218,-17.25
1630501900234,-20.46
1630501900250,-22.79
1630501900265,-23.74
1630501900281,-22.98
1630501900296,-20.41
1630501900312,-16.24
1630501900328,-10.87
1630501900343,-4.84
1630501900359,1.19
1630501900375,6.62
1630501900390,11.0
1630501900406,14.09
1630501900421,15.97
1630501900437,16.9
1630501900453,17.19
1630501900468,17.08
1630501900484,16.65
1630501900500,15.91
1630501900515,14.87
1630501900531,13.63
1630501900546,12.35
1630501900562,11.16
1630501900578,10.07
1630501900593,9.0
1630501900609,7.83
1630501900625,6.53
1630501900640,5.14
1630501900656,3.73
1630501900671,2.32
1630501900687,0.88
1630501900703,-0.67
1630501900718,-2.32
1630501900734,-4.06
1630501900750,-5.87
1630501900765,-7.84
1630501900781,-10.22
1630501900796,-13.2
1630501900812,-16.83
1630501900828,-20.8
1630501900843,-24.48
1630501900859,-27.13
1630501900875,-28.09
1630501900890,-27.08
1630501900906,-24.18
1630501900921,-19.77
1630501900937,-14.39
1630501900953,-8.57
1630501900968,-2.77
1630501900984,2.63
1630501901000,7.3
1630501901015,11.0
1630501901031,13.57
1630501901046,14.99
1630501901062,15.4
1630501901078,15.04
1630501901093,14.27
1630501901109,13.41
1630501901125,12.69
1630501901140,12.17
1630501901156,11.76
1630501901171,11.25
1630501901187,10.47
1630501901203,9.36
1630501901218,7.99
1630501901234,6.52
1630501901250,5.13
1630501901265,3.92
1630501901281,2.85
1630501901296,1.84
1630501901312,0.78
1630501901328,-0.41
1630501901343,-1.76
1630501901359,-3.26
1630501901375,-4.94
1630501901390,-6.88
1630501901406,-9.19
1630501901421,-11.91
1630501901437,-15.0
1630501901453,-18.22
1630501901468,-21.14
1630501901484,-23.19
1630501901500,-23.83
1630501901515,-22.61
1630501901531,-19.41
1630501901546,-14.42
1630501901562,-8.15
1630501901578,-1.27
1630501901593,5.52
1630501901609,11.62
1630501901625,16.6
1630501901640,20.25
1630501901656,22.55
1630501901671,23.66
1630501901687,23.82
1630501901703,23.33
1630501901718,22.44
1630501901734,21.31
1630501901750,20.04
1630501901765,18.64
1630501901781,17.06
1630501901796,15.32
1630501901812,13.43
1630501901828,11.46
1630501901843,9.49
1630501901859,7.65
1630501901875,5.98
1630501901890,4.51
1630501901906,3.17
1630501901921,1.8
1630501901937,0.23
1630501901953,-1.67
1630501901968,-3.94
1630501901984,-6.49
1630501902000,-9.23
1630501902015,-12.08
1630501902031,-15.09
1630501902046,-18.38
1630501902062,-22.04
1630501902078,-25.96
1630501902093,-29.78
1630501902109,-32.98
1630501902125,-35.01
1630501902140,-35.52
1630501902156,-34.46
1630501902171,-32.07
1630501902187,-28.76
1630501902203,-24.93
1630501902218,-20.91
1630501902234,-16.87
1630501902250,-12.97
1630501902265,-9.39
1630501902281,-6.37
1630501902296,-4.15
1630501902312,-2.86
1630501902328,-2.48
1630501902343,-2.79
1630501902359,-3.46
1630501902375,-4.08
1630501902390,-4.35
1630501902406,-4.11
1630501902421,-3.4
1630501902437,-2.36
1630501902453,-1.17
1630501902468,0.04
1630501902484,1.33
1630501902500,2.75
1630501902515,4.41
1630501902531,6.3
1630501902546,8.35
1630501902562,10.36
1630501902578,12.12
1630501902593,13.42
1630501902609,14.12
1630501902625,14.11
1630501902640,13.29
1630501902656,11.62
1630501902671,9.12
1630501902687,5.97
1630501902703,2.51
1630501902718,-0.73
1630501902734,-3.2
1630501902750,-4.4
1630501902765,-4.07
1630501902781,-2.21
1630501902796,0.98
1630501902812,5.18
1630501902828,10.08
1630501902843,15.39
1630501902859,20.84
1630501902875,26.13
1630501902890,30.84
1630501902906,34.56
1630501902921,36.93
1630501902937,37.8
1630501902953,37.23
1630501902968,35.43
1630501902984,32.76
1630501903000,29.59
1630501903015,26.3
1630501903031,23.19
1630501903046,20.43
1630501903062,18.04
1630501903078,15.96
1630501903093,14.08
1630501903109,12.29
1630501903125,10.55
1630501903140,8.82
1630501903156,7.03
1630501903171,5.05
1630501903187,2.73
1630501903203,0.0
1630501903218,-3.1
1630501903234,-6.41
1630501903250,-9.84
1630501903265,-13.36
1630501903281,-17.07
1630501903296,-21.06
1630501903312,-25.34
1630501903328,-29.7
1630501903343,-33.78
1630501903359,-37.08
1630501903375,-39.12
1630501903390,-39.52
1630501903406,-38.04
1630501903421,-34.68
1630501903437,-29.66
1630501903453,-23.46
1630501903468,-16.7
1630501903484,-9.97
1630501903500,-3.71
1630501903515,1.91
1630501903531,6.92
1630501903546,11.39
1630501903562,15.29
1630501903578,18.49
1630501903593,20.82
1630501903609,22.17
1630501903625,22.61
1630501903640,22.27
1630501903656,21.31
1630501903671,19.81
1630501903687,17.82
1630501903703,15.4
1630501903718,12.75
1630501903734,10.13
1630501903750,7.72
1630501903765,5.53
1630501903781,3.36
1630501903796,0.86
1630501903812,-2.28
1630501903828,-6.16
1630501903843,-10.57
1630501903859,-15.12
1630501903875,-19.35
1630501903890,-22.94
1630501903906,-25.82
1630501903921,-28.2
1630501903937,-30.4
1630501903953,-32.72
1630501903968,-35.2
1630501903984,-37.54
1630501904000,-39.19
1630501904015,-39.58
1630501904031,-38.29
1630501904046,-35.26
1630501904062,-30.69
1630501904078,-25.0
1630501904093,-18.63
1630501904109,-12.03
1630501904125,-5.61
1630501904140,0.24
1630501904156,5.18
1630501904171,9.0
1630501904187,11.7
1630501904203,13.52
1630501904218,14.77
1630501904234,15.76
1630501904250,16.6
1630501904265,17.27
1630501904281,17.67
1630501904296,17.74
1630501904312,17.49
1630501904328,17.02
1630501904343,16.37
1630501904359,15.51
1630501904375,14.35
1630501904390,12.74
1630501904406,10.61
1630501904421,8.05
1630501904437,5.32
1630501904453,2.82
1630501904468,0.97
1630501904484,0.03
1630501904500,-0.04
1630501904515,0.43
1630501904531,0.91
1630501904546,0.88
1630501904562,0.03
1630501904578,-1.61
1630501904593,-3.73
1630501904609,-5.86
1630501904625,-7.51
1630501904640,-8.33
1630501904656,-8.06
1630501904671,-6.6
1630501904687,-4.0
1630501904703,-0.42
1630501904718,3.81
1630501904734,8.29
1630501904750,12.54
1630501904765,16.14
1630501904781,18.8
1630501904796,20.37
1630501904812,20.96
1630501904828,20.84
1630501904843,20.36
1630501904859,19.79
1630501904875,19.24
1630501904890,18.61
1630501904906,17.66
1630501904921,16.23
1630501904937,14.28
1630501904953,12.02
1630501904968,9.75
1630501904984,7.72
1630501905000,6.06
1630501905015,4.74
1630501905031,3.67
1630501905046,2.78
1630501905062,2.1
1630501905078,1.68
1630501905093,1.57
1630501905109,1.7
1630501905125,1.94
1630501905140,2.08
1630501905156,1.95
1630501905171,1.45
1630501905187,0.55
1630501905203,-0.69
1630501905218,-2.13
1630501905234,-3.59
1630501905250,-4.83
1630501905265,-5.6
1630501905281,-5.66
1630501905296,-4.82
1630501905312,-3.01
1630501905328,-0.29
1630501905343,3.08
1630501905359,6.69
1630501905375,10.1
1630501905390,12.87
1630501905406,14.76
1630501905421,15.66
1630501905437,15.65
1630501905453,14.88
1630501905468,13.51
1630501905484,11.7
1630501905500,9.54
1630501905515,7.08
1630501905531,4.35
1630501905546,1.43
1630501905562,-1.55
1630501905578,-4.36
1630501905593,-6.78
1630501905609,-8.63
1630501905625,-9.85
1630501905640,-10.52
1630501905656,-10.85
1630501905671,-11.09
1630501905687,-11.41
1630501905703,-11.94
1630501905718,-12.69
1630501905734,-13.63
1630501905750,-14.7
1630501905765,-15.89
1630501905781,-17.12
1630501905796,-18.35
1630501905812,-19.51
1630501905828,-20.65
1630501905843,-21.89
1630501905859,-23.43
1630501905875,-25.33
1630501905890,-27.43
1630501905906,-29.3
1630501905921,-30.31
1630501905937,-29.83
1630501905953,-27.52
1630501905968,-23.47
1630501905984,-18.18
1630501906000,-12.37
1630501906015,-6.76
1630501906031,-1.81
1630501906046,2.3
1630501906062,5.62
1630501906078,8.26
1630501906093,10.3
1630501906109,11.71
1630501906125,12.44
1630501906140,12.5
1630501906156,12.03
1630501906171,11.22
1630501906187,10.33
1630501906203,9.55
1630501906218,8.99
1630501906234,8.65
1630501906250,8.42
1630501906265,8.19
1630501906281,7.78
1630501906296,7.06
1630501906312,5.98
1630501906328,4.63
1630501906343,3.21
1630501906359,1.96
1630501906375,1.12
1630501906390,0.71
1630501906406,0.58
1630501906421,0.44
1630501906437,-0.01
1630501906453,-0.88
1630501906468,-2.11
1630501906484,-3.45
1630501906500,-4.64
1630501906515,-5.48
1630501906531,-5.93
1630501906546,-5.94
1630501906562,-5.47
1630501906578,-4.33
1630501906593,-2.27
1630501906609,0.92
1630501906625,5.28
1630501906640,10.53
1630501906656,16.19
1630501906671,21.69
1630501906687,26.58
1630501906703,30.62
1630501906718,33.82
1630501906734,36.33
1630501906750,38.28
1630501906765,39.71
1630501906781,40.64
1630501906796,41.12
1630501906812,41.33
1630501906828,41.64
1630501906843,42.39
1630501906859,43.86
1630501906875,46.07
1630501906890,48.83
1630501906906,51.83
1630501906921,54.83
1630501906937,57.7
1630501906953,60.46
1630501906968,63.15
1630501906984,65.8
1630501907000,68.33
1630501907015,70.61
1630501907031,72.53
1630501907046,73.97
1630501907062,74.82
1630501907078,74.86
1630501907093,73.7
1630501907109,70.79
1630501907125,65.58
1630501907140,57.68
1630501907156,47.09
1630501907171,34.26
1630501907187,19.99
1630501907203,5.28
1630501907218,-8.98
1630501907234,-22.16
1630501907250,-34.01
1630501907265,-44.53
1630501907281,-53.96
1630501907296,-62.53
1630501907312,-70.38
1630501907328,-77.44
1630501907343,-83.41
1630501907359,-87.98
1630501907375,-90.91
1630501907390,-92.23
1630501907406,-92.24
1630501907421,-91.4
1630501907437,-90.11
1630501907453,-88.54
1630501907468,-86.65
1630501907484,-84.23
1630501907500,-81.11
1630501907515,-77.22
1630501907531,-72.67
1630501907546,-67.68
1630501907562,-62.53
1630501907578,-57.54
1630501907593,-53.08
1630501907609,-49.48
1630501907625,-46.94
1630501907640,-45.53
1630501907656,-45.13
1630501907671,-45.48
1630501907687,-46.32
1630501907703,-47.43
1630501907718,-48.66
1630501907734,-49.9
1630501907750,-51.09
1630501907765,-52.11
1630501907781,-52.82
1630501907796,-52.97
1630501907812,-52.22
1630501907828,-50.19
1630501907843,-46.48
1630501907859,-40.97
1630501907875,-33.84
1630501907890,-25.67
1630501907906,-17.17
1630501907921,-9.05
1630501907937,-1.77
1630501907953,4.46
1630501907968,9.73
1630501907984,14.2
1630501908000,17.99
1630501908015,21.18
1630501908031,23.73
1630501908046,25.72
1630501908062,27.2
1630501908078,28.28
1630501908093,28.99
1630501908109,29.32
1630501908125,29.19
1630501908140,28.45
1630501908156,26.94
1630501908171,24.61
1630501908187,21.71
1630501908203,18.61
1630501908218,15.64
1630501908234,12.98
1630501908250,10.64
1630501908265,8.48
1630501908281,6.29
1630501908296,3.87
1630501908312,1.17
1630501908328,-1.36
1630501908343,-3.31
1630501908359,-4.62
1630501908375,-5.64
1630501908390,-6.89
1630501908406,-8.73
1630501908421,-11.2
1630501908437,-13.99
1630501908453,-16.48
1630501908468,-17.33
1630501908484,-15.49
1630501908500,-10.67
1630501908515,-3.36
1630501908531,5.6
1630501908546,15.39
1630501908562,25.37
1630501908578,35.01
1630501908593,43.87
1630501908609,52.28
1630501908625,60.37
1630501908640,67.76
1630501908656,73.71
1630501908671,77.78
1630501908687,80.07
1630501908703,81.11
1630501908718,81.34
1630501908734,76.47
1630501908750,64.12
1630501908765,45.39
1630501908781,24.27
1630501908796,4.51
1630501908812,-11.89
1630501908828,-24.26
1630501908843,-32.65
1630501908859,-37.46
1630501908875,-39.31
1630501908890,-37.99
1630501908906,-33.26
1630501908921,-25.38
1630501908937,-15.41
1630501908953,-5.03
1630501908968,3.84
1630501908984,9.6
1630501909000,11.5
1630501909015,10.11
1630501909031,7.7
1630501909046,6.65
1630501909062,8.26
1630501909078,11.85
1630501909093,15.64
1630501909109,17.75
1630501909125,17.18
1630501909140,13.94
1630501909156,8.76
1630501909171,2.29
1630501909187,-5.15
1630501909203,-13.27
1630501909218,-21.34
1630501909234,-27.51
1630501909250,-29.24
1630501909265,-24.55
1630501909281,-13.48
1630501909296,1.57
1630501909312,17.15
1630501909328,28.91
1630501909343,34.54
1630501909359,33.82
1630501909375,28.03
1630501909390,18.87
1630501909406,7.82
1630501909421,-4.15
1630501909437,-16.07
1630501909453,-26.84
1630501909468,-35.38
1630501909484,-40.98
1630501909500,-43.78
1630501909515,-44.64
1630501909531,-44.65
1630501909546,-44.55
1630501909562,-44.67
1630501909578,-44.98
1630501909593,-45.33
1630501909609,-45.57
1630501909625,-45.43
1630501909640,-44.51
1630501909656,-42.33
1630501909671,-38.87
1630501909687,-33.49
1630501909703,-26.29
1630501909718,-17.87
1630501909734,-9.1
1630501909750,-0.97
1630501909765,5.91
1630501909781,11.19
1630501909796,14.93
1630501909812,17.44
1630501909828,19.12
1630501909843,20.14
1630501909859,20.55
1630501909875,20.27
1630501909890,19.3
1630501909906,17.81
1630501909921,16.08
1630501909937,14.37
1630501909953,12.88
1630501909968,11.63
1630501909984,10.44
1630501910000,9.12
1630501910015,7.62
1630501910031,6.06
1630501910046,4.72
1630501910062,3.83
1630501910078,3.41
1630501910093,3.25
1630501910109,3.02
1630501910125,2.27
1630501910140,0.79
1630501910156,-1.34
1630501910171,-3.84
1630501910187,-6.3
1630501910203,-8.47
1630501910218,-10.26
1630501910234,-11.84
1630501910250,-13.43
1630501910265,-15.2
1630501910281,-17.07
1630501910296,-18.79
1630501910312,-19.84
1630501910328,-19.67
1630501910343,-17.87
1630501910359,-14.36
1630501910375,-9.51
1630501910390,-4.03
1630501910406,1.2
1630501910421,5.49
1630501910437,8.5
1630501910453,10.39
1630501910468,11.63
1630501910484,12.67
1630501910500,13.71
1630501910515,14.66
1630501910531,15.19
1630501910546,15.0
1630501910562,14.01
1630501910578,12.39
1630501910593,10.52
1630501910609,8.76
1630501910625,7.33
1630501910640,6.27
1630501910656,5.46
1630501910671,4.75
1630501910687,4.01
1630501910703,3.21
1630501910718,2.35
1630501910734,1.48
1630501910750,0.57
1630501910765,-0.43
1630501910781,-1.65
1630501910796,-3.15
1630501910812,-4.92
1630501910828,-6.86
1630501910843,-8.85
1630501910859,-10.8
1630501910875,-12.75
1630501910890,-14.81
1630501910906,-17.04
1630501910921,-19.3
1630501910937,-21.23
1630501910953,-22.28
1630501910968,-21.98
1630501910984,-20.06
1630501911000,-16.63
1630501911015,-12.09
1630501911031,-7.0
1630501911046,-1.9
1630501911062,2.79
1630501911078,6.82
1630501911093,10.12
1630501911109,12.65
1630501911125,14.39
1630501911140,15.26
1630501911156,15.15
1630501911171,14.07
1630501911187,12.18
1630501911203,9.82
1630501911218,7.51
1630501911234,5.75
1630501911250,4.84
1630501911265,4.78
1630501911281,5.3
1630501911296,5.94
1630501911312,6.27
1630501911328,6.01
1630501911343,5.12
1630501911359,3.72
1630501911375,1.99
1630501911390,0.12
1630501911406,-1.79
1630501911421,-3.69
1630501911437,-5.57
1630501911453,-7.39
1630501911468,-9.15
1630501911484,-10.86
1630501911500,-12.66
1630501911515,-14.74
1630501911531,-17.26
1630501911546,-20.21
1630501911562,-23.22
1630501911578,-25.62
1630501911593,-26.57
1630501911609,-25.34
1630501911625,-21.7
1630501911640,-16.02
1630501911656,-9.25
1630501911671,-2.53
1630501911687,3.1
1630501911703,7.15
1630501911718,9.66
1630501911734,11.08
1630501911750,11.97
1630501911765,12.69
1630501911781,13.31
1630501911796,13.65
1630501911812,13.51
1630501911828,12.83
1630501911843,11.8
1630501911859,10.7
1630501911875,9.83
1630501911890,9.26
1630501911906,8.89
1630501911921,8.45
1630501911937,7.7
1630501911953,6.53
1630501911968,5.02
1630501911984,3.37
1630501912000,1.76
1630501912015,0.32
1630501912031,-1.01
1630501912046,-2.35
1630501912062,-3.86
1630501912078,-5.63
1630501912093,-7.68
1630501912109,-9.99
1630501912125,-12.51
1630501912140,-15.24
1630501912156,-18.16
1630501912171,-21.25
1630501912187,-24.37
1630501912203,-27.23
1630501912218,-29.41
1630501912234,-30.4
1630501912250,-29.76
1630501912265,-27.32
1630501912281,-23.24
1630501912296,-18.05
1630501912312,-12.51
1630501912328,-7.33
1630501912343,-3.01
1630501912359,0.32
1630501912375,2.74
1630501912390,4.39
1630501912406,5.37
1630501912421,5.72
1630501912437,5.53
1630501912453,5.05
1630501912468,4.69
1630501912484,4.91
1630501912500,6.01
1630501912515,8.01
1630501912531,10.59
1630501912546,13.32
1630501912562,15.78
1630501912578,17.72
1630501912593,19.09
1630501912609,19.91
1630501912625,20.2
1630501912640,19.9
1630501912656,18.96
1630501912671,17.39
1630501912687,15.36
1630501912703,13.15
1630501912718,11.03
1630501912734,9.12
1630501912750,7.32
1630501912765,5.39
1630501912781,3.05
1630501912796,0.15
1630501912812,-3.24
1630501912828,-6.83
1630501912843,-10.21
1630501912859,-12.92
1630501912875,-14.49
1630501912890,-14.6
1630501912906,-13.03
1630501912921,-9.82
1630501912937,-5.28
1630501912953,0.09
1630501912968,5.64
1630501912984,10.76
1630501913000,15.02
1630501913015,18.21
1630501913031,20.27
1630501913046,21.26
1630501913062,21.3
1630501913078,20.59
1630501913093,19.39
1630501913109,17.97
1630501913125,16.62
1630501913140,15.51
1630501913156,14.7
1630501913171,14.17
1630501913187,13.82
1630501913203,13.56
1630501913218,13.28
1630501913234,12.85
1630501913250,12.11
1630501913265,10.94
1630501913281,9.29
1630501913296,7.22
1630501913312,4.89
1630501913328,2.45
1630501913343,0.05
1630501913359,-2.28
1630501913375,-4.51
1630501913390,-6.66
1630501913406,-8.73
1630501913421,-10.72
1630501913437,-12.72
1630501913453,-14.82
1630501913468,-17.13
1630501913484,-19.65
1630501913500,-22.21
1630501913515,-24.49
1630501913531,-25.98
1630501913546,-26.16
1630501913562,-24.63
1630501913578,-21.24
1630501913593,-16.17
1630501913609,-9.89
1630501913625,-3.05
1630501913640,3.72
1630501913656,9.95
1630501913671,15.37
1630501913687,19.89
1630501913703,23.45
1630501913718,26.01
1630501913734,27.48
1630501913750,27.88
1630501913765,27.36
1630501913781,26.22
1630501913796,24.83
1630501913812,23.48
1630501913828,22.38
1630501913843,21.63
1630501913859,21.22
1630501913875,21.16
1630501913890,21.35
1630501913906,21.63
1630501913921,21.72
1630501913937,21.31
1630501913953,20.19
1630501913968,18.37
1630501913984,16.07
1630501914000,13.65
1630501914015,11.43
1630501914031,9.54
1630501914046,7.9
1630501914062,6.25
1630501914078,4.34
1630501914093,1.98
1630501914109,-0.88
1630501914125,-4.16
1630501914140,-7.71
1630501914156,-11.27
1630501914171,-14.47
1630501914187,-16.79
1630501914203,-17.67
1630501914218,-16.69
1630501914234,-13.71
1630501914250,-8.99
1630501914265,-3.16
1630501914281,2.99
1630501914296,8.74
1630501914312,13.64
1630501914328,17.53
1630501914343,20.48
1630501914359,22.6
1630501914375,23.97
1630501914390,24.58
1630501914406,24.44
1630501914421,23.63
1630501914437,22.29
1630501914453,20.65
1630501914468,18.86
1630501914484,17.04
1630501914500,15.23
1630501914515,13.48
1630501914531,11.82
1630501914546,10.31
1630501914562,8.96
1630501914578,7.77
1630501914593,6.66
1630501914609,5.53
1630501914625,4.24
1630501914640,2.7
1630501914656,0.85
1630501914671,-1.26
1630501914687,-3.5
1630501914703,-5.66
1630501914718,-7.58
1630501914734,-9.23
1630501914750,-10.77
1630501914765,-12.52
1630501914781,-14.85
1630501914796,-17.92
1630501914812,-21.5
1630501914828,-25.02
1630501914843,-27.64
1630501914859,-28.54
1630501914875,-27.25
1630501914890,-23.79
1630501914906,-18.61
1630501914921,-12.46
1630501914937,-6.06
1630501914953,0.04
1630501914968,5.59
1630501914984,10.5
1630501915000,14.73
1630501915015,18.12
