timestamp,bvp
1629810615828,26.1
1629810615843,28.7
1629810615859,31.47
1629810615875,34.33
1629810615890,37.11
1629810615906,39.64
1629810615921,41.74
1629810615937,43.24
1629810615953,43.97
1629810615968,43.9
1629810615984,43.04
1629810616000,41.57
1629810616015,39.75
1629810616031,37.89
1629810616046,36.25
1629810616062,34.98
1629810616078,34.09
1629810616093,33.44
1629810616109,32.79
1629810616125,31.85
1629810616140,30.36
1629810616156,28.23
1629810616171,25.58
1629810616187,22.7
1629810616203,19.94
1629810616218,17.52
1629810616234,15.43
1629810616250,13.45
1629810616265,11.29
1629810616281,8.64
1629810616296,5.47
1629810616312,1.86
1629810616328,-1.92
1629810616343,-5.65
1629810616359,-9.21
1629810616375,-12.57
1629810616390,-15.78
1629810616406,-18.83
1629810616421,-21.76
1629810616437,-24.58
1629810616453,-27.47
1629810616468,-30.71
1629810616484,-34.56
1629810616500,-39.08
1629810616515,-43.92
1629810616531,-48.27
1629810616546,-51.03
1629810616562,-51.1
1629810616578,-47.78
1629810616593,-41.05
1629810616609,-31.66
1629810616625,-20.88
1629810616640,-10.17
1629810616656,-0.76
1629810616671,6.72
1629810616687,12.19
1629810616703,16.06
1629810616718,18.94
1629810616734,21.35
1629810616750,23.61
1629810616765,25.88
1629810616781,28.07
1629810616796,30.03
1629810616812,31.55
1629810616828,32.45
1629810616843,32.63
1629810616859,32.19
1629810616875,31.33
1629810616890,30.3
1629810616906,29.37
1629810616921,28.64
1629810616937,28.14
1629810616953,27.81
1629810616968,27.57
1629810616984,27.31
1629810617000,26.86
1629810617015,26.01
1629810617031,24.53
1629810617046,22.33
1629810617062,19.53
1629810617078,16.42
1629810617093,13.36
1629810617109,10.67
1629810617125,8.37
1629810617140,6.31
1629810617156,4.18
1629810617171,1.74
1629810617187,-1.11
1629810617203,-4.27
1629810617218,-7.51
1629810617234,-10.66
1629810617250,-13.63
1629810617265,-16.5
1629810617281,-19.33
1629810617296,-22.23
1629810617312,-25.24
1629810617328,-28.47
1629810617343,-32.1
1629810617359,-36.38
1629810617375,-41.44
1629810617390,-47.05
1629810617406,-52.43
1629810617421,-56.39
1629810617437,-57.62
1629810617453,-55.23
1629810617468,-49.12
1629810617484,-40.1
1629810617500,-29.54
1629810617515,-18.93
1629810617531,-9.39
1629810617546,-1.36
1629810617562,5.26
1629810617578,10.91
1629810617593,16.02
1629810617609,20.78
1629810617625,25.16
1629810617640,29.06
1629810617656,32.38
1629810617671,35.13
1629810617687,37.36
1629810617703,39.0
1629810617718,39.92
1629810617734,39.95
1629810617750,39.05
1629810617765,37.38
1629810617781,35.35
1629810617796,33.47
1629810617812,32.21
1629810617828,31.8
1629810617843,32.18
1629810617859,32.96
1629810617875,33.63
1629810617890,33.7
1629810617906,32.9
1629810617921,31.2
1629810617937,28.8
1629810617953,26.01
1629810617968,23.1
1629810617984,20.25
1629810618000,17.48
1629810618015,14.81
1629810618031,12.22
1629810618046,9.78
1629810618062,7.56
1629810618078,5.52
1629810618093,3.61
1629810618109,1.67
1629810618125,-0.44
1629810618140,-2.81
1629810618156,-5.51
1629810618171,-8.6
1629810618187,-12.13
1629810618203,-16.05
1629810618218,-20.19
1629810618234,-24.22
1629810618250,-27.82
1629810618265,-30.78
1629810618281,-33.11
1629810618296,-35.06
1629810618312,-37.15
1629810618328,-39.84
1629810618343,-43.47
1629810618359,-48.05
1629810618375,-53.19
1629810618390,-58.07
1629810618406,-61.56
1629810618421,-62.58
1629810618437,-60.28
1629810618453,-54.52
1629810618468,-45.91
1629810618484,-35.67
1629810618500,-25.24
1629810618515,-15.78
1629810618531,-7.85
1629810618546,-1.42
1629810618562,3.97
1629810618578,8.85
1629810618593,13.56
1629810618609,18.22
1629810618625,22.73
1629810618640,26.88
1629810618656,30.53
1629810618671,33.5
1629810618687,35.72
1629810618703,37.18
1629810618718,37.91
1629810618734,38.03
1629810618750,37.76
1629810618765,37.36
1629810618781,37.03
1629810618796,36.92
1629810618812,36.95
1629810618828,36.94
1629810618843,36.56
1629810618859,35.56
1629810618875,33.87
1629810618890,31.6
1629810618906,29.0
1629810618921,26.28
1629810618937,23.57
1629810618953,20.94
1629810618968,18.49
1629810618984,16.37
1629810619000,14.78
1629810619015,13.78
1629810619031,13.11
1629810619046,12.26
1629810619062,10.71
1629810619078,8.24
1629810619093,5.07
1629810619109,1.78
1629810619125,-0.98
1629810619140,-2.94
1629810619156,-4.24
1629810619171,-5.42
1629810619187,-7.02
1629810619203,-9.36
1629810619218,-12.38
1629810619234,-15.79
1629810619250,-19.23
1629810619265,-22.53
1629810619281,-25.63
1629810619296,-28.61
1629810619312,-31.55
1629810619328,-34.48
1629810619343,-37.39
1629810619359,-40.34
1629810619375,-43.53
1629810619390,-47.24
1629810619406,-51.7
1629810619421,-56.72
1629810619437,-61.6
1629810619453,-65.1
1629810619468,-65.82
1629810619484,-62.7
1629810619500,-55.55
1629810619515,-45.13
1629810619531,-32.97
1629810619546,-20.83
1629810619562,-10.11
1629810619578,-1.46
1629810619593,5.18
1629810619609,10.35
1629810619625,14.66
1629810619640,18.51
1629810619656,22.13
1629810619671,25.57
1629810619687,28.84
1629810619703,31.93
1629810619718,34.75
1629810619734,37.16
1629810619750,38.98
1629810619765,40.08
1629810619781,40.5
1629810619796,40.43
1629810619812,40.16
1629810619828,39.95
1629810619843,39.92
1629810619859,40.05
1629810619875,40.18
1629810619890,40.13
1629810619906,39.71
1629810619921,38.73
1629810619937,37.09
1629810619953,34.79
1629810619968,32.01
1629810619984,29.11
1629810620000,26.47
1629810620015,24.34
1629810620031,22.68
1629810620046,21.17
1629810620062,19.37
1629810620078,16.96
1629810620093,13.91
1629810620109,10.46
1629810620125,6.96
1629810620140,3.74
1629810620156,0.88
1629810620171,-1.75
1629810620187,-4.41
1629810620203,-7.37
1629810620218,-10.72
1629810620234,-14.36
1629810620250,-18.09
1629810620265,-21.66
1629810620281,-24.91
1629810620296,-27.84
1629810620312,-30.63
1629810620328,-33.5
1629810620343,-36.68
1629810620359,-40.24
1629810620375,-44.07
1629810620390,-47.87
1629810620406,-51.15
1629810620421,-53.28
1629810620437,-53.62
1629810620453,-51.57
1629810620468,-46.81
1629810620484,-39.51
1629810620500,-30.33
1629810620515,-20.36
1629810620531,-10.81
1629810620546,-2.64
1629810620562,3.75
1629810620578,8.48
1629810620593,12.1
1629810620609,15.28
1629810620625,18.46
1629810620640,21.74
1629810620656,24.89
1629810620671,27.6
1629810620687,29.66
1629810620703,31.07
1629810620718,31.98
1629810620734,32.56
1629810620750,32.81
1629810620765,32.63
1629810620781,31.93
1629810620796,30.79
1629810620812,29.52
1629810620828,28.53
1629810620843,28.16
1629810620859,28.41
1629810620875,28.95
1629810620890,29.21
1629810620906,28.69
1629810620921,27.15
1629810620937,24.7
1629810620953,21.66
1629810620968,18.48
1629810620984,15.48
1629810621000,12.82
1629810621015,10.58
1629810621031,8.73
1629810621046,7.13
1629810621062,5.62
1629810621078,4.0
1629810621093,2.1
1629810621109,-0.04
1629810621125,-2.28
1629810621140,-4.38
1629810621156,-6.2
1629810621171,-7.79
1629810621187,-9.46
1629810621203,-11.56
1629810621218,-14.35
1629810621234,-17.84
1629810621250,-21.77
1629810621265,-25.71
1629810621281,-29.33
1629810621296,-32.43
1629810621312,-35.09
1629810621328,-37.51
1629810621343,-39.91
1629810621359,-42.49
1629810621375,-45.4
1629810621390,-48.7
1629810621406,-52.31
1629810621421,-55.9
1629810621437,-58.84
1629810621453,-60.24
1629810621468,-59.19
1629810621484,-55.1
1629810621500,-47.98
1629810621515,-38.58
1629810621531,-28.13
1629810621546,-17.98
1629810621562,-9.09
1629810621578,-1.81
1629810621593,4.03
1629810621609,8.86
1629810621625,13.02
1629810621640,16.64
1629810621656,19.7
1629810621671,22.29
1629810621687,24.6
1629810621703,26.93
1629810621718,29.45
1629810621734,32.0
1629810621750,34.24
1629810621765,35.7
1629810621781,36.13
1629810621796,35.63
1629810621812,34.58
1629810621828,33.46
1629810621843,32.65
1629810621859,32.28
1629810621875,32.22
1629810621890,32.22
1629810621906,31.97
1629810621921,31.25
1629810621937,29.97
1629810621953,28.15
1629810621968,25.98
1629810621984,23.7
1629810622000,21.53
1629810622015,19.58
1629810622031,17.73
1629810622046,15.76
1629810622062,13.47
1629810622078,10.82
1629810622093,7.96
1629810622109,5.23
1629810622125,2.93
1629810622140,1.19
1629810622156,-0.12
1629810622171,-1.36
1629810622187,-2.98
1629810622203,-5.29
1629810622218,-8.36
1629810622234,-12.04
1629810622250,-16.0
1629810622265,-19.91
1629810622281,-23.51
1629810622296,-26.68
1629810622312,-29.48
1629810622328,-32.12
1629810622343,-34.94
1629810622359,-38.28
1629810622375,-42.34
1629810622390,-46.89
1629810622406,-51.24
1629810622421,-54.3
1629810622437,-54.84
1629810622453,-51.94
1629810622468,-45.35
1629810622484,-35.6
1629810622500,-23.93
1629810622515,-11.92
1629810622531,-0.98
1629810622546,7.9
1629810622562,14.35
1629810622578,18.56
1629810622593,21.07
1629810622609,22.55
1629810622625,23.55
1629810622640,24.44
1629810622656,25.41
1629810622671,26.49
1629810622687,27.63
1629810622703,28.72
1629810622718,29.58
1629810622734,29.98
1629810622750,29.65
1629810622765,28.47
1629810622781,26.54
1629810622796,24.25
1629810622812,22.16
1629810622828,20.79
1629810622843,20.37
1629810622859,20.72
1629810622875,21.32
1629810622890,21.49
1629810622906,20.75
1629810622921,18.94
1629810622937,16.35
1629810622953,13.51
1629810622968,10.95
1629810622984,8.98
1629810623000,7.53
1629810623015,6.23
1629810623031,4.63
1629810623046,2.4
1629810623062,-0.52
1629810623078,-3.99
1629810623093,-7.74
1629810623109,-11.52
1629810623125,-15.11
1629810623140,-18.38
1629810623156,-21.21
1629810623171,-23.53
1629810623187,-25.39
1629810623203,-27.09
1629810623218,-29.07
1629810623234,-31.82
1629810623250,-35.55
1629810623265,-39.95
1629810623281,-44.19
1629810623296,-47.05
1629810623312,-47.31
1629810623328,-44.2
1629810623343,-37.67
1629810623359,-28.49
1629810623375,-17.99
1629810623390,-7.64
1629810623406,1.39
1629810623421,8.45
1629810623437,13.47
1629810623453,16.77
1629810623468,18.82
1629810623484,20.07
1629810623500,20.87
1629810623515,21.51
1629810623531,22.2
1629810623546,23.16
1629810623562,24.4
1629810623578,25.84
1629810623593,27.18
1629810623609,28.1
1629810623625,28.37
1629810623640,27.99
1629810623656,27.15
1629810623671,26.15
1629810623687,25.23
1629810623703,24.49
1629810623718,23.86
1629810623734,23.16
1629810623750,22.22
1629810623765,20.86
1629810623781,19.03
1629810623796,16.71
1629810623812,13.93
1629810623828,10.82
1629810623843,7.52
1629810623859,4.29
1629810623875,1.39
1629810623890,-1.0
1629810623906,-2.86
1629810623921,-4.39
1629810623937,-5.97
1629810623953,-7.99
1629810623968,-10.65
1629810623984,-13.93
1629810624000,-17.57
1629810624015,-21.2
1629810624031,-24.51
1629810624046,-27.42
1629810624062,-30.12
1629810624078,-33.01
1629810624093,-36.48
1629810624109,-40.72
1629810624125,-45.57
1629810624140,-50.46
1629810624156,-54.54
1629810624171,-56.91
1629810624187,-56.77
1629810624203,-53.68
1629810624218,-47.67
1629810624234,-39.26
1629810624250,-29.33
1629810624265,-18.96
1629810624281,-9.16
1629810624296,-0.73
1629810624312,5.86
1629810624328,10.55
1629810624343,13.62
1629810624359,15.59
1629810624375,17.09
1629810624390,18.69
1629810624406,20.74
1629810624421,23.37
1629810624437,26.44
1629810624453,29.59
1629810624468,32.4
1629810624484,34.52
1629810624500,35.73
1629810624515,36.05
1629810624531,35.66
1629810624546,34.88
1629810624562,34.07
1629810624578,33.52
1629810624593,33.33
1629810624609,33.39
1629810624625,33.38
1629810624640,32.92
1629810624656,31.74
1629810624671,29.73
1629810624687,27.0
1629810624703,23.79
1629810624718,20.42
1629810624734,17.13
1629810624750,14.13
1629810624765,11.47
1629810624781,9.15
1629810624796,7.02
1629810624812,4.91
1629810624828,2.62
1629810624843,-0.0
1629810624859,-2.96
1629810624875,-6.16
1629810624890,-9.39
1629810624906,-12.53
1629810624921,-15.55
1629810624937,-18.56
1629810624953,-21.64
1629810624968,-24.77
1629810624984,-27.82
1629810625000,-30.57
1629810625015,-32.94
1629810625031,-35.04
1629810625046,-37.27
1629810625062,-40.11
1629810625078,-43.9
1629810625093,-48.67
1629810625109,-53.91
1629810625125,-58.77
1629810625140,-62.12
1629810625156,-62.97
1629810625171,-60.66
1629810625187,-55.11
1629810625203,-46.81
1629810625218,-36.7
1629810625234,-25.94
1629810625250,-15.63
1629810625265,-6.61
1629810625281,0.71
1629810625296,6.34
1629810625312,10.63
1629810625328,14.16
1629810625343,17.53
1629810625359,21.12
1629810625375,25.06
1629810625390,29.15
1629810625406,32.93
1629810625421,35.91
1629810625437,37.72
1629810625453,38.35
1629810625468,38.07
1629810625484,37.28
1629810625500,36.34
1629810625515,35.48
1629810625531,34.77
1629810625546,34.16
1629810625562,33.64
1629810625578,33.22
1629810625593,32.87
1629810625609,32.49
1629810625625,31.9
1629810625640,30.87
1629810625656,29.26
1629810625671,27.12
1629810625687,24.63
1629810625703,22.09
1629810625718,19.73
1629810625734,17.67
1629810625750,15.93
1629810625765,14.43
1629810625781,13.05
1629810625796,11.65
1629810625812,10.06
1629810625828,8.03
1629810625843,5.48
1629810625859,2.45
1629810625875,-0.85
1629810625890,-4.05
1629810625906,-6.87
1629810625921,-9.19
1629810625937,-11.12
1629810625953,-12.93
1629810625968,-14.9
1629810625984,-17.17
1629810626000,-19.75
1629810626015,-22.51
1629810626031,-25.27
1629810626046,-27.89
1629810626062,-30.29
1629810626078,-32.49
1629810626093,-34.62
1629810626109,-36.91
1629810626125,-39.65
1629810626140,-43.08
1629810626156,-47.31
1629810626171,-52.05
1629810626187,-56.62
1629810626203,-59.94
1629810626218,-60.88
1629810626234,-58.6
1629810626250,-52.84
1629810626265,-44.08
1629810626281,-33.39
1629810626296,-22.22
1629810626312,-11.9
1629810626328,-3.41
1629810626343,2.81
1629810626359,6.92
1629810626375,9.52
1629810626390,11.51
1629810626406,13.72
1629810626421,16.7
1629810626437,20.5
1629810626453,24.74
1629810626468,28.78
1629810626484,31.94
1629810626500,33.8
1629810626515,34.3
1629810626531,33.73
1629810626546,32.54
1629810626562,31.23
1629810626578,30.21
1629810626593,29.68
1629810626609,29.75
1629810626625,30.33
1629810626640,31.26
1629810626656,32.19
1629810626671,32.78
1629810626687,32.72
1629810626703,31.85
1629810626718,30.17
1629810626734,27.87
1629810626750,25.19
1629810626765,22.38
1629810626781,19.7
1629810626796,17.31
1629810626812,15.3
1629810626828,13.69
1629810626843,12.4
1629810626859,11.26
1629810626875,10.03
1629810626890,8.45
1629810626906,6.38
1629810626921,3.85
1629810626937,1.01
1629810626953,-1.93
1629810626968,-4.72
1629810626984,-7.25
1629810627000,-9.5
1629810627015,-11.57
1629810627031,-13.65
1629810627046,-15.95
1629810627062,-18.6
1629810627078,-21.64
1629810627093,-25.0
1629810627109,-28.51
1629810627125,-31.98
1629810627140,-35.29
1629810627156,-38.4
1629810627171,-41.45
1629810627187,-44.67
1629810627203,-48.29
1629810627218,-52.4
1629810627234,-56.69
1629810627250,-60.45
1629810627265,-62.64
1629810627281,-62.17
1629810627296,-58.28
1629810627312,-50.93
1629810627328,-40.9
1629810627343,-29.58
1629810627359,-18.61
1629810627375,-9.21
1629810627390,-1.96
1629810627406,3.24
1629810627421,7.03
1629810627437,10.11
1629810627453,12.96
1629810627468,15.79
1629810627484,18.58
1629810627500,21.27
1629810627515,23.87
1629810627531,26.44
1629810627546,29.0
1629810627562,31.43
1629810627578,33.46
1629810627593,34.7
1629810627609,34.93
1629810627625,34.15
1629810627640,32.69
1629810627656,31.05
1629810627671,29.79
1629810627687,29.26
1629810627703,29.5
1629810627718,30.24
1629810627734,30.97
1629810627750,31.24
1629810627765,30.67
1629810627781,29.14
1629810627796,26.77
1629810627812,23.88
1629810627828,20.93
1629810627843,18.34
1629810627859,16.4
1629810627875,15.1
1629810627890,14.23
1629810627906,13.36
1629810627921,12.09
1629810627937,10.23
1629810627953,7.78
1629810627968,4.93
1629810627984,1.94
1629810628000,-0.96
1629810628015,-3.71
1629810628031,-6.27
1629810628046,-8.77
1629810628062,-11.28
1629810628078,-13.8
1629810628093,-16.3
1629810628109,-18.76
1629810628125,-21.11
1629810628140,-23.38
1629810628156,-25.65
1629810628171,-28.07
1629810628187,-30.82
1629810628203,-34.04
1629810628218,-37.76
1629810628234,-41.9
1629810628250,-46.14
1629810628265,-49.92
1629810628281,-52.45
1629810628296,-52.82
1629810628312,-50.28
1629810628328,-44.54
1629810628343,-35.97
1629810628359,-25.49
1629810628375,-14.49
1629810628390,-4.33
1629810628406,4.01
1629810628421,10.1
1629810628437,14.05
1629810628453,16.37
1629810628468,17.71
1629810628484,18.62
1629810628500,19.45
1629810628515,20.31
1629810628531,21.22
1629810628546,22.21
1629810628562,23.27
1629810628578,24.41
1629810628593,25.59
1629810628609,26.7
1629810628625,27.58
1629810628640,28.15
1629810628656,28.41
1629810628671,28.51
1629810628687,28.65
1629810628703,28.96
1629810628718,29.43
1629810628734,29.84
1629810628750,29.85
1629810628765,29.15
1629810628781,27.57
1629810628796,25.25
1629810628812,22.51
1629810628828,19.78
1629810628843,17.35
1629810628859,15.35
1629810628875,13.66
1629810628890,12.05
1629810628906,10.3
1629810628921,8.36
1629810628937,6.3
1629810628953,4.26
1629810628968,2.27
1629810628984,0.2
1629810629000,-2.17
1629810629015,-5.04
1629810629031,-8.48
1629810629046,-12.3
1629810629062,-16.19
1629810629078,-19.79
1629810629093,-22.89
1629810629109,-25.44
1629810629125,-27.66
1629810629140,-29.85
1629810629156,-32.39
1629810629171,-35.64
1629810629187,-39.85
1629810629203,-44.97
1629810629218,-50.55
1629810629234,-55.55
1629810629250,-58.63
1629810629265,-58.45
1629810629281,-54.24
1629810629296,-46.16
1629810629312,-35.38
1629810629328,-23.62
1629810629343,-12.56
1629810629359,-3.4
1629810629375,3.56
1629810629390,8.6
1629810629406,12.33
1629810629421,15.35
1629810629437,18.03
1629810629453,20.59
1629810629468,23.11
1629810629484,25.65
1629810629500,28.14
1629810629515,30.42
1629810629531,32.16
1629810629546,33.06
1629810629562,32.92
1629810629578,31.84
1629810629593,30.2
1629810629609,28.54
1629810629625,27.33
1629810629640,26.84
1629810629656,27.04
1629810629671,27.71
1629810629687,28.48
1629810629703,29.0
1629810629718,28.96
1629810629734,28.21
1629810629750,26.71
1629810629765,24.58
1629810629781,22.05
1629810629796,19.49
1629810629812,17.23
1629810629828,15.53
1629810629843,14.43
1629810629859,13.71
1629810629875,12.98
1629810629890,11.81
1629810629906,9.95
1629810629921,7.44
1629810629937,4.59
1629810629953,1.85
1629810629968,-0.4
1629810629984,-2.02
1629810630000,-3.16
1629810630015,-4.2
1629810630031,-5.52
1629810630046,-7.39
1629810630062,-9.88
1629810630078,-12.88
1629810630093,-16.22
1629810630109,-19.73
1629810630125,-23.28
1629810630140,-26.77
1629810630156,-30.08
1629810630171,-33.19
1629810630187,-36.14
1629810630203,-39.22
1629810630218,-42.77
1629810630234,-47.04
1629810630250,-51.92
1629810630265,-56.83
1629810630281,-60.74
1629810630296,-62.51
1629810630312,-61.18
1629810630328,-56.39
1629810630343,-48.46
1629810630359,-38.38
1629810630375,-27.46
1629810630390,-16.98
1629810630406,-7.96
1629810630421,-0.89
1629810630437,4.24
1629810630453,7.82
1629810630468,10.49
1629810630484,12.86
1629810630500,15.4
1629810630515,18.32
1629810630531,21.55
1629810630546,24.85
1629810630562,27.88
1629810630578,30.39
1629810630593,32.19
1629810630609,33.27
1629810630625,33.69
1629810630640,33.6
1629810630656,33.21
1629810630671,32.68
1629810630687,32.23
1629810630703,31.98
1629810630718,31.97
1629810630734,32.11
1629810630750,32.21
1629810630765,32.02
1629810630781,31.35
1629810630796,30.19
1629810630812,28.59
1629810630828,26.75
1629810630843,24.82
1629810630859,22.81
1629810630875,20.69
1629810630890,18.34
1629810630906,15.74
1629810630921,12.97
1629810630937,10.18
1629810630953,7.53
1629810630968,5.13
1629810630984,2.93
1629810631000,0.82
1629810631015,-1.33
1629810631031,-3.52
1629810631046,-5.68
1629810631062,-7.75
1629810631078,-9.7
1629810631093,-11.66
1629810631109,-13.8
1629810631125,-16.26
1629810631140,-19.04
1629810631156,-21.99
1629810631171,-24.83
1629810631187,-27.25
1629810631203,-29.1
1629810631218,-30.44
1629810631234,-31.55
1629810631250,-32.89
1629810631265,-34.99
1629810631281,-38.24
1629810631296,-42.7
1629810631312,-48.04
1629810631328,-53.47
1629810631343,-57.87
1629810631359,-60.06
1629810631375,-59.05
1629810631390,-54.39
1629810631406,-46.37
1629810631421,-35.93
1629810631437,-24.51
1629810631453,-13.57
1629810631468,-4.3
1629810631484,2.69
1629810631500,7.43
1629810631515,10.39
1629810631531,12.25
1629810631546,13.66
1629810631562,15.09
1629810631578,16.78
1629810631593,18.8
1629810631609,21.11
1629810631625,23.61
1629810631640,26.09
1629810631656,28.35
1629810631671,30.07
1629810631687,31.04
1629810631703,31.17
1629810631718,30.58
1629810631734,29.6
1629810631750,28.63
1629810631765,27.97
1629810631781,27.65
1629810631796,27.53
1629810631812,27.31
1629810631828,26.78
1629810631843,25.91
1629810631859,24.81
1629810631875,23.66
1629810631890,22.58
1629810631906,21.59
1629810631921,20.63
1629810631937,19.66
1629810631953,18.64
1629810631968,17.52
1629810631984,16.2
1629810632000,14.58
1629810632015,12.61
1629810632031,10.32
1629810632046,7.81
1629810632062,5.25
1629810632078,2.75
1629810632093,0.43
1629810632109,-1.68
1629810632125,-3.6
1629810632140,-5.4
1629810632156,-7.2
1629810632171,-9.24
1629810632187,-11.7
1629810632203,-14.72
1629810632218,-18.25
1629810632234,-22.03
1629810632250,-25.74
1629810632265,-29.12
1629810632281,-32.04
1629810632296,-34.6
1629810632312,-37.04
1629810632328,-39.63
1629810632343,-42.64
1629810632359,-46.18
1629810632375,-50.14
1629810632390,-54.07
1629810632406,-57.19
1629810632421,-58.5
1629810632437,-57.05
1629810632453,-52.29
1629810632468,-44.26
1629810632484,-33.74
1629810632500,-22.04
1629810632515,-10.66
1629810632531,-0.89
1629810632546,6.49
1629810632562,11.34
1629810632578,14.08
1629810632593,15.51
1629810632609,16.49
1629810632625,17.7
1629810632640,19.48
1629810632656,21.81
1629810632671,24.37
1629810632687,26.67
1629810632703,28.28
1629810632718,29.01
1629810632734,28.86
1629810632750,28.09
1629810632765,27.0
1629810632781,25.85
1629810632796,24.91
1629810632812,24.35
1629810632828,24.25
1629810632843,24.58
1629810632859,25.19
1629810632875,25.74
1629810632890,25.85
1629810632906,25.28
1629810632921,24.0
1629810632937,22.29
1629810632953,20.56
1629810632968,19.17
1629810632984,18.25
1629810633000,17.57
1629810633015,16.72
1629810633031,15.28
1629810633046,13.04
1629810633062,10.15
1629810633078,7.01
1629810633093,4.06
1629810633109,1.62
1629810633125,-0.29
1629810633140,-1.99
1629810633156,-3.89
1629810633171,-6.4
1629810633187,-9.66
1629810633203,-13.5
1629810633218,-17.53
1629810633234,-21.27
1629810633250,-24.46
1629810633265,-27.07
1629810633281,-29.39
1629810633296,-31.81
1629810633312,-34.69
1629810633328,-38.18
1629810633343,-42.18
1629810633359,-46.27
1629810633375,-49.68
1629810633390,-51.52
1629810633406,-50.84
1629810633421,-46.99
1629810633437,-39.88
1629810633453,-30.13
1629810633468,-18.99
1629810633484,-8.02
1629810633500,1.37
1629810633515,8.33
1629810633531,12.79
1629810633546,15.24
1629810633562,16.52
1629810633578,17.41
1629810633593,18.52
1629810633609,20.08
1629810633625,22.08
1629810633640,24.29
1629810633656,26.39
1629810633671,28.01
1629810633687,28.91
1629810633703,28.99
1629810633718,28.44
1629810633734,27.61
1629810633750,26.93
1629810633765,26.72
1629810633781,27.03
1629810633796,27.62
1629810633812,28.09
1629810633828,28.05
1629810633843,27.32
1629810633859,25.93
1629810633875,24.12
1629810633890,22.12
1629810633906,20.13
1629810633921,18.2
1629810633937,16.39
1629810633953,14.79
1629810633968,13.49
1629810633984,12.55
1629810634000,11.87
1629810634015,11.17
1629810634031,10.1
1629810634046,8.45
1629810634062,6.17
1629810634078,3.48
1629810634093,0.74
1629810634109,-1.75
1629810634125,-3.91
1629810634140,-5.85
1629810634156,-7.84
1629810634171,-10.16
1629810634187,-12.93
1629810634203,-16.12
1629810634218,-19.52
1629810634234,-22.88
1629810634250,-26.02
1629810634265,-28.88
1629810634281,-31.59
1629810634296,-34.4
1629810634312,-37.64
1629810634328,-41.57
1629810634343,-46.21
1629810634359,-51.35
1629810634375,-56.37
1629810634390,-60.3
1629810634406,-61.94
1629810634421,-60.31
1629810634437,-54.95
1629810634453,-46.26
1629810634468,-35.47
1629810634484,-24.25
1629810634500,-14.16
1629810634515,-6.14
1629810634531,-0.38
1629810634546,3.64
1629810634562,6.69
1629810634578,9.47
1629810634593,12.4
1629810634609,15.62
1629810634625,19.12
1629810634640,22.74
1629810634656,26.29
1629810634671,29.4
1629810634687,31.68
1629810634703,32.84
1629810634718,32.83
1629810634734,32.0
1629810634750,30.81
1629810634765,29.76
1629810634781,29.08
1629810634796,28.79
1629810634812,28.7
1629810634828,28.68
1629810634843,28.59
1629810634859,28.39
1629810634875,27.99
1629810634890,27.28
1629810634906,26.19
1629810634921,24.78
1629810634937,23.22
1629810634953,21.71
1629810634968,20.38
1629810634984,19.18
1629810635000,17.99
1629810635015,16.71
1629810635031,15.26
1629810635046,13.62
1629810635062,11.68
1629810635078,9.27
1629810635093,6.2
1629810635109,2.48
1629810635125,-1.58
1629810635140,-5.51
1629810635156,-8.84
1629810635171,-11.37
1629810635187,-13.22
1629810635203,-14.77
1629810635218,-16.42
1629810635234,-18.47
1629810635250,-21.02
1629810635265,-24.02
1629810635281,-27.3
1629810635296,-30.66
1629810635312,-33.93
1629810635328,-36.99
1629810635343,-39.96
1629810635359,-43.11
1629810635375,-46.79
1629810635390,-51.21
1629810635406,-56.12
1629810635421,-60.72
1629810635437,-63.74
1629810635453,-63.92
1629810635468,-60.48
1629810635484,-53.47
1629810635500,-43.76
1629810635515,-32.77
1629810635531,-22.01
1629810635546,-12.66
1629810635562,-5.28
1629810635578,0.16
1629810635593,4.13
1629810635609,7.29
1629810635625,10.26
1629810635640,13.43
1629810635656,16.96
1629810635671,20.77
1629810635687,24.63
1629810635703,28.21
1629810635718,31.22
1629810635734,33.46
1629810635750,34.82
1629810635765,35.32
1629810635781,35.1
1629810635796,34.34
1629810635812,33.27
1629810635828,32.12
1629810635843,31.1
1629810635859,30.34
1629810635875,29.85
1629810635890,29.52
1629810635906,29.16
1629810635921,28.57
1629810635937,27.57
1629810635953,26.12
1629810635968,24.29
1629810635984,22.29
1629810636000,20.31
1629810636015,18.5
1629810636031,16.86
1629810636046,15.26
1629810636062,13.51
1629810636078,11.43
1629810636093,9.03
1629810636109,6.44
1629810636125,3.9
1629810636140,1.61
1629810636156,-0.33
1629810636171,-2.0
1629810636187,-3.59
1629810636203,-5.3
1629810636218,-7.32
1629810636234,-9.78
1629810636250,-12.68
1629810636265,-15.99
1629810636281,-19.53
1629810636296,-23.02
1629810636312,-26.22
1629810636328,-28.98
1629810636343,-31.3
1629810636359,-33.46
1629810636375,-35.84
1629810636390,-38.89
1629810636406,-42.91
1629810636421,-47.79
1629810636437,-52.94
1629810636453,-57.26
1629810636468,-59.4
1629810636484,-58.12
1629810636500,-52.84
1629810636515,-43.89
1629810636531,-32.57
1629810636546,-20.64
1629810636562,-9.83
1629810636578,-1.23
1629810636593,4.87
1629810636609,8.87
1629810636625,11.44
1629810636640,13.21
1629810636656,14.62
1629810636671,15.92
1629810636687,17.31
1629810636703,18.99
1629810636718,21.05
1629810636734,23.44
1629810636750,25.91
1629810636765,28.08
1629810636781,29.69
1629810636796,30.68
1629810636812,31.18
1629810636828,31.43
1629810636843,31.65
1629810636859,31.92
1629810636875,32.22
1629810636890,32.48
1629810636906,32.61
1629810636921,32.49
1629810636937,32.0
1629810636953,31.02
1629810636968,29.46
1629810636984,27.34
1629810637000,24.8
1629810637015,22.02
1629810637031,19.19
1629810637046,16.41
1629810637062,13.68
1629810637078,11.0
1629810637093,8.39
1629810637109,5.88
1629810637125,3.46
1629810637140,0.97
1629810637156,-1.76
1629810637171,-4.89
1629810637187,-8.38
1629810637203,-11.98
1629810637218,-15.3
1629810637234,-18.0
1629810637250,-20.0
1629810637265,-21.55
1629810637281,-23.16
1629810637296,-25.35
1629810637312,-28.56
1629810637328,-32.94
1629810637343,-38.34
1629810637359,-44.23
1629810637375,-49.78
1629810637390,-53.9
1629810637406,-55.51
1629810637421,-53.75
1629810637437,-48.32
1629810637453,-39.75
1629810637468,-29.23
1629810637484,-18.38
1629810637500,-8.73
1629810637515,-1.21
1629810637531,4.02
1629810637546,7.51
1629810637562,10.1
1629810637578,12.59
1629810637593,15.39
1629810637609,18.58
1629810637625,21.95
1629810637640,25.19
1629810637656,28.05
1629810637671,30.34
1629810637687,31.91
1629810637703,32.76
1629810637718,32.95
1629810637734,32.64
1629810637750,32.06
1629810637765,31.4
1629810637781,30.81
1629810637796,30.35
1629810637812,30.02
1629810637828,29.74
1629810637843,29.4
1629810637859,28.88
1629810637875,28.02
1629810637890,26.79
1629810637906,25.2
1629810637921,23.44
1629810637937,21.72
1629810637953,20.21
1629810637968,18.95
1629810637984,17.81
1629810638000,16.55
1629810638015,14.97
1629810638031,12.97
1629810638046,10.57
1629810638062,7.95
1629810638078,5.26
1629810638093,2.66
1629810638109,0.18
1629810638125,-2.29
1629810638140,-4.93
1629810638156,-7.91
1629810638171,-11.24
1629810638187,-14.8
1629810638203,-18.27
1629810638218,-21.36
1629810638234,-23.93
1629810638250,-26.09
1629810638265,-28.17
1629810638281,-30.59
1629810638296,-33.75
1629810638312,-37.88
1629810638328,-43.03
1629810638343,-48.9
1629810638359,-54.91
1629810638375,-60.17
1629810638390,-63.59
1629810638406,-64.1
1629810638421,-60.99
1629810638437,-54.22
1629810638453,-44.49
1629810638468,-33.19
1629810638484,-21.9
1629810638500,-12.05
1629810638515,-4.48
1629810638531,0.68
1629810638546,3.97
1629810638562,6.35
1629810638578,8.78
1629810638593,11.93
1629810638609,16.0
1629810638625,20.7
1629810638640,25.42
1629810638656,29.52
1629810638671,32.6
1629810638687,34.57
1629810638703,35.63
1629810638718,36.1
1629810638734,36.27
1629810638750,36.24
1629810638765,36.01
1629810638781,35.57
1629810638796,34.99
1629810638812,34.47
1629810638828,34.19
1629810638843,34.18
1629810638859,34.25
1629810638875,34.07
1629810638890,33.32
1629810638906,31.89
1629810638921,29.89
1629810638937,27.55
1629810638953,25.16
1629810638968,22.85
1629810638984,20.64
1629810639000,18.48
1629810639015,16.27
1629810639031,13.93
1629810639046,11.42
1629810639062,8.77
1629810639078,6.09
1629810639093,3.54
1629810639109,1.28
1629810639125,-0.67
1629810639140,-2.45
1629810639156,-4.34
1629810639171,-6.66
1629810639187,-9.59
1629810639203,-13.12
1629810639218,-16.99
1629810639234,-20.88
1629810639250,-24.48
1629810639265,-27.59
1629810639281,-30.16
1629810639296,-32.35
1629810639312,-34.43
1629810639328,-36.8
1629810639343,-39.88
1629810639359,-43.97
1629810639375,-49.07
1629810639390,-54.77
1629810639406,-60.18
1629810639421,-64.09
1629810639437,-65.22
1629810639453,-62.67
1629810639468,-56.25
1629810639484,-46.65
1629810639500,-35.21
1629810639515,-23.66
1629810639531,-13.45
1629810639546,-5.45
1629810639562,0.2
1629810639578,3.97
1629810639593,6.62
1629810639609,8.93
1629810639625,11.47
1629810639640,14.57
1629810639656,18.22
1629810639671,22.17
1629810639687,26.03
1629810639703,29.3
1629810639718,31.66
1629810639734,32.93
1629810639750,33.23
1629810639765,32.81
1629810639781,32.0
1629810639796,31.12
1629810639812,30.4
1629810639828,30.04
1629810639843,30.08
1629810639859,30.41
1629810639875,30.75
1629810639890,30.73
1629810639906,30.0
1629810639921,28.47
1629810639937,26.25
1629810639953,23.7
1629810639968,21.29
1629810639984,19.32
1629810640000,17.94
1629810640015,17.04
1629810640031,16.36
1629810640046,15.53
1629810640062,14.27
1629810640078,12.37
1629810640093,9.88
1629810640109,7.07
1629810640125,4.36
1629810640140,2.13
1629810640156,0.49
1629810640171,-0.8
1629810640187,-2.27
1629810640203,-4.39
1629810640218,-7.37
1629810640234,-11.07
1629810640250,-15.07
1629810640265,-18.89
1629810640281,-22.2
1629810640296,-24.96
1629810640312,-27.34
1629810640328,-29.58
1629810640343,-31.98
1629810640359,-34.88
1629810640375,-38.63
1629810640390,-43.39
1629810640406,-48.95
1629810640421,-54.49
1629810640437,-58.72
1629810640453,-60.18
1629810640468,-57.83
1629810640484,-51.44
1629810640500,-41.73
1629810640515,-30.16
1629810640531,-18.41
1629810640546,-7.94
1629810640562,0.37
1629810640578,6.3
1629810640593,10.13
1629810640609,12.42
1629810640625,13.78
1629810640640,14.82
1629810640656,15.93
1629810640671,17.4
1629810640687,19.22
1629810640703,21.29
1629810640718,23.42
1629810640734,25.38
1629810640750,26.97
1629810640765,28.05
1629810640781,28.6
1629810640796,28.67
1629810640812,28.42
1629810640828,28.03
1629810640843,27.66
1629810640859,27.4
1629810640875,27.25
1629810640890,27.12
1629810640906,26.87
1629810640921,26.38
1629810640937,25.55
1629810640953,24.38
1629810640968,22.87
1629810640984,21.13
1629810641000,19.25
1629810641015,17.27
1629810641031,15.22
1629810641046,13.07
1629810641062,10.84
1629810641078,8.51
1629810641093,6.08
1629810641109,3.49
1629810641125,0.65
1629810641140,-2.5
1629810641156,-5.93
1629810641171,-9.43
1629810641187,-12.77
1629810641203,-15.67
1629810641218,-18.04
1629810641234,-19.94
1629810641250,-21.64
1629810641265,-23.52
1629810641281,-25.93
1629810641296,-29.11
1629810641312,-33.09
1629810641328,-37.59
1629810641343,-42.02
1629810641359,-45.57
1629810641375,-47.38
1629810641390,-46.71
1629810641406,-43.23
1629810641421,-37.08
1629810641437,-28.93
1629810641453,-19.79
1629810641468,-10.86
1629810641484,-3.18
1629810641500,2.55
1629810641515,6.22
1629810641531,8.31
1629810641546,9.65
1629810641562,11.15
1629810641578,13.41
1629810641593,16.58
1629810641609,20.35
1629810641625,24.13
1629810641640,27.39
1629810641656,29.77
1629810641671,31.22
1629810641687,31.86
1629810641703,31.94
1629810641718,31.67
1629810641734,31.23
1629810641750,30.75
1629810641765,30.29
1629810641781,29.9
1629810641796,29.54
1629810641812,29.16
1629810641828,28.63
1629810641843,27.76
1629810641859,26.35
1629810641875,24.25
1629810641890,21.49
1629810641906,18.31
1629810641921,15.13
1629810641937,12.36
1629810641953,10.3
1629810641968,8.91
1629810641984,7.9
1629810642000,6.9
1629810642015,5.56
1629810642031,3.76
1629810642046,1.52
1629810642062,-1.01
1629810642078,-3.73
1629810642093,-6.66
1629810642109,-9.85
1629810642125,-13.33
1629810642140,-17.05
1629810642156,-20.78
1629810642171,-24.19
1629810642187,-27.08
1629810642203,-29.46
1629810642218,-31.69
1629810642234,-34.4
1629810642250,-38.15
1629810642265,-43.12
1629810642281,-48.89
1629810642296,-54.45
1629810642312,-58.48
1629810642328,-59.74
1629810642343,-57.57
1629810642359,-51.98
1629810642375,-43.72
1629810642390,-33.89
1629810642406,-23.71
1629810642421,-14.2
1629810642437,-6.04
1629810642453,0.46
1629810642468,5.38
1629810642484,9.05
1629810642500,11.97
1629810642515,14.7
1629810642531,17.68
1629810642546,21.06
1629810642562,24.73
1629810642578,28.36
1629810642593,31.51
1629810642609,33.82
1629810642625,35.09
1629810642640,35.29
1629810642656,34.6
1629810642671,33.3
1629810642687,31.76
1629810642703,30.38
1629810642718,29.51
1629810642734,29.31
1629810642750,29.69
1629810642765,30.35
1629810642781,30.84
1629810642796,30.81
1629810642812,30.08
1629810642828,28.74
1629810642843,27.03
1629810642859,25.16
1629810642875,23.19
1629810642890,21.06
1629810642906,18.72
1629810642921,16.2
1629810642937,13.67
1629810642953,11.37
1629810642968,9.38
1629810642984,7.66
1629810643000,5.98
1629810643015,4.13
1629810643031,2.02
1629810643046,-0.27
1629810643062,-2.57
1629810643078,-4.8
1629810643093,-7.02
1629810643109,-9.44
1629810643125,-12.3
1629810643140,-15.67
1629810643156,-19.39
1629810643171,-23.1
1629810643187,-26.44
1629810643203,-29.21
1629810643218,-31.54
1629810643234,-33.86
1629810643250,-36.76
1629810643265,-40.75
1629810643281,-46.02
1629810643296,-52.21
1629810643312,-58.4
1629810643328,-63.28
1629810643343,-65.52
1629810643359,-64.13
1629810643375,-58.8
1629810643390,-50.09
1629810643406,-39.24
1629810643421,-27.85
1629810643437,-17.41
1629810643453,-8.92
1629810643468,-2.66
1629810643484,1.7
1629810643500,4.93
1629810643515,7.91
1629810643531,11.29
1629810643546,15.35
1629810643562,20.0
1629810643578,24.82
1629810643593,29.28
1629810643609,32.83
1629810643625,35.09
1629810643640,35.94
1629810643656,35.58
1629810643671,34.45
1629810643687,33.07
1629810643703,31.91
1629810643718,31.21
1629810643734,30.99
1629810643750,31.05
1629810643765,31.17
1629810643781,31.16
1629810643796,30.95
1629810643812,30.47
1629810643828,29.61
1629810643843,28.29
1629810643859,26.41
1629810643875,24.1
1629810643890,21.62
1629810643906,19.34
1629810643921,17.45
1629810643937,15.94
1629810643953,14.57
1629810643968,13.05
1629810643984,11.17
1629810644000,8.93
1629810644015,6.55
1629810644031,4.28
1629810644046,2.29
1629810644062,0.57
1629810644078,-1.05
1629810644093,-2.84
1629810644109,-5.05
1629810644125,-7.81
1629810644140,-11.13
1629810644156,-14.82
1629810644171,-18.63
1629810644187,-22.27
1629810644203,-25.46
1629810644218,-28.05
1629810644234,-30.08
1629810644250,-31.81
1629810644265,-33.65
1629810644281,-36.18
1629810644296,-39.81
1629810644312,-44.67
1629810644328,-50.41
1629810644343,-56.12
1629810644359,-60.59
1629810644375,-62.55
1629810644390,-61.07
1629810644406,-55.82
1629810644421,-47.28
1629810644437,-36.62
1629810644453,-25.44
1629810644468,-15.25
1629810644484,-7.13
1629810644500,-1.41
1629810644515,2.37
1629810644531,5.17
1629810644546,7.99
1629810644562,11.48
1629810644578,15.74
1629810644593,20.36
1629810644609,24.78
1629810644625,28.44
1629810644640,31.06
1629810644656,32.61
1629810644671,33.2
1629810644687,32.99
1629810644703,32.16
1629810644718,30.91
1629810644734,29.49
1629810644750,28.23
1629810644765,27.45
1629810644781,27.36
1629810644796,27.96
1629810644812,28.92
1629810644828,29.71
1629810644843,29.74
1629810644859,28.66
1629810644875,26.46
1629810644890,23.54
1629810644906,20.44
1629810644921,17.65
1629810644937,15.39
1629810644953,13.55
1629810644968,11.87
1629810644984,10.1
1629810645000,8.18
1629810645015,6.2
1629810645031,4.31
1629810645046,2.56
1629810645062,0.89
1629810645078,-0.8
1629810645093,-2.55
1629810645109,-4.31
1629810645125,-6.04
1629810645140,-7.7
1629810645156,-9.41
1629810645171,-11.33
1629810645187,-13.57
1629810645203,-16.17
1629810645218,-19.06
1629810645234,-22.1
1629810645250,-25.2
1629810645265,-28.31
1629810645281,-31.49
1629810645296,-34.83
1629810645312,-38.46
1629810645328,-42.51
1629810645343,-46.96
1629810645359,-51.49
1629810645375,-55.33
1629810645390,-57.33
1629810645406,-56.31
1629810645421,-51.59
1629810645437,-43.38
1629810645453,-32.81
1629810645468,-21.56
1629810645484,-11.2
1629810645500,-2.73
1629810645515,3.6
1629810645531,8.14
1629810645546,11.44
1629810645562,13.97
1629810645578,15.94
1629810645593,17.46
1629810645609,18.7
1629810645625,19.88
1629810645640,21.29
1629810645656,23.05
1629810645671,25.01
1629810645687,26.85
1629810645703,28.19
1629810645718,28.78
1629810645734,28.64
1629810645750,28.02
1629810645765,27.22
1629810645781,26.53
1629810645796,26.02
1629810645812,25.58
1629810645828,25.04
1629810645843,24.22
1629810645859,23.02
1629810645875,21.44
1629810645890,19.52
1629810645906,17.31
1629810645921,14.89
1629810645937,12.4
1629810645953,10.06
1629810645968,8.12
1629810645984,6.75
1629810646000,5.93
1629810646015,5.49
1629810646031,5.03
1629810646046,4.06
1629810646062,2.22
1629810646078,-0.63
1629810646093,-4.27
1629810646109,-8.18
1629810646125,-11.81
1629810646140,-14.8
1629810646156,-17.12
1629810646171,-19.14
1629810646187,-21.39
1629810646203,-24.32
1629810646218,-28.1
1629810646234,-32.65
1629810646250,-37.54
1629810646265,-42.24
1629810646281,-46.0
1629810646296,-48.0
1629810646312,-47.43
1629810646328,-43.79
1629810646343,-37.16
1629810646359,-28.27
1629810646375,-18.51
1629810646390,-9.3
1629810646406,-1.79
1629810646421,3.58
1629810646437,7.09
1629810646453,9.4
1629810646468,11.32
1629810646484,13.4
1629810646500,15.87
1629810646515,18.64
1629810646531,21.46
1629810646546,24.0
1629810646562,26.04
1629810646578,27.47
1629810646593,28.33
1629810646609,28.74
1629810646625,28.84
1629810646640,28.69
1629810646656,28.3
1629810646671,27.71
1629810646687,27.02
1629810646703,26.41
1629810646718,26.0
1629810646734,25.7
1629810646750,25.23
1629810646765,24.23
1629810646781,22.47
1629810646796,20.03
1629810646812,17.34
1629810646828,14.92
1629810646843,13.17
1629810646859,12.12
1629810646875,11.43
1629810646890,10.57
1629810646906,9.1
1629810646921,6.85
1629810646937,3.99
1629810646953,0.87
1629810646968,-2.16
1629810646984,-4.95
1629810647000,-7.53
1629810647015,-10.09
1629810647031,-12.76
1629810647046,-15.6
1629810647062,-18.62
1629810647078,-21.75
1629810647093,-25.03
1629810647109,-28.52
1629810647125,-32.31
1629810647140,-36.41
1629810647156,-40.79
1629810647171,-45.33
1629810647187,-49.8
1629810647203,-53.8
1629810647218,-56.62
1629810647234,-57.41
1629810647250,-55.33
1629810647265,-49.93
1629810647281,-41.45
1629810647296,-30.9
1629810647312,-19.81
1629810647328,-9.72
1629810647343,-1.7
1629810647359,3.96
1629810647375,7.72
1629810647390,10.39
1629810647406,12.77
1629810647421,15.37
1629810647437,18.31
1629810647453,21.45
1629810647468,24.57
1629810647484,27.4
1629810647500,29.8
1629810647515,31.6
1629810647531,32.7
1629810647546,33.05
1629810647562,32.75
1629810647578,32.01
1629810647593,31.17
1629810647609,30.57
1629810647625,30.46
1629810647640,30.92
1629810647656,31.79
1629810647671,32.76
1629810647687,33.38
1629810647703,33.2
1629810647718,31.9
1629810647734,29.46
1629810647750,26.16
1629810647765,22.59
1629810647781,19.39
1629810647796,16.98
1629810647812,15.42
1629810647828,14.43
1629810647843,13.49
1629810647859,12.17
1629810647875,10.24
1629810647890,7.7
1629810647906,4.69
1629810647921,1.39
1629810647937,-2.05
1629810647953,-5.5
1629810647968,-8.84
1629810647984,-11.95
1629810648000,-14.72
1629810648015,-17.16
1629810648031,-19.41
1629810648046,-21.7
1629810648062,-24.22
1629810648078,-27.1
1629810648093,-30.31
1629810648109,-33.69
1629810648125,-37.12
1629810648140,-40.54
1629810648156,-44.01
1629810648171,-47.7
1629810648187,-51.59
1629810648203,-55.36
1629810648218,-58.23
1629810648234,-59.17
1629810648250,-57.23
1629810648265,-52.0
1629810648281,-43.88
1629810648296,-33.97
1629810648312,-23.74
1629810648328,-14.45
1629810648343,-6.84
1629810648359,-1.02
1629810648375,3.41
1629810648390,7.04
1629810648406,10.39
1629810648421,13.83
1629810648437,17.48
1629810648453,21.26
1629810648468,24.98
1629810648484,28.34
1629810648500,31.07
1629810648515,32.99
1629810648531,34.07
1629810648546,34.36
1629810648562,34.06
1629810648578,33.36
1629810648593,32.52
1629810648609,31.77
1629810648625,31.34
1629810648640,31.32
1629810648656,31.67
1629810648671,32.14
1629810648687,32.3
1629810648703,31.78
1629810648718,30.27
1629810648734,27.75
1629810648750,24.51
1629810648765,21.05
1629810648781,17.93
1629810648796,15.59
1629810648812,14.11
1629810648828,13.3
1629810648843,12.72
1629810648859,11.94
1629810648875,10.66
1629810648890,8.82
1629810648906,6.47
1629810648921,3.8
1629810648937,1.02
1629810648953,-1.66
1629810648968,-4.07
1629810648984,-6.18
1629810649000,-8.14
1629810649015,-10.29
1629810649031,-12.97
1629810649046,-16.39
1629810649062,-20.37
1629810649078,-24.48
1629810649093,-28.16
1629810649109,-31.09
1629810649125,-33.37
1629810649140,-35.45
1629810649156,-37.95
1629810649171,-41.33
1629810649187,-45.71
1629810649203,-50.74
1629810649218,-55.63
1629810649234,-59.39
1629810649250,-60.97
1629810649265,-59.56
1629810649281,-54.82
1629810649296,-47.03
1629810649312,-37.1
1629810649328,-26.33
1629810649343,-16.14
1629810649359,-7.58
1629810649375,-1.11
1629810649390,3.46
1629810649406,6.71
1629810649421,9.38
1629810649437,12.04
1629810649453,14.99
1629810649468,18.23
1629810649484,21.6
1629810649500,24.9
1629810649515,27.92
1629810649531,30.46
1629810649546,32.33
1629810649562,33.44
1629810649578,33.8
1629810649593,33.61
1629810649609,33.1
1629810649625,32.55
1629810649640,32.07
1629810649656,31.68
1629810649671,31.32
1629810649687,30.85
1629810649703,30.14
1629810649718,29.06
1629810649734,27.45
1629810649750,25.25
1629810649765,22.54
1629810649781,19.59
1629810649796,16.87
1629810649812,14.82
1629810649828,13.65
1629810649843,13.18
1629810649859,12.9
1629810649875,12.22
1629810649890,10.74
1629810649906,8.46
1629810649921,5.71
1629810649937,2.96
1629810649953,0.54
1629810649968,-1.52
1629810649984,-3.43
1629810650000,-5.55
1629810650015,-8.14
1629810650031,-11.29
1629810650046,-14.86
1629810650062,-18.61
1629810650078,-22.3
1629810650093,-25.71
1629810650109,-28.74
1629810650125,-31.36
1629810650140,-33.67
1629810650156,-35.94
1629810650171,-38.55
1629810650187,-41.87
1629810650203,-46.06
1629810650218,-50.81
1629810650234,-55.31
1629810650250,-58.38
1629810650265,-58.81
1629810650281,-55.84
1629810650296,-49.39
1629810650312,-40.2
1629810650328,-29.53
1629810650343,-18.81
1629810650359,-9.23
1629810650375,-1.43
1629810650390,4.41
1629810650406,8.49
1629810650421,11.16
1629810650437,12.86
1629810650453,13.99
1629810650468,14.96
1629810650484,16.13
1629810650500,17.78
1629810650515,19.98
1629810650531,22.53
1629810650546,25.03
1629810650562,27.01
1629810650578,28.11
1629810650593,28.28
1629810650609,27.78
1629810650625,27.1
1629810650640,26.73
1629810650656,26.93
1629810650671,27.59
1629810650687,28.36
1629810650703,28.8
1629810650718,28.6
1629810650734,27.69
1629810650750,26.21
1629810650765,24.4
1629810650781,22.42
1629810650796,20.37
1629810650812,18.25
1629810650828,16.06
1629810650843,13.81
1629810650859,11.56
1629810650875,9.31
1629810650890,7.03
1629810650906,4.66
1629810650921,2.14
1629810650937,-0.46
1629810650953,-3.04
1629810650968,-5.41
1629810650984,-7.5
1629810651000,-9.32
1629810651015,-11.06
1629810651031,-13.03
1629810651046,-15.49
1629810651062,-18.53
1629810651078,-22.12
1629810651093,-26.09
1629810651109,-30.33
1629810651125,-34.79
1629810651140,-39.39
1629810651156,-43.8
1629810651171,-47.27
1629810651187,-48.74
1629810651203,-47.25
1629810651218,-42.38
1629810651234,-34.55
1629810651250,-24.96
1629810651265,-15.13
1629810651281,-6.46
1629810651296,0.3
1629810651312,5.11
1629810651328,8.44
1629810651343,10.98
1629810651359,13.25
1629810651375,15.58
1629810651390,18.0
1629810651406,20.41
1629810651421,22.68
1629810651437,24.68
1629810651453,26.34
1629810651468,27.61
1629810651484,28.43
1629810651500,28.75
1629810651515,28.55
1629810651531,27.9
1629810651546,26.97
1629810651562,26.06
1629810651578,25.42
1629810651593,25.14
1629810651609,25.02
1629810651625,24.68
1629810651640,23.67
1629810651656,21.78
1629810651671,19.08
1629810651687,15.92
1629810651703,12.72
1629810651718,9.9
1629810651734,7.64
1629810651750,6.03
1629810651765,5.0
1629810651781,4.35
1629810651796,3.74
1629810651812,2.74
1629810651828,0.92
1629810651843,-1.96
1629810651859,-5.83
1629810651875,-10.26
1629810651890,-14.63
1629810651906,-18.45
1629810651921,-21.49
1629810651937,-23.87
1629810651953,-25.97
1629810651968,-28.24
1629810651984,-31.09
1629810652000,-34.8
1629810652015,-39.41
1629810652031,-44.65
1629810652046,-49.9
1629810652062,-54.17
1629810652078,-56.32
1629810652093,-55.31
1629810652109,-50.69
1629810652125,-42.76
1629810652140,-32.63
1629810652156,-21.88
1629810652171,-12.1
1629810652187,-4.38
1629810652203,0.9
1629810652218,4.16
1629810652234,6.23
1629810652250,8.01
1629810652265,10.18
1629810652281,13.02
1629810652296,16.47
1629810652312,20.27
1629810652328,24.14
1629810652343,27.78
1629810652359,30.93
1629810652375,33.35
1629810652390,34.9
1629810652406,35.62
1629810652421,35.64
1629810652437,35.25
1629810652453,34.74
1629810652468,34.27
1629810652484,33.89
1629810652500,33.53
1629810652515,33.04
1629810652531,32.29
1629810652546,31.19
1629810652562,29.7
1629810652578,27.86
1629810652593,25.81
1629810652609,23.72
1629810652625,21.78
1629810652640,19.97
1629810652656,18.15
1629810652671,15.98
1629810652687,13.26
1629810652703,9.97
1629810652718,6.4
1629810652734,2.94
1629810652750,-0.08
1629810652765,-2.57
1629810652781,-4.76
1629810652796,-7.07
1629810652812,-9.91
1629810652828,-13.4
1629810652843,-17.41
1629810652859,-21.53
1629810652875,-25.35
1629810652890,-28.68
1629810652906,-31.49
1629810652921,-34.08
1629810652937,-36.82
1629810652953,-40.1
1629810652968,-44.12
1629810652984,-48.88
1629810653000,-54.02
1629810653015,-58.84
1629810653031,-62.39
1629810653046,-63.58
1629810653062,-61.59
1629810653078,-56.15
1629810653093,-47.7
1629810653109,-37.34
1629810653125,-26.5
1629810653140,-16.45
1629810653156,-7.94
1629810653171,-1.21
1629810653187,4.02
1629810653203,8.22
1629810653218,11.87
1629810653234,15.39
1629810653250,19.05
1629810653265,22.99
1629810653281,27.19
1629810653296,31.44
1629810653312,35.26
1629810653328,38.14
1629810653343,39.7
1629810653359,39.84
1629810653375,38.87
1629810653390,37.28
1629810653406,35.61
1629810653421,34.28
1629810653437,33.46
1629810653453,33.08
1629810653468,32.97
1629810653484,32.88
1629810653500,32.55
1629810653515,31.81
1629810653531,30.51
1629810653546,28.67
1629810653562,26.44
1629810653578,24.05
1629810653593,21.71
1629810653609,19.52
1629810653625,17.39
1629810653640,15.11
1629810653656,12.52
1629810653671,9.62
1629810653687,6.63
1629810653703,3.91
1629810653718,1.7
1629810653734,0.03
1629810653750,-1.29
1629810653765,-2.67
1629810653781,-4.46
1629810653796,-6.88
1629810653812,-9.89
1629810653828,-13.32
1629810653843,-16.98
1629810653859,-20.75
1629810653875,-24.53
1629810653890,-28.27
1629810653906,-31.85
1629810653921,-35.18
1629810653937,-38.34
1629810653953,-41.55
1629810653968,-45.19
1629810653984,-49.51
1629810654000,-54.31
1629810654015,-58.78
1629810654031,-61.66
1629810654046,-61.65
1629810654062,-57.97
1629810654078,-50.69
1629810654093,-40.87
1629810654109,-30.12
1629810654125,-20.09
1629810654140,-11.91
1629810654156,-5.88
1629810654171,-1.58
1629810654187,1.82
1629810654203,5.18
1629810654218,9.0
1629810654234,13.35
1629810654250,17.98
1629810654265,22.54
1629810654281,26.76
1629810654296,30.46
1629810654312,33.53
1629810654328,35.82
1629810654343,37.17
1629810654359,37.48
1629810654375,36.93
1629810654390,35.85
1629810654406,34.73
1629810654421,33.93
1629810654437,33.52
1629810654453,33.33
1629810654468,33.02
1629810654484,32.28
1629810654500,30.98
1629810654515,29.19
1629810654531,27.11
1629810654546,24.95
1629810654562,22.93
1629810654578,21.18
1629810654593,19.81
1629810654609,18.76
1629810654625,17.83
1629810654640,16.7
1629810654656,15.05
1629810654671,12.7
1629810654687,9.74
1629810654703,6.45
1629810654718,3.2
1629810654734,0.23
1629810654750,-2.44
1629810654765,-5.02
1629810654781,-7.75
1629810654796,-10.77
1629810654812,-14.07
1629810654828,-17.45
1629810654843,-20.74
1629810654859,-23.83
1629810654875,-26.69
1629810654890,-29.35
1629810654906,-31.84
1629810654921,-34.21
1629810654937,-36.68
1629810654953,-39.58
1629810654968,-43.28
1629810654984,-47.91
1629810655000,-53.14
1629810655015,-58.04
1629810655031,-61.27
1629810655046,-61.5
1629810655062,-57.95
1629810655078,-50.71
1629810655093,-40.79
1629810655109,-29.76
1629810655125,-19.24
1629810655140,-10.4
1629810655156,-3.67
1629810655171,1.18
1629810655187,4.77
1629810655203,7.76
1629810655218,10.6
1629810655234,13.5
1629810655250,16.46
1629810655265,19.48
1629810655281,22.55
1629810655296,25.66
1629810655312,28.66
1629810655328,31.25
1629810655343,33.07
1629810655359,33.84
1629810655375,33.6
1629810655390,32.65
1629810655406,31.5
1629810655421,30.59
1629810655437,30.11
1629810655453,29.96
1629810655468,29.78
1629810655484,29.18
1629810655500,27.94
1629810655515,26.12
1629810655531,24.01
1629810655546,22.0
1629810655562,20.41
1629810655578,19.33
1629810655593,18.56
1629810655609,17.74
1629810655625,16.43
1629810655640,14.4
1629810655656,11.71
1629810655671,8.69
1629810655687,5.79
1629810655703,3.3
1629810655718,1.24
1629810655734,-0.64
1629810655750,-2.69
1629810655765,-5.15
1629810655781,-8.02
1629810655796,-11.1
1629810655812,-14.13
1629810655828,-16.94
1629810655843,-19.53
1629810655859,-22.07
1629810655875,-24.79
1629810655890,-27.97
1629810655906,-31.75
1629810655921,-36.14
1629810655937,-40.86
1629810655953,-45.33
1629810655968,-48.71
1629810655984,-50.07
1629810656000,-48.69
1629810656015,-44.3
1629810656031,-37.24
1629810656046,-28.38
1629810656062,-18.92
1629810656078,-10.0
1629810656093,-2.46
1629810656109,3.39
1629810656125,7.66
1629810656140,10.79
1629810656156,13.29
1629810656171,15.48
1629810656187,17.53
1629810656203,19.38
1629810656218,20.9
1629810656234,22.0
1629810656250,22.71
1629810656265,23.14
1629810656281,23.46
1629810656296,23.8
1629810656312,24.18
1629810656328,24.5
1629810656343,24.63
1629810656359,24.55
1629810656375,24.34
1629810656390,24.16
1629810656406,24.14
1629810656421,24.24
1629810656437,24.14
1629810656453,23.46
1629810656468,21.88
1629810656484,19.36
1629810656500,16.21
1629810656515,12.96
1629810656531,10.18
1629810656546,8.17
1629810656562,6.92
1629810656578,6.09
1629810656593,5.21
1629810656609,3.88
1629810656625,1.83
1629810656640,-0.97
1629810656656,-4.35
1629810656671,-8.03
1629810656687,-11.74
1629810656703,-15.25
1629810656718,-18.49
1629810656734,-21.57
1629810656750,-24.71
1629810656765,-28.16
1629810656781,-32.12
1629810656796,-36.5
1629810656812,-40.89
1629810656828,-44.6
1629810656843,-46.71
1629810656859,-46.42
1629810656875,-43.26
1629810656890,-37.36
1629810656906,-29.43
1629810656921,-20.58
1629810656937,-11.98
1629810656953,-4.54
1629810656968,1.26
1629810656984,5.38
1629810657000,8.12
1629810657015,9.98
1629810657031,11.5
1629810657046,13.22
1629810657062,15.47
1629810657078,18.38
1629810657093,21.76
1629810657109,25.22
1629810657125,28.27
1629810657140,30.51
1629810657156,31.79
1629810657171,32.15
1629810657187,31.84
1629810657203,31.13
1629810657218,30.27
1629810657234,29.45
1629810657250,28.7
1629810657265,27.98
1629810657281,27.13
1629810657296,26.03
1629810657312,24.6
1629810657328,22.89
1629810657343,21.0
1629810657359,19.06
1629810657375,17.15
1629810657390,15.23
1629810657406,13.3
1629810657421,11.33
1629810657437,9.42
1629810657453,7.65
1629810657468,6.04
1629810657484,4.52
1629810657500,2.93
1629810657515,1.04
1629810657531,-1.34
1629810657546,-4.27
1629810657562,-7.7
1629810657578,-11.41
1629810657593,-15.13
1629810657609,-18.66
1629810657625,-21.95
1629810657640,-25.15
1629810657656,-28.58
1629810657671,-32.6
1629810657687,-37.41
1629810657703,-42.9
1629810657718,-48.66
1629810657734,-53.95
1629810657750,-57.86
1629810657765,-59.46
1629810657781,-58.03
1629810657796,-53.26
1629810657812,-45.47
1629810657828,-35.59
1629810657843,-25.0
1629810657859,-15.15
1629810657875,-7.14
1629810657890,-1.37
1629810657906,2.49
1629810657921,5.25
1629810657937,7.84
1629810657953,10.93
1629810657968,14.74
1629810657984,19.13
1629810658000,23.67
1629810658015,27.91
1629810658031,31.47
1629810658046,34.1
1629810658062,35.65
1629810658078,36.13
1629810658093,35.66
1629810658109,34.54
1629810658125,33.2
1629810658140,32.15
1629810658156,31.72
1629810658171,31.95
1629810658187,32.54
1629810658203,32.94
1629810658218,32.6
1629810658234,31.15
1629810658250,28.61
1629810658265,25.35
1629810658281,21.98
1629810658296,19.05
1629810658312,16.85
1629810658328,15.31
1629810658343,14.07
1629810658359,12.68
1629810658375,10.83
1629810658390,8.47
1629810658406,5.8
1629810658421,3.21
1629810658437,0.96
1629810658453,-0.92
1629810658468,-2.7
1629810658484,-4.83
1629810658500,-7.74
1629810658515,-11.54
1629810658531,-16.0
1629810658546,-20.61
1629810658562,-24.81
1629810658578,-28.27
1629810658593,-31.03
1629810658609,-33.4
1629810658625,-35.89
1629810658640,-38.88
1629810658656,-42.59
1629810658671,-46.94
1629810658687,-51.58
1629810658703,-55.87
1629810658718,-58.94
1629810658734,-59.8
1629810658750,-57.64
1629810658765,-52.16
1629810658781,-43.76
1629810658796,-33.56
1629810658812,-23.04
1629810658828,-13.59
1629810658843,-5.98
1629810658859,-0.27
1629810658875,4.14
1629810658890,8.1
1629810658906,12.29
1629810658921,16.99
1629810658937,22.02
1629810658953,26.89
1629810658968,31.09
1629810658984,34.29
1629810659000,36.36
1629810659015,37.34
1629810659031,37.37
1629810659046,36.6
1629810659062,35.2
1629810659078,33.4
1629810659093,31.51
1629810659109,29.98
1629810659125,29.16
1629810659140,29.16
1629810659156,29.77
1629810659171,30.43
1629810659187,30.49
1629810659203,29.49
1629810659218,27.32
1629810659234,24.31
1629810659250,21.03
1629810659265,18.04
1629810659281,15.63
1629810659296,13.71
1629810659312,11.95
1629810659328,9.94
1629810659343,7.47
1629810659359,4.65
1629810659375,1.83
1629810659390,-0.65
1629810659406,-2.58
1629810659421,-4.07
1629810659437,-5.48
1629810659453,-7.22
1629810659468,-9.56
1629810659484,-12.55
1629810659500,-15.94
1629810659515,-19.4
1629810659531,-22.71
1629810659546,-25.81
1629810659562,-28.81
1629810659578,-31.9
1629810659593,-35.29
1629810659609,-39.07
1629810659625,-43.27
1629810659640,-47.76
1629810659656,-52.19
1629810659671,-55.94
1629810659687,-58.09
1629810659703,-57.62
1629810659718,-53.78
1629810659734,-46.51
1629810659750,-36.63
1629810659765,-25.69
1629810659781,-15.43
1629810659796,-7.16
1629810659812,-1.33
1629810659828,2.47
1629810659843,5.16
1629810659859,7.69
1629810659875,10.6
1629810659890,13.98
1629810659906,17.53
1629810659921,20.85
1629810659937,23.64
1629810659953,25.76
1629810659968,27.19
1629810659984,27.92
1629810660000,28.04
1629810660015,27.68
1629810660031,27.05
1629810660046,26.43
1629810660062,26.06
1629810660078,26.05
1629810660093,26.35
1629810660109,26.79
1629810660125,27.07
1629810660140,26.92
1629810660156,26.1
1629810660171,24.48
1629810660187,22.15
1629810660203,19.32
1629810660218,16.32
1629810660234,13.54
1629810660250,11.26
1629810660265,9.6
1629810660281,8.49
1629810660296,7.62
1629810660312,6.61
1629810660328,5.15
1629810660343,3.06
1629810660359,0.41
1629810660375,-2.56
1629810660390,-5.54
1629810660406,-8.3
1629810660421,-10.77
1629810660437,-13.13
1629810660453,-15.68
1629810660468,-18.68
1629810660484,-22.33
1629810660500,-26.57
1629810660515,-31.25
1629810660531,-36.07
1629810660546,-40.57
1629810660562,-44.13
1629810660578,-45.96
1629810660593,-45.3
1629810660609,-41.7
1629810660625,-35.28
1629810660640,-26.84
1629810660656,-17.68
1629810660671,-9.17
1629810660687,-2.34
1629810660703,2.52
1629810660718,5.77
1629810660734,8.14
1629810660750,10.39
1629810660765,13.0
1629810660781,16.02
1629810660796,19.21
1629810660812,22.14
1629810660828,24.41
1629810660843,25.83
1629810660859,26.39
1629810660875,26.26
1629810660890,25.65
1629810660906,24.78
1629810660921,23.77
1629810660937,22.81
1629810660953,22.04
1629810660968,21.69
1629810660984,21.86
1629810661000,22.44
1629810661015,22.97
1629810661031,22.86
1629810661046,21.63
1629810661062,19.19
1629810661078,15.95
1629810661093,12.59
1629810661109,9.78
1629810661125,7.8
1629810661140,6.51
1629810661156,5.47
1629810661171,4.2
1629810661187,2.35
1629810661203,-0.2
1629810661218,-3.4
1629810661234,-7.03
1629810661250,-10.81
1629810661265,-14.36
1629810661281,-17.4
1629810661296,-19.79
1629810661312,-21.69
1629810661328,-23.55
1629810661343,-25.96
1629810661359,-29.45
1629810661375,-34.17
1629810661390,-39.86
1629810661406,-45.66
1629810661421,-50.4
1629810661437,-52.8
1629810661453,-51.87
1629810661468,-47.26
1629810661484,-39.43
1629810661500,-29.56
1629810661515,-19.2
1629810661531,-9.83
1629810661546,-2.36
1629810661562,2.94
1629810661578,6.49
1629810661593,9.05
1629810661609,11.4
1629810661625,14.14
1629810661640,17.53
1629810661656,21.56
1629810661671,25.95
1629810661687,30.3
1629810661703,34.1
1629810661718,36.89
1629810661734,38.39
1629810661750,38.54
1629810661765,37.61
1629810661781,36.06
1629810661796,34.39
1629810661812,32.94
1629810661828,31.85
1629810661843,31.02
1629810661859,30.24
1629810661875,29.3
1629810661890,28.07
1629810661906,26.58
1629810661921,24.94
1629810661937,23.24
1629810661953,21.52
1629810661968,19.66
1629810661984,17.51
1629810662000,14.97
1629810662015,12.01
1629810662031,8.81
1629810662046,5.67
1629810662062,2.91
1629810662078,0.7
1629810662093,-0.97
1629810662109,-2.38
1629810662125,-3.94
1629810662140,-6.02
1629810662156,-8.79
1629810662171,-12.23
1629810662187,-16.09
1629810662203,-20.05
1629810662218,-23.85
1629810662234,-27.28
1629810662250,-30.32
1629810662265,-33.07
1629810662281,-35.76
1629810662296,-38.68
1629810662312,-42.25
1629810662328,-46.69
1629810662343,-51.88
1629810662359,-57.11
1629810662375,-61.12
1629810662390,-62.41
1629810662406,-59.84
1629810662421,-53.12
1629810662437,-43.09
1629810662453,-31.45
1629810662468,-20.19
1629810662484,-10.93
1629810662500,-4.36
1629810662515,-0.14
1629810662531,2.73
1629810662546,5.41
1629810662562,8.76
1629810662578,13.01
1629810662593,17.9
1629810662609,22.95
1629810662625,27.63
1629810662640,31.57
1629810662656,34.6
1629810662671,36.63
1629810662687,37.68
1629810662703,37.76
1629810662718,37.03
1629810662734,35.78
1629810662750,34.44
1629810662765,33.38
1629810662781,32.79
1629810662796,32.61
1629810662812,32.53
1629810662828,32.18
1629810662843,31.28
1629810662859,29.73
1629810662875,27.66
1629810662890,25.31
1629810662906,22.91
1629810662921,20.66
1629810662937,18.62
1629810662953,16.77
1629810662968,15.02
1629810662984,13.27
1629810663000,11.38
1629810663015,9.26
1629810663031,6.85
1629810663046,4.2
1629810663062,1.46
1629810663078,-1.19
1629810663093,-3.68
1629810663109,-6.04
1629810663125,-8.53
1629810663140,-11.44
1629810663156,-14.96
1629810663171,-19.02
1629810663187,-23.27
1629810663203,-27.18
1629810663218,-30.39
1629810663234,-32.92
1629810663250,-35.24
1629810663265,-38.12
1629810663281,-42.24
1629810663296,-47.82
1629810663312,-54.44
1629810663328,-61.03
1629810663343,-66.19
1629810663359,-68.57
1629810663375,-67.25
1629810663390,-61.98
1629810663406,-53.33
1629810663421,-42.47
1629810663437,-30.92
1629810663453,-20.16
1629810663468,-11.18
1629810663484,-4.28
1629810663500,0.83
1629810663515,4.86
1629810663531,8.58
1629810663546,12.48
1629810663562,16.72
1629810663578,21.11
1629810663593,25.3
1629810663609,29.0
1629810663625,31.95
1629810663640,34.0
1629810663656,35.08
1629810663671,35.3
1629810663687,34.8
1629810663703,33.9
1629810663718,32.87
1629810663734,31.93
1629810663750,31.15
1629810663765,30.43
1629810663781,29.65
1629810663796,28.67
1629810663812,27.47
1629810663828,26.08
1629810663843,24.55
1629810663859,22.91
1629810663875,21.07
1629810663890,18.98
1629810663906,16.58
1629810663921,13.93
1629810663937,11.18
1629810663953,8.56
1629810663968,6.25
1629810663984,4.36
1629810664000,2.87
1629810664015,1.61
1629810664031,0.29
1629810664046,-1.34
1629810664062,-3.41
1629810664078,-5.87
1629810664093,-8.5
1629810664109,-11.1
1629810664125,-13.6
1629810664140,-16.05
1629810664156,-18.63
1629810664171,-21.52
1629810664187,-24.83
1629810664203,-28.55
1629810664218,-32.63
1629810664234,-36.95
1629810664250,-41.31
1629810664265,-45.29
1629810664281,-48.22
1629810664296,-49.25
1629810664312,-47.62
1629810664328,-43.02
1629810664343,-35.86
1629810664359,-27.23
1629810664375,-18.53
1629810664390,-10.94
1629810664406,-5.07
1629810664421,-0.75
1629810664437,2.62
1629810664453,5.75
1629810664468,9.08
1629810664484,12.64
1629810664500,16.17
1629810664515,19.42
1629810664531,22.25
1629810664546,24.66
1629810664562,26.64
1629810664578,28.12
1629810664593,28.94
1629810664609,28.97
1629810664625,28.28
1629810664640,27.12
1629810664656,25.88
1629810664671,24.88
1629810664687,24.3
1629810664703,24.05
1629810664718,23.84
1629810664734,23.29
1629810664750,22.1
1629810664765,20.17
1629810664781,17.6
1629810664796,14.69
1629810664812,11.8
1629810664828,9.24
1629810664843,7.17
1629810664859,5.56
1629810664875,4.2
1629810664890,2.77
1629810664906,0.94
1629810664921,-1.5
1629810664937,-4.6
1629810664953,-8.16
1629810664968,-11.84
1629810664984,-15.2
1629810665000,-17.98
1629810665015,-20.11
1629810665031,-21.83
1629810665046,-23.56
1629810665062,-25.74
1629810665078,-28.7
1629810665093,-32.52
1629810665109,-36.98
1629810665125,-41.5
1629810665140,-45.19
1629810665156,-46.97
1629810665171,-45.97
1629810665187,-41.77
1629810665203,-34.74
1629810665218,-25.93
1629810665234,-16.78
1629810665250,-8.58
1629810665265,-2.05
1629810665281,2.79
1629810665296,6.51
1629810665312,9.83
1629810665328,13.28
1629810665343,17.07
1629810665359,21.0
1629810665375,24.76
1629810665390,28.0
1629810665406,30.5
1629810665421,32.14
1629810665437,32.97
1629810665453,33.16
1629810665468,32.91
1629810665484,32.5
1629810665500,32.03
1629810665515,31.61
1629810665531,31.21
1629810665546,30.79
1629810665562,30.29
1629810665578,29.62
1629810665593,28.75
1629810665609,27.55
1629810665625,25.95
1629810665640,23.83
1629810665656,21.18
1629810665671,18.05
1629810665687,14.64
1629810665703,11.23
1629810665718,8.1
1629810665734,5.44
1629810665750,3.21
1629810665765,1.22
1629810665781,-0.86
1629810665796,-3.26
1629810665812,-6.08
1629810665828,-9.29
1629810665843,-12.71
1629810665859,-16.12
1629810665875,-19.35
1629810665890,-22.27
1629810665906,-24.81
1629810665921,-27.01
1629810665937,-29.07
1629810665953,-31.35
1629810665968,-34.3
1629810665984,-38.27
1629810666000,-43.27
1629810666015,-48.76
1629810666031,-53.75
1629810666046,-56.96
1629810666062,-57.32
1629810666078,-54.27
1629810666093,-48.05
1629810666109,-39.6
1629810666125,-30.21
1629810666140,-21.14
1629810666156,-13.24
1629810666171,-6.77
1629810666187,-1.5
1629810666203,3.11
1629810666218,7.6
1629810666234,12.27
1629810666250,17.12
1629810666265,21.96
1629810666281,26.46
1629810666296,30.34
1629810666312,33.36
1629810666328,35.4
1629810666343,36.44
1629810666359,36.56
1629810666375,36.0
1629810666390,35.1
1629810666406,34.25
1629810666421,33.72
1629810666437,33.64
1629810666453,33.87
1629810666468,34.12
1629810666484,34.09
1629810666500,33.52
1629810666515,32.36
1629810666531,30.68
1629810666546,28.63
1629810666562,26.38
1629810666578,24.11
1629810666593,21.89
1629810666609,19.7
1629810666625,17.41
1629810666640,14.84
1629810666656,11.91
1629810666671,8.72
1629810666687,5.51
1629810666703,2.59
1629810666718,0.15
1629810666734,-1.95
1629810666750,-4.03
1629810666765,-6.51
1629810666781,-9.65
1629810666796,-13.39
1629810666812,-17.45
1629810666828,-21.48
1629810666843,-25.26
1629810666859,-28.8
1629810666875,-32.28
1629810666890,-35.95
1629810666906,-39.94
1629810666921,-44.37
1629810666937,-49.17
1629810666953,-54.2
1629810666968,-59.03
1629810666984,-62.93
1629810667000,-64.95
1629810667015,-64.11
1629810667031,-59.85
1629810667046,-52.27
1629810667062,-42.3
1629810667078,-31.39
1629810667093,-21.08
1629810667109,-12.45
1629810667125,-5.84
1629810667140,-0.91
1629810667156,3.13
1629810667171,7.04
1629810667187,11.32
1629810667203,16.04
1629810667218,20.96
1629810667234,25.7
1629810667250,29.91
1629810667265,33.34
1629810667281,35.87
1629810667296,37.48
1629810667312,38.21
1629810667328,38.19
1629810667343,37.6
1629810667359,36.65
1629810667375,35.57
1629810667390,34.52
1629810667406,33.57
1629810667421,32.62
1629810667437,31.51
1629810667453,30.03
1629810667468,28.07
1629810667484,25.66
1629810667500,23.04
1629810667515,20.56
1629810667531,18.5
1629810667546,16.95
1629810667562,15.74
1629810667578,14.54
1629810667593,12.97
1629810667609,10.86
1629810667625,8.27
1629810667640,5.44
1629810667656,2.6
1629810667671,-0.14
1629810667687,-2.88
1629810667703,-5.84
1629810667718,-9.21
1629810667734,-12.98
1629810667750,-16.91
1629810667765,-20.63
1629810667781,-23.8
1629810667796,-26.3
1629810667812,-28.24
1629810667828,-29.96
1629810667843,-31.93
1629810667859,-34.61
1629810667875,-38.28
1629810667890,-42.95
1629810667906,-48.21
1629810667921,-53.23
1629810667937,-56.88
1629810667953,-58.06
1629810667968,-56.01
1629810667984,-50.6
1629810668000,-42.45
1629810668015,-32.72
1629810668031,-22.76
1629810668046,-13.7
1629810668062,-6.18
1629810668078,-0.32
1629810668093,4.25
1629810668109,8.05
1629810668125,11.6
1629810668140,15.22
1629810668156,18.98
1629810668171,22.71
1629810668187,26.09
1629810668203,28.81
1629810668218,30.67
1629810668234,31.57
1629810668250,31.64
1629810668265,31.1
1629810668281,30.22
1629810668296,29.24
1629810668312,28.3
1629810668328,27.43
1629810668343,26.58
1629810668359,25.67
1629810668375,24.65
1629810668390,23.53
1629810668406,22.29
1629810668421,20.91
1629810668437,19.32
1629810668453,17.48
1629810668468,15.37
1629810668484,13.15
1629810668500,11.06
1629810668515,9.3
1629810668531,7.98
1629810668546,6.9
1629810668562,5.71
1629810668578,3.97
1629810668593,1.45
1629810668609,-1.77
1629810668625,-5.26
1629810668640,-8.49
1629810668656,-11.16
1629810668671,-13.28
1629810668687,-15.32
1629810668703,-17.93
1629810668718,-21.62
1629810668734,-26.54
1629810668750,-32.43
1629810668765,-38.63
1629810668781,-44.21
1629810668796,-48.23
1629810668812,-49.81
1629810668828,-48.36
1629810668843,-43.73
1629810668859,-36.33
1629810668875,-27.15
1629810668890,-17.48
1629810668906,-8.64
1629810668921,-1.52
1629810668937,3.59
1629810668953,7.07
1629810668968,9.66
1629810668984,12.15
1629810669000,15.06
1629810669015,18.46
1629810669031,21.94
1629810669046,24.96
1629810669062,27.02
1629810669078,27.95
1629810669093,27.99
1629810669109,27.63
1629810669125,27.33
1629810669140,27.31
1629810669156,27.47
1629810669171,27.59
1629810669187,27.5
1629810669203,27.25
1629810669218,27.04
1629810669234,27.02
1629810669250,27.07
1629810669265,26.75
1629810669281,25.52
1629810669296,22.98
1629810669312,19.18
1629810669328,14.65
1629810669343,10.19
1629810669359,6.51
1629810669375,3.93
1629810669390,2.3
1629810669406,1.1
1629810669421,-0.31
1629810669437,-2.37
1629810669453,-5.2
1629810669468,-8.61
1629810669484,-12.23
1629810669500,-15.7
1629810669515,-18.79
1629810669531,-21.48
1629810669546,-23.91
1629810669562,-26.4
1629810669578,-29.31
1629810669593,-32.98
1629810669609,-37.61
1629810669625,-43.0
1629810669640,-48.52
1629810669656,-53.02
1629810669671,-55.24
1629810669687,-54.13
1629810669703,-49.3
1629810669718,-41.26
1629810669734,-31.31
1629810669750,-21.07
1629810669765,-11.95
1629810669781,-4.67
1629810669796,0.79
1629810669812,5.04
1629810669828,8.83
1629810669843,12.7
1629810669859,16.85
1629810669875,21.18
1629810669890,25.46
1629810669906,29.4
1629810669921,32.79
1629810669937,35.43
1629810669953,37.14
1629810669968,37.89
1629810669984,37.74
1629810670000,36.95
1629810670015,35.86
1629810670031,34.84
1629810670046,34.11
1629810670062,33.68
1629810670078,33.38
1629810670093,32.96
1629810670109,32.17
1629810670125,30.91
1629810670140,29.2
1629810670156,27.2
1629810670171,25.07
1629810670187,23.01
1629810670203,21.1
1629810670218,19.32
1629810670234,17.59
1629810670250,15.71
1629810670265,13.52
1629810670281,10.93
1629810670296,7.97
1629810670312,4.78
1629810670328,1.56
1629810670343,-1.58
1629810670359,-4.66
1629810670375,-7.79
1629810670390,-11.14
1629810670406,-14.75
1629810670421,-18.5
1629810670437,-22.18
1629810670453,-25.61
1629810670468,-28.75
1629810670484,-31.78
1629810670500,-34.99
1629810670515,-38.71
1629810670531,-43.18
1629810670546,-48.43
1629810670562,-54.17
1629810670578,-59.76
1629810670593,-64.21
1629810670609,-66.35
1629810670625,-65.17
1629810670640,-60.24
1629810670656,-51.95
1629810670671,-41.53
1629810670687,-30.61
1629810670703,-20.67
1629810670718,-12.53
1629810670734,-6.17
1629810670750,-0.98
1629810670765,3.83
1629810670781,8.77
1629810670796,14.0
1629810670812,19.32
1629810670828,24.44
1629810670843,29.15
1629810670859,33.27
1629810670875,36.65
1629810670890,39.01
1629810670906,40.12
1629810670921,39.87
1629810670937,38.5
1629810670953,36.53
1629810670968,34.68
1629810670984,33.51
1629810671000,33.25
1629810671015,33.79
1629810671031,34.65
1629810671046,35.3
1629810671062,35.31
1629810671078,34.44
1629810671093,32.72
1629810671109,30.28
1629810671125,27.34
1629810671140,24.11
1629810671156,20.89
1629810671171,17.93
1629810671187,15.43
1629810671203,13.44
1629810671218,11.8
1629810671234,10.27
1629810671250,8.49
1629810671265,6.29
1629810671281,3.65
1629810671296,0.77
1629810671312,-2.2
1629810671328,-5.15
1629810671343,-8.17
1629810671359,-11.38
1629810671375,-14.82
1629810671390,-18.4
1629810671406,-21.9
1629810671421,-25.13
1629810671437,-28.03
1629810671453,-30.71
1629810671468,-33.46
1629810671484,-36.6
1629810671500,-40.45
1629810671515,-45.16
1629810671531,-50.68
1629810671546,-56.52
1629810671562,-61.82
1629810671578,-65.46
1629810671593,-66.26
1629810671609,-63.48
1629810671625,-57.04
1629810671640,-47.77
1629810671656,-37.13
1629810671671,-26.71
1629810671687,-17.76
1629810671703,-10.83
1629810671718,-5.68
1629810671734,-1.56
1629810671750,2.36
1629810671765,6.73
1629810671781,11.74
1629810671796,17.2
1629810671812,22.75
1629810671828,27.91
1629810671843,32.24
1629810671859,35.41
1629810671875,37.19
1629810671890,37.58
1629810671906,36.8
1629810671921,35.25
1629810671937,33.41
1629810671953,31.73
1629810671968,30.48
1629810671984,29.73
1629810672000,29.35
1629810672015,29.08
1629810672031,28.6
1629810672046,27.71
1629810672062,26.31
1629810672078,24.43
1629810672093,22.22
1629810672109,19.82
1629810672125,17.35
1629810672140,14.84
1629810672156,12.34
1629810672171,9.92
1629810672187,7.73
1629810672203,5.87
1629810672218,4.31
1629810672234,2.83
1629810672250,1.12
1629810672265,-1.13
1629810672281,-4.01
1629810672296,-7.34
1629810672312,-10.8
1629810672328,-14.03
1629810672343,-16.82
1629810672359,-19.21
1629810672375,-21.43
1629810672390,-23.86
1629810672406,-26.84
1629810672421,-30.55
1629810672437,-34.94
1629810672453,-39.65
1629810672468,-44.1
1629810672484,-47.54
1629810672500,-49.22
1629810672515,-48.48
1629810672531,-45.01
1629810672546,-38.97
1629810672562,-30.99
1629810672578,-22.07
1629810672593,-13.31
1629810672609,-5.61
1629810672625,0.56
1629810672640,5.21
1629810672656,8.79
1629810672671,11.86
1629810672687,14.93
1629810672703,18.25
1629810672718,21.81
1629810672734,25.34
1629810672750,28.52
1629810672765,30.98
1629810672781,32.42
1629810672796,32.74
1629810672812,32.02
1629810672828,30.57
1629810672843,28.85
1629810672859,27.28
1629810672875,26.2
1629810672890,25.7
1629810672906,25.68
1629810672921,25.83
1629810672937,25.81
1629810672953,25.24
1629810672968,23.87
1629810672984,21.59
1629810673000,18.49
1629810673015,14.85
1629810673031,11.09
1629810673046,7.61
1629810673062,4.65
1629810673078,2.21
1629810673093,0.01
1629810673109,-2.28
1629810673125,-4.9
1629810673140,-7.85
1629810673156,-10.9
1629810673171,-13.7
1629810673187,-16.02
1629810673203,-17.77
1629810673218,-19.14
1629810673234,-20.48
1629810673250,-22.27
1629810673265,-24.87
1629810673281,-28.54
1629810673296,-33.28
1629810673312,-38.62
1629810673328,-43.78
1629810673343,-47.62
1629810673359,-49.02
1629810673375,-47.19
1629810673390,-42.02
1629810673406,-34.12
1629810673421,-24.74
1629810673437,-15.31
1629810673453,-7.04
1629810673468,-0.61
1629810673484,3.97
1629810673500,7.21
1629810673515,9.86
1629810673531,12.63
1629810673546,15.9
1629810673562,19.64
1629810673578,23.54
1629810673593,27.12
1629810673609,30.0
1629810673625,32.01
1629810673640,33.18
1629810673656,33.66
1629810673671,33.64
1629810673687,33.24
1629810673703,32.53
1629810673718,31.62
1629810673734,30.67
1629810673750,29.87
1629810673765,29.33
1629810673781,28.98
1629810673796,28.51
1629810673812,27.58
1629810673828,25.9
1629810673843,23.45
1629810673859,20.41
1629810673875,17.18
1629810673890,14.09
1629810673906,11.33
1629810673921,8.92
1629810673937,6.77
1629810673953,4.77
1629810673968,2.81
1629810673984,0.85
1629810674000,-1.2
1629810674015,-3.47
1629810674031,-6.11
1629810674046,-9.23
1629810674062,-12.78
1629810674078,-16.54
1629810674093,-20.2
1629810674109,-23.45
1629810674125,-26.15
1629810674140,-28.49
1629810674156,-30.9
1629810674171,-33.93
1629810674187,-38.01
1629810674203,-43.19
1629810674218,-49.04
1629810674234,-54.63
1629810674250,-58.75
1629810674265,-60.22
1629810674281,-58.25
1629810674296,-52.69
1629810674312,-44.16
1629810674328,-33.89
1629810674343,-23.31
1629810674359,-13.7
1629810674375,-5.77
1629810674390,0.37
1629810674406,5.13
1629810674421,9.11
1629810674437,12.85
1629810674453,16.61
1629810674468,20.34
1629810674484,23.91
1629810674500,27.11
1629810674515,29.84
1629810674531,32.06
1629810674546,33.78
1629810674562,34.92
1629810674578,35.43
1629810674593,35.27
1629810674609,34.52
1629810674625,33.43
1629810674640,32.3
1629810674656,31.4
1629810674671,30.8
1629810674687,30.36
1629810674703,29.8
1629810674718,28.83
1629810674734,27.41
1629810674750,25.7
1629810674765,24.04
1629810674781,22.66
1629810674796,21.56
1629810674812,20.51
1629810674828,19.16
1629810674843,17.25
1629810674859,14.74
1629810674875,11.87
1629810674890,9.02
1629810674906,6.48
1629810674921,4.32
1629810674937,2.34
1629810674953,0.21
1629810674968,-2.36
1629810674984,-5.51
1629810675000,-9.11
1629810675015,-12.9
1629810675031,-16.61
1629810675046,-20.08
1629810675062,-23.23
1629810675078,-26.1
1629810675093,-28.77
1629810675109,-31.39
1629810675125,-34.18
1629810675140,-37.45
1629810675156,-41.45
1629810675171,-46.32
1629810675187,-51.76
1629810675203,-57.0
1629810675218,-60.9
1629810675234,-62.25
1629810675250,-60.22
1629810675265,-54.67
1629810675281,-46.27
1629810675296,-36.2
1629810675312,-25.87
1629810675328,-16.39
1629810675343,-8.37
1629810675359,-1.83
1629810675375,3.6
1629810675390,8.41
1629810675406,12.97
1629810675421,17.44
1629810675437,21.68
1629810675453,25.41
1629810675468,28.41
1629810675484,30.52
1629810675500,31.78
1629810675515,32.39
1629810675531,32.61
1629810675546,32.6
1629810675562,32.45
1629810675578,32.12
1629810675593,31.6
1629810675609,30.96
1629810675625,30.32
1629810675640,29.77
1629810675656,29.27
1629810675671,28.63
1629810675687,27.59
1629810675703,26.01
1629810675718,23.92
1629810675734,21.62
1629810675750,19.46
1629810675765,17.64
1629810675781,16.15
1629810675796,14.75
1629810675812,13.11
1629810675828,11.05
1629810675843,8.61
1629810675859,6.05
1629810675875,3.67
1629810675890,1.61
1629810675906,-0.16
1629810675921,-1.85
1629810675937,-3.74
1629810675953,-6.05
1629810675968,-8.79
1629810675984,-11.93
1629810676000,-15.31
1629810676015,-18.78
1629810676031,-22.2
1629810676046,-25.5
1629810676062,-28.68
1629810676078,-31.82
1629810676093,-35.15
1629810676109,-38.92
1629810676125,-43.3
1629810676140,-48.22
1629810676156,-53.14
1629810676171,-57.08
1629810676187,-58.87
1629810676203,-57.52
1629810676218,-52.72
1629810676234,-45.05
1629810676250,-35.78
1629810676265,-26.44
1629810676281,-18.26
1629810676296,-11.72
1629810676312,-6.61
1629810676328,-2.34
1629810676343,1.66
1629810676359,5.68
1629810676375,9.65
1629810676390,13.44
1629810676406,16.95
1629810676421,20.18
1629810676437,23.18
1629810676453,25.89
1629810676468,28.12
1629810676484,29.66
1629810676500,30.37
1629810676515,30.33
1629810676531,29.83
1629810676546,29.19
1629810676562,28.66
1629810676578,28.37
1629810676593,28.27
1629810676609,28.22
1629810676625,28.03
1629810676640,27.51
1629810676656,26.49
1629810676671,24.9
1629810676687,22.73
1629810676703,20.12
1629810676718,17.33
1629810676734,14.64
1629810676750,12.29
1629810676765,10.36
1629810676781,8.7
1629810676796,7.03
1629810676812,5.05
1629810676828,2.58
1629810676843,-0.35
1629810676859,-3.51
1629810676875,-6.65
1629810676890,-9.59
1629810676906,-12.29
1629810676921,-14.84
1629810676937,-17.34
1629810676953,-19.88
1629810676968,-22.58
1629810676984,-25.62
1629810677000,-29.24
1629810677015,-33.63
1629810677031,-38.64
1629810677046,-43.56
1629810677062,-47.23
1629810677078,-48.31
1629810677093,-45.88
1629810677109,-39.9
1629810677125,-31.29
1629810677140,-21.59
1629810677156,-12.41
1629810677171,-4.86
1629810677187,0.75
1629810677203,4.77
1629810677218,7.84
1629810677234,10.61
1629810677250,13.47
1629810677265,16.55
1629810677281,19.83
1629810677296,23.18
1629810677312,26.36
1629810677328,29.04
1629810677343,30.88
1629810677359,31.64
1629810677375,31.32
1629810677390,30.14
1629810677406,28.48
1629810677421,26.73
1629810677437,25.29
1629810677453,24.42
1629810677468,24.24
1629810677484,24.68
1629810677500,25.43
1629810677515,26.0
1629810677531,25.88
1629810677546,24.69
1629810677562,22.31
1629810677578,18.95
1629810677593,15.06
1629810677609,11.18
1629810677625,7.76
1629810677640,5.05
1629810677656,3.01
1629810677671,1.37
1629810677687,-0.24
1629810677703,-2.17
1629810677718,-4.66
1629810677734,-7.75
1629810677750,-11.25
1629810677765,-14.81
1629810677781,-18.04
1629810677796,-20.69
1629810677812,-22.8
1629810677828,-24.72
1629810677843,-27.01
1629810677859,-30.24
1629810677875,-34.76
1629810677890,-40.4
1629810677906,-46.45
1629810677921,-51.75
1629810677937,-55.0
1629810677953,-55.23
1629810677968,-52.06
1629810677984,-45.87
1629810678000,-37.61
1629810678015,-28.54
1629810678031,-19.79
1629810678046,-12.15
1629810678062,-5.84
1629810678078,-0.73
1629810678093,3.57
1629810678109,7.46
1629810678125,11.2
1629810678140,14.96
1629810678156,18.79
1629810678171,22.69
1629810678187,26.58
1629810678203,30.21
1629810678218,33.17
1629810678234,35.06
1629810678250,35.65
1629810678265,35.03
1629810678281,33.69
1629810678296,32.26
1629810678312,31.28
1629810678328,30.98
1629810678343,31.17
1629810678359,31.46
1629810678375,31.45
1629810678390,30.91
1629810678406,29.81
1629810678421,28.29
1629810678437,26.51
1629810678453,24.56
1629810678468,22.47
1629810678484,20.24
1629810678500,17.88
1629810678515,15.4
1629810678531,12.79
1629810678546,10.04
1629810678562,7.23
1629810678578,4.46
1629810678593,1.84
1629810678609,-0.53
1629810678625,-2.68
1629810678640,-4.71
1629810678656,-6.82
1629810678671,-9.18
1629810678687,-11.98
1629810678703,-15.27
1629810678718,-19.0
1629810678734,-23.01
1629810678750,-27.05
1629810678765,-30.94
1629810678781,-34.65
1629810678796,-38.39
1629810678812,-42.48
1629810678828,-47.21
1629810678843,-52.56
1629810678859,-58.02
1629810678875,-62.59
1629810678890,-65.01
1629810678906,-64.21
1629810678921,-59.7
1629810678937,-51.83
1629810678953,-41.67
1629810678968,-30.66
1629810678984,-20.21
1629810679000,-11.3
1629810679015,-4.25
1629810679031,1.1
1629810679046,5.28
1629810679062,8.99
1629810679078,12.83
1629810679093,17.11
1629810679109,21.84
1629810679125,26.7
1629810679140,31.15
1629810679156,34.73
1629810679171,37.14
1629810679187,38.38
1629810679203,38.64
1629810679218,38.21
1629810679234,37.36
1629810679250,36.23
1629810679265,35.01
1629810679281,33.89
1629810679296,33.09
1629810679312,32.71
1629810679328,32.65
1629810679343,32.53
1629810679359,31.86
1629810679375,30.3
1629810679390,27.83
1629810679406,24.74
1629810679421,21.54
1629810679437,18.67
1629810679453,16.29
1629810679468,14.32
1629810679484,12.48
1629810679500,10.46
1629810679515,8.13
1629810679531,5.52
1629810679546,2.79
1629810679562,0.05
1629810679578,-2.63
1629810679593,-5.31
1629810679609,-8.12
1629810679625,-11.16
1629810679640,-14.45
1629810679656,-17.85
1629810679671,-21.14
1629810679687,-24.11
1629810679703,-26.7
1629810679718,-29.02
1629810679734,-31.35
1629810679750,-34.06
1629810679765,-37.48
1629810679781,-41.88
1629810679796,-47.17
1629810679812,-52.94
1629810679828,-58.32
1629810679843,-62.13
1629810679859,-63.17
1629810679875,-60.62
1629810679890,-54.46
1629810679906,-45.5
1629810679921,-35.2
1629810679937,-25.09
1629810679953,-16.37
1629810679968,-9.43
1629810679984,-4.09
1629810680000,0.25
1629810680015,4.19
1629810680031,8.19
1629810680046,12.45
1629810680062,16.98
1629810680078,21.64
1629810680093,26.18
1629810680109,30.28
1629810680125,33.6
1629810680140,35.88
1629810680156,36.99
1629810680171,36.94
1629810680187,35.91
1629810680203,34.14
1629810680218,32.01
1629810680234,29.97
1629810680250,28.42
1629810680265,27.58
1629810680281,27.36
1629810680296,27.48
1629810680312,27.45
1629810680328,26.88
1629810680343,25.5
1629810680359,23.33
1629810680375,20.54
1629810680390,17.44
1629810680406,14.33
1629810680421,11.47
1629810680437,9.03
1629810680453,7.0
1629810680468,5.24
1629810680484,3.47
1629810680500,1.42
1629810680515,-1.11
1629810680531,-4.15
1629810680546,-7.6
1629810680562,-11.21
1629810680578,-14.74
1629810680593,-18.0
1629810680609,-20.84
1629810680625,-23.22
1629810680640,-25.25
1629810680656,-27.2
1629810680671,-29.47
1629810680687,-32.43
1629810680703,-36.27
1629810680718,-40.78
1629810680734,-45.32
1629810680750,-48.83
1629810680765,-50.16
1629810680781,-48.47
1629810680796,-43.51
1629810680812,-35.79
1629810680828,-26.45
1629810680843,-16.91
1629810680859,-8.4
1629810680875,-1.63
1629810680890,3.4
1629810680906,7.15
1629810680921,10.27
1629810680937,13.32
1629810680953,16.51
1629810680968,19.79
1629810680984,22.88
1629810681000,25.48
1629810681015,27.38
1629810681031,28.61
1629810681046,29.29
1629810681062,29.59
1629810681078,29.72
1629810681093,29.72
1629810681109,29.57
1629810681125,29.23
1629810681140,28.72
1629810681156,28.13
1629810681171,27.64
1629810681187,27.25
1629810681203,26.77
1629810681218,25.93
1629810681234,24.42
1629810681250,22.11
1629810681265,19.15
1629810681281,15.94
1629810681296,12.81
1629810681312,9.98
1629810681328,7.45
1629810681343,5.03
1629810681359,2.54
1629810681375,-0.15
1629810681390,-3.04
1629810681406,-6.11
1629810681421,-9.34
1629810681437,-12.72
1629810681453,-16.19
1629810681468,-19.59
1629810681484,-22.84
1629810681500,-25.97
1629810681515,-29.21
1629810681531,-32.96
1629810681546,-37.51
1629810681562,-42.81
1629810681578,-48.27
1629810681593,-52.82
1629810681609,-55.23
1629810681625,-54.49
1629810681640,-50.18
1629810681656,-42.7
1629810681671,-33.08
1629810681687,-22.67
1629810681703,-12.81
1629810681718,-4.41
1629810681734,2.15
1629810681750,7.02
1629810681765,10.66
1629810681781,13.68
1629810681796,16.57
1629810681812,19.61
1629810681828,22.84
1629810681843,26.09
1629810681859,29.09
1629810681875,31.61
1629810681890,33.5
1629810681906,34.71
1629810681921,35.25
1629810681937,35.14
1629810681953,34.45
1629810681968,33.32
1629810681984,31.96
1629810682000,30.63
1629810682015,29.6
1629810682031,28.94
1629810682046,28.5
1629810682062,28.0
1629810682078,27.09
1629810682093,25.65
1629810682109,23.75
1629810682125,21.59
1629810682140,19.32
1629810682156,16.97
1629810682171,14.51
1629810682187,11.91
1629810682203,9.31
1629810682218,6.95
1629810682234,5.05
1629810682250,3.59
1629810682265,2.23
1629810682281,0.42
1629810682296,-2.4
1629810682312,-6.35
1629810682328,-11.16
1629810682343,-16.19
1629810682359,-20.76
1629810682375,-24.45
1629810682390,-27.25
1629810682406,-29.47
1629810682421,-31.61
1629810682437,-34.18
1629810682453,-37.57
1629810682468,-41.97
1629810682484,-47.26
1629810682500,-52.97
1629810682515,-58.21
1629810682531,-61.87
1629810682546,-62.84
1629810682562,-60.35
1629810682578,-54.37
1629810682593,-45.53
1629810682609,-35.06
1629810682625,-24.39
1629810682640,-14.7
1629810682656,-6.71
1629810682671,-0.48
1629810682687,4.35
1629810682703,8.43
1629810682718,12.31
1629810682734,16.36
1629810682750,20.7
1629810682765,25.23
1629810682781,29.71
1629810682796,33.81
1629810682812,37.12
1629810682828,39.29
1629810682843,40.09
1629810682859,39.57
1629810682875,38.04
1629810682890,36.05
1629810682906,34.14
1629810682921,32.67
1629810682937,31.74
1629810682953,31.25
1629810682968,31.01
1629810682984,30.84
1629810683000,30.61
1629810683015,30.14
1629810683031,29.27
1629810683046,27.85
1629810683062,25.84
1629810683078,23.33
1629810683093,20.5
1629810683109,17.56
1629810683125,14.62
1629810683140,11.73
1629810683156,8.92
1629810683171,6.27
1629810683187,3.9
1629810683203,1.96
1629810683218,0.37
1629810683234,-1.14
1629810683250,-2.98
1629810683265,-5.54
1629810683281,-8.94
1629810683296,-12.95
1629810683312,-17.13
1629810683328,-21.05
1629810683343,-24.44
1629810683359,-27.36
1629810683375,-30.09
1629810683390,-32.98
1629810683406,-36.38
1629810683421,-40.5
1629810683437,-45.4
1629810683453,-50.92
1629810683468,-56.58
1629810683484,-61.42
1629810683500,-64.24
1629810683515,-63.84
1629810683531,-59.47
1629810683546,-51.34
1629810683562,-40.58
1629810683578,-28.93
1629810683593,-18.13
1629810683609,-9.27
1629810683625,-2.58
1629810683640,2.46
1629810683656,6.74
1629810683671,11.08
1629810683687,15.85
1629810683703,21.02
1629810683718,26.22
1629810683734,30.97
1629810683750,34.84
1629810683765,37.61
1629810683781,39.24
1629810683796,39.88
1629810683812,39.78
1629810683828,39.21
1629810683843,38.43
1629810683859,37.7
1629810683875,37.15
1629810683890,36.84
1629810683906,36.65
1629810683921,36.35
1629810683937,35.69
1629810683953,34.5
1629810683968,32.77
1629810683984,30.68
1629810684000,28.47
1629810684015,26.25
1629810684031,23.98
1629810684046,21.52
1629810684062,18.71
1629810684078,15.54
1629810684093,12.19
1629810684109,8.86
1629810684125,5.73
1629810684140,2.87
1629810684156,0.28
1629810684171,-2.06
1629810684187,-4.16
1629810684203,-6.1
1629810684218,-8.03
1629810684234,-10.18
1629810684250,-12.83
1629810684265,-16.04
1629810684281,-19.67
1629810684296,-23.42
1629810684312,-26.98
1629810684328,-30.26
1629810684343,-33.35
1629810684359,-36.51
1629810684375,-39.99
1629810684390,-43.92
1629810684406,-48.27
1629810684421,-52.87
1629810684437,-57.29
1629810684453,-60.79
1629810684468,-62.37
1629810684484,-61.06
1629810684500,-56.27
1629810684515,-48.26
1629810684531,-38.1
1629810684546,-27.4
1629810684562,-17.68
1629810684578,-9.85
1629810684593,-3.98
1629810684609,0.54
1629810684625,4.49
1629810684640,8.52
1629810684656,12.82
1629810684671,17.28
1629810684687,21.58
1629810684703,25.43
1629810684718,28.62
1629810684734,30.99
1629810684750,32.53
1629810684765,33.3
1629810684781,33.45
1629810684796,33.18
1629810684812,32.63
1629810684828,31.92
1629810684843,31.13
1629810684859,30.35
1629810684875,29.67
1629810684890,29.16
1629810684906,28.73
1629810684921,28.18
1629810684937,27.2
1629810684953,25.54
1629810684968,23.16
1629810684984,20.23
1629810685000,17.07
1629810685015,13.99
1629810685031,11.23
1629810685046,8.87
1629810685062,6.86
1629810685078,5.04
1629810685093,3.2
1629810685109,1.1
1629810685125,-1.42
1629810685140,-4.42
1629810685156,-7.72
1629810685171,-11.0
1629810685187,-13.92
1629810685203,-16.28
1629810685218,-18.16
1629810685234,-19.93
1629810685250,-22.08
1629810685265,-25.03
1629810685281,-28.94
1629810685296,-33.68
1629810685312,-38.84
1629810685328,-43.76
1629810685343,-47.6
1629810685359,-49.43
1629810685375,-48.48
1629810685390,-44.38
1629810685406,-37.39
1629810685421,-28.47
1629810685437,-18.98
1629810685453,-10.29
1629810685468,-3.26
1629810685484,1.98
1629810685500,5.95
1629810685515,9.48
1629810685531,13.19
1629810685546,17.29
1629810685562,21.45
1629810685578,25.12
1629810685593,27.77
1629810685609,29.17
1629810685625,29.47
1629810685640,29.05
1629810685656,28.33
1629810685671,27.61
1629810685687,26.94
1629810685703,26.24
1629810685718,25.42
1629810685734,24.51
1629810685750,23.72
1629810685765,23.33
1629810685781,23.41
1629810685796,23.74
1629810685812,23.81
1629810685828,23.02
1629810685843,21.0
1629810685859,17.8
1629810685875,13.88
1629810685890,9.9
1629810685906,6.43
1629810685921,3.73
1629810685937,1.71
1629810685953,0.06
1629810685968,-1.6
1629810685984,-3.54
1629810686000,-5.94
1629810686015,-8.77
1629810686031,-11.94
1629810686046,-15.23
1629810686062,-18.44
1629810686078,-21.49
1629810686093,-24.44
1629810686109,-27.55
1629810686125,-31.16
1629810686140,-35.54
1629810686156,-40.77
1629810686171,-46.59
1629810686187,-52.34
1629810686203,-57.04
1629810686218,-59.56
1629810686234,-58.91
1629810686250,-54.62
1629810686265,-46.9
1629810686281,-36.77
1629810686296,-25.72
1629810686312,-15.29
1629810686328,-6.58
1629810686343,0.05
1629810686359,4.89
1629810686375,8.59
1629810686390,11.87
1629810686406,15.17
1629810686421,18.62
1629810686437,22.16
1629810686453,25.71
1629810686468,29.16
1629810686484,32.38
1629810686500,35.2
1629810686515,37.31
1629810686531,38.41
1629810686546,38.34
1629810686562,37.21
1629810686578,35.37
1629810686593,33.37
1629810686609,31.73
1629810686625,30.72
1629810686640,30.36
1629810686656,30.3
1629810686671,30.1
1629810686687,29.28
1629810686703,27.63
1629810686718,25.23
1629810686734,22.39
1629810686750,19.47
1629810686765,16.69
1629810686781,14.12
1629810686796,11.65
1629810686812,9.2
1629810686828,6.75
1629810686843,4.38
1629810686859,2.15
1629810686875,-0.06
1629810686890,-2.44
1629810686906,-5.25
1629810686921,-8.63
1629810686937,-12.45
1629810686953,-16.37
1629810686968,-19.99
1629810686984,-23.07
1629810687000,-25.59
1629810687015,-27.81
1629810687031,-30.16
1629810687046,-33.03
1629810687062,-36.73
1629810687078,-41.34
1629810687093,-46.76
1629810687109,-52.56
1629810687125,-58.05
1629810687140,-62.25
1629810687156,-64.12
1629810687171,-62.74
1629810687187,-57.74
1629810687203,-49.48
1629810687218,-38.98
1629810687234,-27.73
1629810687250,-17.13
1629810687265,-8.17
1629810687281,-1.11
1629810687296,4.38
1629810687312,8.94
1629810687328,13.21
1629810687343,17.58
1629810687359,22.17
1629810687375,26.81
1629810687390,31.22
1629810687406,35.06
1629810687421,38.02
1629810687437,39.84
1629810687453,40.4
1629810687468,39.79
1629810687484,38.3
1629810687500,36.36
1629810687515,34.41
1629810687531,32.79
1629810687546,31.66
1629810687562,31.02
1629810687578,30.69
1629810687593,30.42
1629810687609,29.96
1629810687625,29.13
1629810687640,27.89
1629810687656,26.26
1629810687671,24.34
1629810687687,22.23
1629810687703,19.95
1629810687718,17.58
1629810687734,15.19
1629810687750,12.89
1629810687765,10.78
1629810687781,8.86
1629810687796,7.03
1629810687812,5.12
1629810687828,2.99
1629810687843,0.52
1629810687859,-2.29
1629810687875,-5.48
1629810687890,-9.04
1629810687906,-12.96
1629810687921,-17.07
1629810687937,-20.98
1629810687953,-24.29
1629810687968,-26.74
1629810687984,-28.5
1629810688000,-30.13
1629810688015,-32.34
1629810688031,-35.73
1629810688046,-40.41
1629810688062,-45.99
1629810688078,-51.57
1629810688093,-56.1
1629810688109,-58.53
1629810688125,-58.11
1629810688140,-54.5
1629810688156,-47.87
1629810688171,-39.0
1629810688187,-29.03
1629810688203,-19.27
1629810688218,-10.78
1629810688234,-4.09
1629810688250,0.95
1629810688265,4.98
1629810688281,8.81
1629810688296,13.01
1629810688312,17.72
1629810688328,22.64
1629810688343,27.24
1629810688359,31.06
1629810688375,33.84
1629810688390,35.59
1629810688406,36.52
1629810688421,36.79
1629810688437,36.5
1629810688453,35.68
1629810688468,34.42
1629810688484,32.88
1629810688500,31.38
1629810688515,30.23
1629810688531,29.53
1629810688546,29.19
1629810688562,28.85
1629810688578,28.07
1629810688593,26.56
1629810688609,24.25
1629810688625,21.36
1629810688640,18.25
1629810688656,15.27
1629810688671,12.63
1629810688687,10.35
1629810688703,8.28
1629810688718,6.31
1629810688734,4.31
1629810688750,2.24
1629810688765,0.12
1629810688781,-2.13
1629810688796,-4.61
1629810688812,-7.46
1629810688828,-10.71
1629810688843,-14.29
1629810688859,-17.97
1629810688875,-21.46
1629810688890,-24.55
1629810688906,-27.14
1629810688921,-29.33
1629810688937,-31.37
1629810688953,-33.6
1629810688968,-36.34
1629810688984,-39.87
1629810689000,-44.2
1629810689015,-48.95
1629810689031,-53.3
1629810689046,-56.12
1629810689062,-56.22
1629810689078,-52.88
1629810689093,-46.15
1629810689109,-36.9
1629810689125,-26.57
1629810689140,-16.59
1629810689156,-8.0
1629810689171,-1.12
1629810689187,4.27
1629810689203,8.65
1629810689218,12.56
1629810689234,16.36
1629810689250,20.21
1629810689265,24.11
1629810689281,27.88
1629810689296,31.22
1629810689312,33.81
1629810689328,35.41
1629810689343,36.02
1629810689359,35.78
1629810689375,35.0
1629810689390,34.0
1629810689406,33.0
1629810689421,32.08
1629810689437,31.26
1629810689453,30.53
1629810689468,29.82
1629810689484,29.0
1629810689500,27.83
1629810689515,26.03
1629810689531,23.45
1629810689546,20.16
1629810689562,16.47
1629810689578,12.86
1629810689593,9.74
1629810689609,7.29
1629810689625,5.39
1629810689640,3.66
1629810689656,1.59
1629810689671,-1.22
1629810689687,-4.99
1629810689703,-9.55
1629810689718,-14.43
1629810689734,-19.07
1629810689750,-22.97
1629810689765,-25.85
1629810689781,-27.76
1629810689796,-29.04
1629810689812,-30.13
1629810689828,-31.46
1629810689843,-33.35
1629810689859,-35.94
1629810689875,-39.14
1629810689890,-42.53
1629810689906,-45.33
1629810689921,-46.52
1629810689937,-45.17
1629810689953,-40.8
1629810689968,-33.61
1629810689984,-24.59
1629810690000,-15.07
1629810690015,-6.32
1629810690031,0.88
1629810690046,6.37
1629810690062,10.51
1629810690078,13.86
1629810690093,16.91
1629810690109,19.95
1629810690125,23.02
1629810690140,26.01
1629810690156,28.79
1629810690171,31.2
1629810690187,33.15
1629810690203,34.56
1629810690218,35.4
1629810690234,35.73
1629810690250,35.62
1629810690265,35.19
1629810690281,34.52
1629810690296,33.65
1629810690312,32.57
1629810690328,31.26
1629810690343,29.67
1629810690359,27.8
1629810690375,25.71
1629810690390,23.45
1629810690406,21.08
1629810690421,18.59
1629810690437,15.95
1629810690453,13.16
1629810690468,10.31
1629810690484,7.53
1629810690500,5.0
1629810690515,2.81
1629810690531,0.87
1629810690546,-1.04
1629810690562,-3.18
1629810690578,-5.72
1629810690593,-8.55
1629810690609,-11.46
1629810690625,-14.16
1629810690640,-16.51
1629810690656,-18.62
1629810690671,-20.78
1629810690687,-23.36
1629810690703,-26.64
1629810690718,-30.77
1629810690734,-35.76
1629810690750,-41.54
1629810690765,-47.79
1629810690781,-53.88
1629810690796,-58.81
1629810690812,-61.35
1629810690828,-60.38
1629810690843,-55.41
1629810690859,-46.9
1629810690875,-36.14
1629810690890,-24.9
1629810690906,-14.75
1629810690921,-6.59
1629810690937,-0.51
1629810690953,4.01
1629810690968,7.73
1629810690984,11.28
1629810691000,14.97
1629810691015,18.84
1629810691031,22.78
1629810691046,26.6
1629810691062,30.1
1629810691078,33.0
1629810691093,35.09
1629810691109,36.24
1629810691125,36.53
1629810691140,36.21
1629810691156,35.57
1629810691171,34.86
1629810691187,34.21
1629810691203,33.63
1629810691218,33.06
1629810691234,32.51
1629810691250,31.92
1629810691265,31.22
1629810691281,30.27
1629810691296,28.94
1629810691312,27.15
1629810691328,24.94
1629810691343,22.48
1629810691359,19.95
1629810691375,17.48
1629810691390,15.06
1629810691406,12.56
1629810691421,9.88
1629810691437,7.01
1629810691453,4.01
1629810691468,1.03
1629810691484,-1.8
1629810691500,-4.52
1629810691515,-7.25
1629810691531,-10.18
1629810691546,-13.45
1629810691562,-16.96
1629810691578,-20.47
1629810691593,-23.69
1629810691609,-26.46
1629810691625,-28.79
1629810691640,-30.94
1629810691656,-33.2
1629810691671,-35.86
1629810691687,-39.05
1629810691703,-42.8
1629810691718,-47.05
1629810691734,-51.56
1629810691750,-55.88
1629810691765,-59.2
1629810691781,-60.49
1629810691796,-58.8
1629810691812,-53.66
1629810691828,-45.46
1629810691843,-35.32
1629810691859,-24.8
1629810691875,-15.27
1629810691890,-7.52
1629810691906,-1.58
1629810691921,3.09
1629810691937,7.21
1629810691953,11.31
1629810691968,15.56
1629810691984,19.86
1629810692000,23.96
1629810692015,27.66
1629810692031,30.9
1629810692046,33.58
1629810692062,35.65
1629810692078,36.99
1629810692093,37.53
1629810692109,37.27
1629810692125,36.36
1629810692140,35.1
1629810692156,33.86
1629810692171,32.96
1629810692187,32.56
1629810692203,32.58
1629810692218,32.72
1629810692234,32.61
1629810692250,31.89
1629810692265,30.39
1629810692281,28.2
1629810692296,25.63
1629810692312,23.04
1629810692328,20.68
1629810692343,18.6
1629810692359,16.67
1629810692375,14.67
1629810692390,12.48
1629810692406,10.09
1629810692421,7.57
1629810692437,4.97
1629810692453,2.33
1629810692468,-0.39
1629810692484,-3.2
1629810692500,-6.05
1629810692515,-8.86
1629810692531,-11.55
1629810692546,-14.16
1629810692562,-16.77
1629810692578,-19.5
1629810692593,-22.37
1629810692609,-25.23
1629810692625,-27.88
1629810692640,-30.21
1629810692656,-32.34
1629810692671,-34.74
1629810692687,-38.01
1629810692703,-42.58
1629810692718,-48.35
1629810692734,-54.48
1629810692750,-59.51
1629810692765,-61.87
1629810692781,-60.36
1629810692796,-54.68
1629810692812,-45.58
1629810692828,-34.56
1629810692843,-23.43
1629810692859,-13.63
1629810692875,-5.91
1629810692890,-0.18
1629810692906,4.24
1629810692921,8.12
1629810692937,12.06
1629810692953,16.22
1629810692968,20.41
1629810692984,24.31
1629810693000,27.64
1629810693015,30.27
1629810693031,32.24
1629810693046,33.55
1629810693062,34.11
1629810693078,33.81
1629810693093,32.61
1629810693109,30.73
1629810693125,28.63
1629810693140,26.86
1629810693156,25.82
1629810693171,25.62
1629810693187,26.01
1629810693203,26.48
1629810693218,26.53
1629810693234,25.91
1629810693250,24.6
1629810693265,22.82
1629810693281,20.89
1629810693296,19.04
1629810693312,17.35
1629810693328,15.67
1629810693343,13.82
1629810693359,11.6
1629810693375,8.98
1629810693390,6.08
1629810693406,3.15
1629810693421,0.43
1629810693437,-1.98
1629810693453,-4.17
1629810693468,-6.44
1629810693484,-9.04
1629810693500,-12.11
1629810693515,-15.51
1629810693531,-18.93
1629810693546,-22.01
1629810693562,-24.57
1629810693578,-26.7
1629810693593,-28.79
1629810693609,-31.34
1629810693625,-34.76
1629810693640,-39.24
1629810693656,-44.48
1629810693671,-49.76
1629810693687,-53.93
1629810693703,-55.76
1629810693718,-54.27
1629810693734,-49.14
1629810693750,-40.85
1629810693765,-30.63
1629810693781,-20.03
1629810693796,-10.43
1629810693812,-2.66
1629810693828,3.12
1629810693843,7.27
1629810693859,10.39
1629810693875,13.08
1629810693890,15.76
1629810693906,18.59
1629810693921,21.52
1629810693937,24.39
1629810693953,26.92
1629810693968,28.83
1629810693984,29.97
1629810694000,30.34
1629810694015,30.1
1629810694031,29.53
1629810694046,28.81
1629810694062,28.06
1629810694078,27.37
1629810694093,26.79
1629810694109,26.38
1629810694125,26.17
1629810694140,26.02
1629810694156,25.63
1629810694171,24.61
1629810694187,22.64
1629810694203,19.62
1629810694218,15.82
1629810694234,11.73
1629810694250,7.91
1629810694265,4.8
1629810694281,2.49
1629810694296,0.79
1629810694312,-0.69
1629810694328,-2.36
1629810694343,-4.5
1629810694359,-7.23
1629810694375,-10.47
1629810694390,-13.99
1629810694406,-17.45
1629810694421,-20.6
1629810694437,-23.25
1629810694453,-25.5
1629810694468,-27.68
1629810694484,-30.26
1629810694500,-33.66
1629810694515,-38.05
1629810694531,-43.01
1629810694546,-47.68
1629810694562,-50.85
1629810694578,-51.38
1629810694593,-48.57
1629810694609,-42.42
1629810694625,-33.68
1629810694640,-23.56
1629810694656,-13.47
1629810694671,-4.58
1629810694687,2.44
1629810694703,7.42
1629810694718,10.71
1629810694734,12.95
1629810694750,14.84
1629810694765,16.94
1629810694781,19.51
1629810694796,22.44
1629810694812,25.38
1629810694828,27.89
1629810694843,29.67
1629810694859,30.66
1629810694875,30.94
1629810694890,30.7
1629810694906,30.02
1629810694921,28.95
1629810694937,27.53
1629810694953,25.98
1629810694968,24.6
1629810694984,23.78
1629810695000,23.71
1629810695015,24.3
1629810695031,25.13
1629810695046,25.57
1629810695062,25.11
1629810695078,23.41
1629810695093,20.52
1629810695109,16.77
1629810695125,12.58
1629810695140,8.43
1629810695156,4.66
1629810695171,1.47
1629810695187,-1.16
1629810695203,-3.39
1629810695218,-5.5
1629810695234,-7.8
1629810695250,-10.56
1629810695265,-13.84
1629810695281,-17.49
1629810695296,-21.23
1629810695312,-24.67
1629810695328,-27.56
1629810695343,-29.87
1629810695359,-31.88
1629810695375,-34.1
1629810695390,-37.11
1629810695406,-41.34
1629810695421,-46.77
1629810695437,-52.84
1629810695453,-58.38
1629810695468,-61.92
1629810695484,-62.12
1629810695500,-58.29
1629810695515,-50.69
1629810695531,-40.43
1629810695546,-29.15
1629810695562,-18.4
1629810695578,-9.18
1629810695593,-1.81
1629810695609,3.89
1629810695625,8.35
1629810695640,12.01
1629810695656,15.22
1629810695671,18.31
1629810695687,21.53
1629810695703,25.02
1629810695718,28.69
1629810695734,32.19
1629810695750,35.03
1629810695765,36.78
1629810695781,37.26
1629810695796,36.62
1629810695812,35.3
1629810695828,33.78
1629810695843,32.53
1629810695859,31.83
1629810695875,31.72
1629810695890,32.02
1629810695906,32.36
1629810695921,32.37
1629810695937,31.82
1629810695953,30.65
1629810695968,28.99
1629810695984,27.03
1629810696000,24.91
1629810696015,22.72
1629810696031,20.42
1629810696046,17.97
1629810696062,15.35
1629810696078,12.57
1629810696093,9.69
1629810696109,6.82
1629810696125,4.04
1629810696140,1.38
1629810696156,-1.2
1629810696171,-3.88
1629810696187,-6.88
1629810696203,-10.4
1629810696218,-14.46
1629810696234,-18.84
1629810696250,-23.2
1629810696265,-27.18
1629810696281,-30.62
1629810696296,-33.59
1629810696312,-36.32
1629810696328,-39.11
1629810696343,-42.26
1629810696359,-46.07
1629810696375,-50.64
1629810696390,-55.77
1629810696406,-60.78
1629810696421,-64.59
1629810696437,-65.85
1629810696453,-63.52
1629810696468,-57.3
1629810696484,-47.87
1629810696500,-36.68
1629810696515,-25.42
1629810696531,-15.39
1629810696546,-7.09
1629810696562,-0.32
1629810696578,5.51
1629810696593,10.85
1629810696609,15.86
1629810696625,20.37
1629810696640,24.2
1629810696656,27.36
1629810696671,30.12
1629810696687,32.85
1629810696703,35.73
1629810696718,38.55
1629810696734,40.81
1629810696750,41.96
1629810696765,41.66
1629810696781,40.07
1629810696796,37.75
1629810696812,35.47
1629810696828,33.86
1629810696843,33.2
1629810696859,33.26
1629810696875,33.54
1629810696890,33.45
1629810696906,32.58
1629810696921,30.88
1629810696937,28.61
1629810696953,26.14
1629810696968,23.77
1629810696984,21.54
1629810697000,19.27
1629810697015,16.66
1629810697031,13.56
1629810697046,10.09
1629810697062,6.58
1629810697078,3.48
1629810697093,1.09
1629810697109,-0.54
1629810697125,-1.68
1629810697140,-2.81
1629810697156,-4.36
1629810697171,-6.6
1629810697187,-9.54
1629810697203,-13.03
1629810697218,-16.8
1629810697234,-20.64
1629810697250,-24.42
1629810697265,-28.05
1629810697281,-31.5
1629810697296,-34.81
1629810697312,-38.11
1629810697328,-41.69
1629810697343,-45.78
1629810697359,-50.45
1629810697375,-55.33
1629810697390,-59.5
1629810697406,-61.69
1629810697421,-60.7
1629810697437,-55.92
1629810697453,-47.68
1629810697468,-37.14
1629810697484,-25.93
1629810697500,-15.55
1629810697515,-6.89
1629810697531,-0.15
1629810697546,5.07
1629810697562,9.35
1629810697578,13.22
1629810697593,16.94
1629810697609,20.57
1629810697625,24.01
1629810697640,27.12
1629810697656,29.84
1629810697671,32.09
1629810697687,33.8
1629810697703,34.87
1629810697718,35.2
1629810697734,34.79
1629810697750,33.75
1629810697765,32.38
1629810697781,31.11
1629810697796,30.28
1629810697812,30.06
1629810697828,30.29
1629810697843,30.6
1629810697859,30.54
1629810697875,29.82
1629810697890,28.33
1629810697906,26.23
1629810697921,23.75
1629810697937,21.13
1629810697953,18.56
1629810697968,16.17
1629810697984,14.01
1629810698000,12.02
1629810698015,10.09
1629810698031,8.06
1629810698046,5.86
1629810698062,3.47
1629810698078,0.98
1629810698093,-1.57
1629810698109,-4.17
1629810698125,-6.89
1629810698140,-9.87
1629810698156,-13.12
1629810698171,-16.61
1629810698187,-20.16
1629810698203,-23.62
1629810698218,-26.87
1629810698234,-29.91
1629810698250,-32.86
1629810698265,-36.0
1629810698281,-39.62
1629810698296,-43.87
1629810698312,-48.6
1629810698328,-53.19
1629810698343,-56.59
1629810698359,-57.56
1629810698375,-55.19
1629810698390,-49.22
1629810698406,-40.23
1629810698421,-29.5
1629810698437,-18.59
1629810698453,-8.83
1629810698468,-1.01
1629810698484,4.74
1629810698500,8.88
1629810698515,12.02
1629810698531,14.78
1629810698546,17.54
1629810698562,20.38
1629810698578,23.16
1629810698593,25.67
1629810698609,27.68
1629810698625,29.08
1629810698640,29.87
1629810698656,30.09
1629810698671,29.84
1629810698687,29.21
1629810698703,28.31
1629810698718,27.27
1629810698734,26.23
1629810698750,25.32
1629810698765,24.58
1629810698781,23.99
1629810698796,23.41
1629810698812,22.65
1629810698828,21.54
1629810698843,19.92
1629810698859,17.77
1629810698875,15.17
1629810698890,12.35
1629810698906,9.57
1629810698921,7.07
1629810698937,4.99
1629810698953,3.27
1629810698968,1.69
1629810698984,-0.09
1629810699000,-2.32
1629810699015,-5.1
1629810699031,-8.4
1629810699046,-12.01
1629810699062,-15.72
1629810699078,-19.34
1629810699093,-22.76
1629810699109,-25.99
1629810699125,-29.17
1629810699140,-32.54
1629810699156,-36.38
1629810699171,-40.76
1629810699187,-45.35
1629810699203,-49.29
1629810699218,-51.37
1629810699234,-50.5
1629810699250,-46.11
1629810699265,-38.52
1629810699281,-28.84
1629810699296,-18.56
1629810699312,-9.04
1629810699328,-1.11
1629810699343,5.03
1629810699359,9.65
1629810699375,13.22
1629810699390,16.19
1629810699406,18.86
1629810699421,21.39
1629810699437,23.79
1629810699453,26.0
1629810699468,27.87
1629810699484,29.28
1629810699500,30.16
1629810699515,30.53
1629810699531,30.47
1629810699546,30.07
1629810699562,29.37
1629810699578,28.42
1629810699593,27.31
1629810699609,26.22
1629810699625,25.38
1629810699640,24.96
1629810699656,24.92
1629810699671,24.95
1629810699687,24.54
1629810699703,23.2
1629810699718,20.69
1629810699734,17.15
1629810699750,13.11
1629810699765,9.26
1629810699781,6.17
1629810699796,4.07
1629810699812,2.74
1629810699828,1.58
1629810699843,-0.14
1629810699859,-2.89
1629810699875,-6.75
1629810699890,-11.33
1629810699906,-16.01
1629810699921,-20.26
1629810699937,-23.8
1629810699953,-26.67
1629810699968,-29.18
1629810699984,-31.71
1629810700000,-34.64
1629810700015,-38.26
1629810700031,-42.77
1629810700046,-48.17
1629810700062,-54.05
1629810700078,-59.51
1629810700093,-63.27
1629810700109,-63.96
1629810700125,-60.75
1629810700140,-53.64
1629810700156,-43.56
1629810700171,-32.08
1629810700187,-20.79
1629810700203,-10.88
1629810700218,-2.88
1629810700234,3.35
1629810700250,8.32
1629810700265,12.62
1629810700281,16.68
1629810700296,20.73
1629810700312,24.78
1629810700328,28.77
1629810700343,32.55
1629810700359,35.91
1629810700375,38.66
1629810700390,40.64
1629810700406,41.72
1629810700421,41.82
1629810700437,41.04
1629810700453,39.57
1629810700468,37.81
1629810700484,36.17
1629810700500,34.92
1629810700515,34.13
1629810700531,33.65
1629810700546,33.16
1629810700562,32.33
1629810700578,30.97
1629810700593,29.05
1629810700609,26.69
1629810700625,24.06
1629810700640,21.35
1629810700656,18.65
1629810700671,16.0
1629810700687,13.35
1629810700703,10.68
1629810700718,7.99
1629810700734,5.31
1629810700750,2.71
1629810700765,0.2
1629810700781,-2.24
1629810700796,-4.75
1629810700812,-7.53
1629810700828,-10.78
1629810700843,-14.58
1629810700859,-18.8
1629810700875,-23.17
1629810700890,-27.29
1629810700906,-30.83
1629810700921,-33.69
1629810700937,-36.07
1629810700953,-38.5
1629810700968,-41.58
1629810700984,-45.77
1629810701000,-51.1
1629810701015,-57.06
1629810701031,-62.58
1629810701046,-66.3
1629810701062,-66.95
1629810701078,-63.77
1629810701093,-56.76
1629810701109,-46.76
1629810701125,-35.17
1629810701140,-23.59
1629810701156,-13.32
1629810701171,-5.01
1629810701187,1.27
1629810701203,5.96
1629810701218,9.69
1629810701234,13.01
1629810701250,16.32
1629810701265,19.82
1629810701281,23.54
1629810701296,27.39
1629810701312,31.11
1629810701328,34.37
1629810701343,36.83
1629810701359,38.27
1629810701375,38.7
1629810701390,38.34
1629810701406,37.52
1629810701421,36.63
1629810701437,35.91
1629810701453,35.46
1629810701468,35.18
1629810701484,34.96
1629810701500,34.57
1629810701515,33.85
1629810701531,32.74
1629810701546,31.24
1629810701562,29.46
1629810701578,27.54
1629810701593,25.61
1629810701609,23.67
1629810701625,21.68
1629810701640,19.47
1629810701656,16.86
1629810701671,13.76
1629810701687,10.24
1629810701703,6.56
1629810701718,3.1
1629810701734,0.2
1629810701750,-2.0
1629810701765,-3.64
1629810701781,-5.15
1629810701796,-7.02
1629810701812,-9.61
1629810701828,-13.03
1629810701843,-17.02
1629810701859,-21.17
1629810701875,-25.07
1629810701890,-28.47
1629810701906,-31.45
1629810701921,-34.41
1629810701937,-37.86
1629810701953,-42.28
1629810701968,-47.83
1629810701984,-54.14
1629810702000,-60.36
1629810702015,-65.21
1629810702031,-67.34
1629810702046,-65.7
1629810702062,-59.91
1629810702078,-50.42
1629810702093,-38.46
1629810702109,-25.75
1629810702125,-13.95
1629810702140,-4.32
1629810702156,2.68
1629810702171,7.35
1629810702187,10.53
1629810702203,13.18
1629810702218,16.1
1629810702234,19.6
1629810702250,23.56
1629810702265,27.56
1629810702281,31.1
1629810702296,33.82
1629810702312,35.52
1629810702328,36.23
1629810702343,36.14
1629810702359,35.5
1629810702375,34.55
1629810702390,33.55
1629810702406,32.72
1629810702421,32.2
1629810702437,32.03
1629810702453,32.11
1629810702468,32.15
1629810702484,31.8
1629810702500,30.74
1629810702515,28.76
1629810702531,25.94
1629810702546,22.55
1629810702562,18.97
1629810702578,15.6
1629810702593,12.66
1629810702609,10.2
1629810702625,8.08
1629810702640,6.11
1629810702656,4.11
1629810702671,1.96
1629810702687,-0.38
1629810702703,-2.98
1629810702718,-5.89
1629810702734,-9.15
1629810702750,-12.7
1629810702765,-16.31
1629810702781,-19.7
1629810702796,-22.58
1629810702812,-24.85
1629810702828,-26.62
1629810702843,-28.26
1629810702859,-30.25
1629810702875,-32.99
1629810702890,-36.75
1629810702906,-41.42
1629810702921,-46.43
1629810702937,-50.87
1629810702953,-53.54
1629810702968,-53.34
1629810702984,-49.71
1629810703000,-42.79
1629810703015,-33.51
1629810703031,-23.24
1629810703046,-13.34
1629810703062,-4.74
1629810703078,2.16
1629810703093,7.5
1629810703109,11.66
1629810703125,14.99
1629810703140,17.77
1629810703156,20.19
1629810703171,22.36
1629810703187,24.47
1629810703203,26.62
1629810703218,28.79
1629810703234,30.8
1629810703250,32.32
1629810703265,33.02
1629810703281,32.74
1629810703296,31.55
1629810703312,29.73
1629810703328,27.7
1629810703343,25.91
1629810703359,24.63
1629810703375,23.91
1629810703390,23.52
1629810703406,23.07
1629810703421,22.22
1629810703437,20.7
1629810703453,18.51
1629810703468,15.78
1629810703484,12.77
1629810703500,9.68
1629810703515,6.66
1629810703531,3.75
1629810703546,0.89
1629810703562,-1.93
1629810703578,-4.7
1629810703593,-7.45
1629810703609,-10.17
1629810703625,-12.84
1629810703640,-15.39
1629810703656,-17.71
1629810703671,-19.68
1629810703687,-21.36
1629810703703,-23.06
1629810703718,-25.36
1629810703734,-28.83
1629810703750,-33.81
1629810703765,-40.02
1629810703781,-46.56
1629810703796,-52.04
1629810703812,-54.98
1629810703828,-54.29
1629810703843,-49.63
1629810703859,-41.53
1629810703875,-31.2
1629810703890,-20.13
1629810703906,-9.69
1629810703921,-0.83
1629810703937,6.04
1629810703953,11.04
1629810703968,14.61
1629810703984,17.36
1629810704000,19.81
1629810704015,22.34
1629810704031,25.08
1629810704046,27.93
1629810704062,30.61
1629810704078,32.77
1629810704093,34.1
1629810704109,34.4
1629810704125,33.74
1629810704140,32.35
1629810704156,30.62
1629810704171,28.96
1629810704187,27.62
1629810704203,26.74
1629810704218,26.25
1629810704234,25.97
1629810704250,25.67
1629810704265,25.16
1629810704281,24.26
1629810704296,22.81
1629810704312,20.74
1629810704328,18.05
1629810704343,14.92
1629810704359,11.62
1629810704375,8.5
1629810704390,5.78
1629810704406,3.52
1629810704421,1.48
1629810704437,-0.7
1629810704453,-3.36
1629810704468,-6.71
1629810704484,-10.66
1629810704500,-14.92
1629810704515,-19.03
1629810704531,-22.61
1629810704546,-25.41
1629810704562,-27.52
1629810704578,-29.32
1629810704593,-31.39
1629810704609,-34.39
1629810704625,-38.78
1629810704640,-44.66
1629810704656,-51.61
1629810704671,-58.59
1629810704687,-64.13
1629810704703,-66.7
1629810704718,-65.2
1629810704734,-59.31
1629810704750,-49.71
1629810704765,-37.88
1629810704781,-25.63
1629810704796,-14.54
1629810704812,-5.53
1629810704828,1.26
1629810704843,6.39
1629810704859,10.56
1629810704875,14.47
1629810704890,18.46
1629810704906,22.61
1629810704921,26.8
1629810704937,30.8
1629810704953,34.34
1629810704968,37.15
1629810704984,39.02
1629810705000,39.74
1629810705015,39.32
1629810705031,37.96
1629810705046,36.11
1629810705062,34.36
1629810705078,33.21
1629810705093,32.93
1629810705109,33.43
1629810705125,34.32
1629810705140,35.01
1629810705156,35.0
1629810705171,34.05
1629810705187,32.22
1629810705203,29.79
1629810705218,27.09
1629810705234,24.39
1629810705250,21.82
1629810705265,19.37
1629810705281,16.97
1629810705296,14.55
1629810705312,12.04
1629810705328,9.38
1629810705343,6.64
1629810705359,3.85
1629810705375,1.12
1629810705390,-1.49
1629810705406,-4.04
1629810705421,-6.73
1629810705437,-9.89
1629810705453,-13.73
1629810705468,-18.29
1629810705484,-23.26
1629810705500,-28.13
1629810705515,-32.39
1629810705531,-35.8
1629810705546,-38.5
1629810705562,-40.97
1629810705578,-43.85
1629810705593,-47.63
1629810705609,-52.47
1629810705625,-57.99
1629810705640,-63.29
1629810705656,-67.15
1629810705671,-68.35
1629810705687,-65.96
1629810705703,-59.72
1629810705718,-50.19
1629810705734,-38.61
1629810705750,-26.54
1629810705765,-15.44
1629810705781,-6.28
1629810705796,0.66
1629810705812,5.69
1629810705828,9.5
1629810705843,12.89
1629810705859,16.45
1629810705875,20.48
1629810705890,24.93
1629810705906,29.58
1629810705921,34.07
1629810705937,38.03
1629810705953,41.13
1629810705968,43.17
1629810705984,44.05
1629810706000,43.8
1629810706015,42.65
1629810706031,40.97
1629810706046,39.19
1629810706062,37.71
1629810706078,36.72
1629810706093,36.13
1629810706109,35.69
1629810706125,35.07
1629810706140,34.0
1629810706156,32.41
1629810706171,30.35
1629810706187,27.99
1629810706203,25.52
1629810706218,23.05
1629810706234,20.56
1629810706250,17.97
1629810706265,15.18
1629810706281,12.21
1629810706296,9.2
1629810706312,6.35
1629810706328,3.86
1629810706343,1.76
1629810706359,-0.12
1629810706375,-2.18
1629810706390,-4.8
1629810706406,-8.24
1629810706421,-12.45
1629810706437,-17.13
1629810706453,-21.83
1629810706468,-26.12
1629810706484,-29.72
1629810706500,-32.52
1629810706515,-34.7
1629810706531,-36.65
1629810706546,-38.92
1629810706562,-42.09
1629810706578,-46.5
1629810706593,-52.09
1629810706609,-58.29
1629810706625,-63.98
1629810706640,-67.78
1629810706656,-68.38
1629810706671,-64.87
1629810706687,-57.14
1629810706703,-45.94
1629810706718,-32.72
1629810706734,-19.3
1629810706750,-7.36
1629810706765,1.99
1629810706781,8.46
1629810706796,12.49
1629810706812,15.05
1629810706828,17.15
1629810706843,19.55
1629810706859,22.55
1629810706875,26.03
1629810706890,29.6
1629810706906,32.78
1629810706921,35.2
1629810706937,36.66
1629810706953,37.13
1629810706968,36.74
1629810706984,35.68
1629810707000,34.22
1629810707015,32.65
1629810707031,31.17
1629810707046,29.96
1629810707062,29.04
1629810707078,28.33
1629810707093,27.66
1629810707109,26.81
1629810707125,25.66
1629810707140,24.14
1629810707156,22.3
1629810707171,20.22
1629810707187,18.01
1629810707203,15.75
1629810707218,13.43
1629810707234,11.04
1629810707250,8.54
1629810707265,5.96
1629810707281,3.32
1629810707296,0.74
1629810707312,-1.75
1629810707328,-4.2
1629810707343,-6.74
1629810707359,-9.53
1629810707375,-12.61
1629810707390,-15.9
1629810707406,-19.16
1629810707421,-22.15
1629810707437,-24.75
1629810707453,-27.09
1629810707468,-29.46
1629810707484,-32.33
1629810707500,-36.09
1629810707515,-40.82
1629810707531,-46.21
1629810707546,-51.39
1629810707562,-55.16
1629810707578,-56.22
1629810707593,-53.7
1629810707609,-47.38
1629810707625,-37.89
1629810707640,-26.56
1629810707656,-14.98
1629810707671,-4.57
1629810707687,3.75
1629810707703,9.78
1629810707718,13.87
1629810707734,16.72
1629810707750,19.03
1629810707765,21.28
1629810707781,23.61
1629810707796,25.87
1629810707812,27.79
1629810707828,29.13
1629810707843,29.8
1629810707859,29.89
1629810707875,29.55
1629810707890,28.92
1629810707906,28.08
1629810707921,27.02
1629810707937,25.81
1629810707953,24.56
1629810707968,23.42
1629810707984,22.54
1629810708000,21.98
1629810708015,21.6
1629810708031,21.15
1629810708046,20.36
1629810708062,18.98
1629810708078,16.94
1629810708093,14.38
1629810708109,11.54
1629810708125,8.74
1629810708140,6.23
1629810708156,4.08
1629810708171,2.16
1629810708187,0.23
1629810708203,-2.01
1629810708218,-4.8
1629810708234,-8.15
1629810708250,-11.85
1629810708265,-15.53
1629810708281,-18.79
1629810708296,-21.52
1629810708312,-23.88
1629810708328,-26.36
1629810708343,-29.48
1629810708359,-33.62
1629810708375,-38.68
1629810708390,-44.19
1629810708406,-49.27
1629810708421,-52.96
1629810708437,-54.38
1629810708453,-52.84
1629810708468,-48.03
1629810708484,-40.12
1629810708500,-29.77
1629810708515,-18.13
1629810708531,-6.69
1629810708546,3.19
1629810708562,10.53
1629810708578,15.09
1629810708593,17.39
1629810708609,18.41
1629810708625,19.18
1629810708640,20.38
1629810708656,22.24
1629810708671,24.53
1629810708687,26.88
1629810708703,28.9
1629810708718,30.43
1629810708734,31.52
1629810708750,32.25
1629810708765,32.7
1629810708781,32.82
1629810708796,32.54
1629810708812,31.83
1629810708828,30.79
1629810708843,29.61
1629810708859,28.46
1629810708875,27.42
1629810708890,26.34
1629810708906,25.05
1629810708921,23.34
1629810708937,21.18
1629810708953,18.63
1629810708968,15.93
1629810708984,13.29
