timestamp,bvp
1629708999000,1.91
1629708999015,1.39
1629708999031,1.06
1629708999046,1.09
1629708999062,1.65
1629708999078,2.78
1629708999093,4.37
1629708999109,6.1
1629708999125,7.59
1629708999140,8.52
1629708999156,8.71
1629708999171,8.18
1629708999187,7.17
1629708999203,6.02
1629708999218,5.04
1629708999234,4.4
1629708999250,4.11
1629708999265,4.04
1629708999281,4.01
1629708999296,3.92
1629708999312,3.71
1629708999328,3.41
1629708999343,3.04
1629708999359,2.58
1629708999375,1.96
1629708999390,1.15
1629708999406,0.18
1629708999421,-0.87
1629708999437,-1.93
1629708999453,-2.96
1629708999468,-3.98
1629708999484,-5.07
1629708999500,-6.29
1629708999515,-7.62
1629708999531,-8.94
1629708999546,-10.03
1629708999562,-10.62
1629708999578,-10.53
1629708999593,-9.7
1629708999609,-8.27
1629708999625,-6.49
1629708999640,-4.68
1629708999656,-3.0
1629708999671,-1.43
1629708999687,0.18
1629708999703,2.07
1629708999718,4.33
1629708999734,6.91
1629708999750,9.68
1629708999765,12.48
1629708999781,15.12
1629708999796,17.43
1629708999812,19.12
1629708999828,19.8
1629708999843,19.14
1629708999859,16.92
1629708999875,13.25
1629708999890,8.53
1629708999906,3.42
1629708999921,-1.17
1629708999937,-4.18
1629708999953,-4.65
1629708999968,-2.04
1629708999984,3.39
1629709000000,10.62
1629709000015,18.17
1629709000031,24.69
1629709000046,29.48
1629709000062,32.63
1629709000078,34.68
1629709000093,36.09
1629709000109,36.88
1629709000125,36.7
1629709000140,35.19
1629709000156,32.45
1629709000171,29.08
1629709000187,25.91
1629709000203,23.54
1629709000218,22.04
1629709000234,20.96
1629709000250,19.69
1629709000265,17.82
1629709000281,15.33
1629709000296,12.46
1629709000312,9.61
1629709000328,7.05
1629709000343,4.9
1629709000359,3.06
1629709000375,1.28
1629709000390,-0.71
1629709000406,-3.04
1629709000421,-5.71
1629709000437,-8.63
1629709000453,-11.55
1629709000468,-14.33
1629709000484,-16.98
1629709000500,-19.62
1629709000515,-22.46
1629709000531,-25.59
1629709000546,-28.88
1629709000562,-32.01
1629709000578,-34.57
1629709000593,-36.24
1629709000609,-36.95
1629709000625,-36.83
1629709000640,-36.08
1629709000656,-34.85
1629709000671,-33.15
1629709000687,-30.99
1629709000703,-28.49
1629709000718,-25.9
1629709000734,-23.55
1629709000750,-21.64
1629709000765,-20.11
1629709000781,-18.64
1629709000796,-16.85
1629709000812,-14.56
1629709000828,-11.83
1629709000843,-9.0
1629709000859,-6.43
1629709000875,-4.29
1629709000890,-2.48
1629709000906,-0.74
1629709000921,1.23
1629709000937,3.54
1629709000953,6.11
1629709000968,8.83
1629709000984,11.56
1629709001000,14.26
1629709001015,16.92
1629709001031,19.49
1629709001046,21.89
1629709001062,23.95
1629709001078,25.5
1629709001093,26.35
1629709001109,26.38
1629709001125,25.47
1629709001140,23.6
1629709001156,20.84
1629709001171,17.47
1629709001187,13.94
1629709001203,10.77
1629709001218,8.34
1629709001234,6.76
1629709001250,5.86
1629709001265,5.31
1629709001281,4.82
1629709001296,4.28
1629709001312,3.75
1629709001328,3.34
1629709001343,3.02
1629709001359,2.63
1629709001375,1.85
1629709001390,0.5
1629709001406,-1.43
1629709001421,-3.6
1629709001437,-5.52
1629709001453,-6.74
1629709001468,-7.05
1629709001484,-6.56
1629709001500,-5.7
1629709001515,-5.02
1629709001531,-4.99
1629709001546,-5.9
1629709001562,-7.69
1629709001578,-10.11
1629709001593,-12.79
1629709001609,-15.36
1629709001625,-17.52
1629709001640,-19.04
1629709001656,-19.79
1629709001671,-19.74
1629709001687,-19.0
1629709001703,-17.82
1629709001718,-16.51
1629709001734,-15.37
1629709001750,-14.55
1629709001765,-14.1
1629709001781,-13.94
1629709001796,-13.96
1629709001812,-14.12
1629709001828,-14.31
1629709001843,-14.4
1629709001859,-14.17
1629709001875,-13.35
1629709001890,-11.78
1629709001906,-9.48
1629709001921,-6.69
1629709001937,-3.82
1629709001953,-1.31
1629709001968,0.63
1629709001984,2.03
1629709002000,3.15
1629709002015,4.31
1629709002031,5.71
1629709002046,7.31
1629709002062,8.86
1629709002078,9.99
1629709002093,10.38
1629709002109,9.86
1629709002125,8.47
1629709002140,6.4
1629709002156,3.93
1629709002171,1.34
1629709002187,-1.15
1629709002203,-3.37
1629709002218,-5.23
1629709002234,-6.68
1629709002250,-7.69
1629709002265,-8.29
1629709002281,-8.57
1629709002296,-8.64
1629709002312,-8.67
1629709002328,-8.78
1629709002343,-9.07
1629709002359,-9.57
1629709002375,-10.17
1629709002390,-10.76
1629709002406,-11.23
1629709002421,-11.54
1629709002437,-11.73
1629709002453,-11.88
1629709002468,-12.01
1629709002484,-12.14
1629709002500,-12.26
1629709002515,-12.34
1629709002531,-12.45
1629709002546,-12.69
1629709002562,-13.22
1629709002578,-14.14
1629709002593,-15.44
1629709002609,-17.0
1629709002625,-18.62
1629709002640,-20.11
1629709002656,-21.31
1629709002671,-22.1
1629709002687,-22.39
1629709002703,-22.17
1629709002718,-21.48
1629709002734,-20.46
1629709002750,-19.24
1629709002765,-17.98
1629709002781,-16.66
1629709002796,-15.17
1629709002812,-13.28
1629709002828,-10.78
1629709002843,-7.62
1629709002859,-3.94
1629709002875,-0.1
1629709002890,3.52
1629709002906,6.57
1629709002921,8.87
1629709002937,10.39
1629709002953,11.26
1629709002968,11.69
1629709002984,11.87
1629709003000,11.98
1629709003015,12.18
1629709003031,12.56
1629709003046,13.24
1629709003062,14.29
1629709003078,15.75
1629709003093,17.51
1629709003109,19.42
1629709003125,21.25
1629709003140,22.79
1629709003156,23.88
1629709003171,24.44
1629709003187,24.47
1629709003203,24.03
1629709003218,23.17
1629709003234,21.92
1629709003250,20.32
1629709003265,18.38
1629709003281,16.17
1629709003296,13.76
1629709003312,11.24
1629709003328,8.73
1629709003343,6.32
1629709003359,4.13
1629709003375,2.19
1629709003390,0.55
1629709003406,-0.81
1629709003421,-1.92
1629709003437,-2.84
1629709003453,-3.6
1629709003468,-4.24
1629709003484,-4.76
1629709003500,-5.13
1629709003515,-5.34
1629709003531,-5.4
1629709003546,-5.43
1629709003562,-5.61
1629709003578,-6.19
1629709003593,-7.37
1629709003609,-9.23
1629709003625,-11.68
1629709003640,-14.44
1629709003656,-17.1
1629709003671,-19.19
1629709003687,-20.31
1629709003703,-20.2
1629709003718,-18.8
1629709003734,-16.24
1629709003750,-12.81
1629709003765,-8.87
1629709003781,-4.76
1629709003796,-0.77
1629709003812,2.86
1629709003828,5.92
1629709003843,8.29
1629709003859,9.94
1629709003875,10.95
1629709003890,11.6
1629709003906,12.16
1629709003921,12.87
1629709003937,13.83
1629709003953,14.96
1629709003968,16.1
1629709003984,17.04
1629709004000,17.64
1629709004015,17.83
1629709004031,17.66
1629709004046,17.2
1629709004062,16.63
1629709004078,16.12
1629709004093,15.81
1629709004109,15.75
1629709004125,15.95
1629709004140,16.32
1629709004156,16.78
1629709004171,17.29
1629709004187,17.77
1629709004203,18.13
1629709004218,18.2
1629709004234,17.79
1629709004250,16.83
1629709004265,15.41
1629709004281,13.75
1629709004296,12.15
1629709004312,10.85
1629709004328,9.86
1629709004343,9.13
1629709004359,8.51
1629709004375,7.93
1629709004390,7.35
1629709004406,6.77
1629709004421,6.07
1629709004437,5.04
1629709004453,3.52
1629709004468,1.45
1629709004484,-0.95
1629709004500,-3.31
1629709004515,-5.24
1629709004531,-6.55
1629709004546,-7.34
1629709004562,-7.98
1629709004578,-8.88
1629709004593,-10.23
1629709004609,-12.05
1629709004625,-14.13
1629709004640,-16.17
1629709004656,-18.03
1629709004671,-19.54
1629709004687,-20.59
1629709004703,-21.0
1629709004718,-20.62
1629709004734,-19.26
1629709004750,-16.99
1629709004765,-13.95
1629709004781,-10.46
1629709004796,-6.91
1629709004812,-3.6
1629709004828,-0.78
1629709004843,1.39
1629709004859,2.89
1629709004875,3.81
1629709004890,4.3
1629709004906,4.6
1629709004921,4.84
1629709004937,5.02
1629709004953,5.08
1629709004968,4.85
1629709004984,4.27
1629709005000,3.38
1629709005015,2.4
1629709005031,1.57
1629709005046,1.15
1629709005062,1.34
1629709005078,2.19
1629709005093,3.67
1629709005109,5.63
1629709005125,7.83
1629709005140,10.01
1629709005156,11.91
1629709005171,13.36
1629709005187,14.29
1629709005203,14.75
1629709005218,14.82
1629709005234,14.64
1629709005250,14.29
1629709005265,13.84
1629709005281,13.36
1629709005296,12.79
1629709005312,12.0
1629709005328,10.79
1629709005343,9.01
1629709005359,6.65
1629709005375,3.92
1629709005390,1.12
1629709005406,-1.4
1629709005421,-3.48
1629709005437,-5.2
1629709005453,-6.8
1629709005468,-8.56
1629709005484,-10.67
1629709005500,-13.11
1629709005515,-15.69
1629709005531,-18.13
1629709005546,-20.21
1629709005562,-21.75
1629709005578,-22.74
1629709005593,-23.22
1629709005609,-23.34
1629709005625,-23.26
1629709005640,-23.1
1629709005656,-22.87
1629709005671,-22.49
1629709005687,-21.79
1629709005703,-20.64
1629709005718,-19.0
1629709005734,-16.93
1629709005750,-14.6
1629709005765,-12.26
1629709005781,-10.09
1629709005796,-8.2
1629709005812,-6.53
1629709005828,-4.96
1629709005843,-3.32
1629709005859,-1.52
1629709005875,0.42
1629709005890,2.36
1629709005906,4.06
1629709005921,5.32
1629709005937,6.04
1629709005953,6.23
1629709005968,6.02
1629709005984,5.56
1629709006000,4.96
1629709006015,4.31
1629709006031,3.7
1629709006046,3.23
1629709006062,2.98
1629709006078,3.01
1629709006093,3.26
1629709006109,3.62
1629709006125,3.95
1629709006140,4.13
1629709006156,4.19
1629709006171,4.23
1629709006187,4.4
1629709006203,4.78
1629709006218,5.33
1629709006234,5.94
1629709006250,6.49
1629709006265,6.85
1629709006281,7.01
1629709006296,6.92
1629709006312,6.51
1629709006328,5.69
1629709006343,4.45
1629709006359,2.9
1629709006375,1.29
1629709006390,-0.1
1629709006406,-1.1
1629709006421,-1.71
1629709006437,-2.13
1629709006453,-2.64
1629709006468,-3.4
1629709006484,-4.4
1629709006500,-5.5
1629709006515,-6.51
1629709006531,-7.34
1629709006546,-8.01
1629709006562,-8.6
1629709006578,-9.05
1629709006593,-9.26
1629709006609,-9.03
1629709006625,-8.21
1629709006640,-6.85
1629709006656,-5.14
1629709006671,-3.33
1629709006687,-1.65
1629709006703,-0.22
1629709006718,0.99
1629709006734,2.06
1629709006750,3.11
1629709006765,4.2
1629709006781,5.32
1629709006796,6.41
1629709006812,7.36
1629709006828,8.07
1629709006843,8.5
1629709006859,8.67
1629709006875,8.68
1629709006890,8.68
1629709006906,8.76
1629709006921,8.89
1629709006937,9.02
1629709006953,9.03
1629709006968,8.9
1629709006984,8.66
1629709007000,8.35
1629709007015,8.0
1629709007031,7.58
1629709007046,7.01
1629709007062,6.24
1629709007078,5.29
1629709007093,4.19
1629709007109,3.07
1629709007125,2.06
1629709007140,1.28
1629709007156,0.73
1629709007171,0.35
1629709007187,0.01
1629709007203,-0.43
1629709007218,-0.99
1629709007234,-1.71
1629709007250,-2.48
1629709007265,-3.22
1629709007281,-3.84
1629709007296,-4.34
1629709007312,-4.81
1629709007328,-5.37
1629709007343,-6.18
1629709007359,-7.26
1629709007375,-8.57
1629709007390,-9.9
1629709007406,-10.96
1629709007421,-11.45
1629709007437,-11.13
1629709007453,-9.97
1629709007468,-8.12
1629709007484,-5.82
1629709007500,-3.39
1629709007515,-1.06
1629709007531,1.02
1629709007546,2.8
1629709007562,4.25
1629709007578,5.44
1629709007593,6.4
1629709007609,7.19
1629709007625,7.88
1629709007640,8.56
1629709007656,9.26
1629709007671,10.01
1629709007687,10.8
1629709007703,11.58
1629709007718,12.32
1629709007734,12.91
1629709007750,13.3
1629709007765,13.44
1629709007781,13.35
1629709007796,13.1
1629709007812,12.77
1629709007828,12.47
1629709007843,12.26
1629709007859,12.13
1629709007875,12.02
1629709007890,11.87
1629709007906,11.57
1629709007921,11.13
1629709007937,10.55
1629709007953,9.86
1629709007968,9.09
1629709007984,8.21
1629709008000,7.19
1629709008015,6.04
1629709008031,4.8
1629709008046,3.54
1629709008062,2.36
1629709008078,1.3
1629709008093,0.3
1629709008109,-0.71
1629709008125,-1.78
1629709008140,-2.97
1629709008156,-4.28
1629709008171,-5.72
1629709008187,-7.34
1629709008203,-9.17
1629709008218,-11.16
1629709008234,-13.18
1629709008250,-14.95
1629709008265,-16.21
1629709008281,-16.77
1629709008296,-16.56
1629709008312,-15.62
1629709008328,-14.07
1629709008343,-11.99
1629709008359,-9.48
1629709008375,-6.69
1629709008390,-3.79
1629709008406,-0.99
1629709008421,1.5
1629709008437,3.64
1629709008453,5.5
1629709008468,7.27
1629709008484,9.16
1629709008500,11.25
1629709008515,13.48
1629709008531,15.65
1629709008546,17.57
1629709008562,19.05
1629709008578,20.04
1629709008593,20.55
1629709008609,20.6
1629709008625,20.24
1629709008640,19.48
1629709008656,18.38
1629709008671,17.07
1629709008687,15.71
1629709008703,14.49
1629709008718,13.54
1629709008734,12.82
1629709008750,12.2
1629709008765,11.54
1629709008781,10.72
1629709008796,9.76
1629709008812,8.71
1629709008828,7.6
1629709008843,6.39
1629709008859,5.03
1629709008875,3.4
1629709008890,1.5
1629709008906,-0.5
1629709008921,-2.37
1629709008937,-3.88
1629709008953,-4.87
1629709008968,-5.38
1629709008984,-5.63
1629709009000,-5.9
1629709009015,-6.44
1629709009031,-7.48
1629709009046,-9.04
1629709009062,-11.09
1629709009078,-13.48
1629709009093,-15.97
1629709009109,-18.31
1629709009125,-20.24
1629709009140,-21.55
1629709009156,-22.09
1629709009171,-21.81
1629709009187,-20.75
1629709009203,-19.04
1629709009218,-16.87
1629709009234,-14.4
1629709009250,-11.81
1629709009265,-9.2
1629709009281,-6.66
1629709009296,-4.27
1629709009312,-2.13
1629709009328,-0.33
1629709009343,1.06
1629709009359,2.04
1629709009375,2.72
1629709009390,3.19
1629709009406,3.57
1629709009421,3.94
1629709009437,4.28
1629709009453,4.54
1629709009468,4.67
1629709009484,4.69
1629709009500,4.67
1629709009515,4.71
1629709009531,4.9
1629709009546,5.31
1629709009562,5.97
1629709009578,6.82
1629709009593,7.71
1629709009609,8.41
1629709009625,8.74
1629709009640,8.55
1629709009656,7.88
1629709009671,6.94
1629709009687,6.01
1629709009703,5.41
1629709009718,5.26
1629709009734,5.5
1629709009750,5.91
1629709009765,6.23
1629709009781,6.27
1629709009796,6.02
1629709009812,5.56
1629709009828,5.0
1629709009843,4.39
1629709009859,3.74
1629709009875,2.98
1629709009890,2.04
1629709009906,0.91
1629709009921,-0.38
1629709009937,-1.78
1629709009953,-3.24
1629709009968,-4.74
1629709009984,-6.25
1629709010000,-7.73
1629709010015,-9.13
1629709010031,-10.45
1629709010046,-11.75
1629709010062,-13.15
1629709010078,-14.74
1629709010093,-16.57
1629709010109,-18.59
1629709010125,-20.61
1629709010140,-22.37
1629709010156,-23.57
1629709010171,-24.0
1629709010187,-23.56
1629709010203,-22.26
1629709010218,-20.23
1629709010234,-17.67
1629709010250,-14.79
1629709010265,-11.76
1629709010281,-8.75
1629709010296,-5.84
1629709010312,-3.08
1629709010328,-0.54
1629709010343,1.77
1629709010359,3.8
1629709010375,5.48
1629709010390,6.77
1629709010406,7.65
1629709010421,8.2
1629709010437,8.55
1629709010453,8.83
1629709010468,9.11
1629709010484,9.35
1629709010500,9.47
1629709010515,9.45
1629709010531,9.36
1629709010546,9.33
1629709010562,9.5
1629709010578,9.91
1629709010593,10.42
1629709010609,10.79
1629709010625,10.85
1629709010640,10.55
1629709010656,10.03
1629709010671,9.57
1629709010687,9.3
1629709010703,9.25
1629709010718,9.24
1629709010734,9.09
1629709010750,8.68
1629709010765,8.02
1629709010781,7.28
1629709010796,6.56
1629709010812,5.93
1629709010828,5.35
1629709010843,4.7
1629709010859,3.95
1629709010875,3.12
1629709010890,2.24
1629709010906,1.32
1629709010921,0.36
1629709010937,-0.67
1629709010953,-1.79
1629709010968,-2.99
1629709010984,-4.27
1629709011000,-5.66
1629709011015,-7.11
1629709011031,-8.56
1629709011046,-9.8
1629709011062,-10.61
1629709011078,-10.88
1629709011093,-10.66
1629709011109,-10.24
1629709011125,-9.99
1629709011140,-10.24
1629709011156,-11.08
1629709011171,-12.4
1629709011187,-13.98
1629709011203,-15.62
1629709011218,-17.14
1629709011234,-18.44
1629709011250,-19.36
1629709011265,-19.76
1629709011281,-19.55
1629709011296,-18.66
1629709011312,-17.18
1629709011328,-15.24
1629709011343,-13.05
1629709011359,-10.75
1629709011375,-8.46
1629709011390,-6.28
1629709011406,-4.25
1629709011421,-2.39
1629709011437,-0.73
1629709011453,0.73
1629709011468,1.99
1629709011484,3.06
1629709011500,3.97
1629709011515,4.8
1629709011531,5.65
1629709011546,6.58
1629709011562,7.55
1629709011578,8.42
1629709011593,8.98
1629709011609,9.12
1629709011625,8.85
1629709011640,8.37
1629709011656,7.96
1629709011671,7.84
1629709011687,8.1
1629709011703,8.68
1629709011718,9.38
1629709011734,9.99
1629709011750,10.36
1629709011765,10.44
1629709011781,10.23
1629709011796,9.82
1629709011812,9.31
1629709011828,8.86
1629709011843,8.56
1629709011859,8.48
1629709011875,8.63
1629709011890,8.99
1629709011906,9.46
1629709011921,9.87
1629709011937,9.96
1629709011953,9.44
1629709011968,8.05
1629709011984,5.77
1629709012000,2.78
1629709012015,-0.52
1629709012031,-3.66
1629709012046,-6.32
1629709012062,-8.33
1629709012078,-9.71
1629709012093,-10.57
1629709012109,-11.02
1629709012125,-11.16
1629709012140,-11.08
1629709012156,-10.9
1629709012171,-10.81
1629709012187,-10.97
1629709012203,-11.5
1629709012218,-12.35
1629709012234,-13.43
1629709012250,-14.6
1629709012265,-15.71
1629709012281,-16.64
1629709012296,-17.19
1629709012312,-17.28
1629709012328,-16.8
1629709012343,-15.79
1629709012359,-14.3
1629709012375,-12.42
1629709012390,-10.25
1629709012406,-7.91
1629709012421,-5.53
1629709012437,-3.25
1629709012453,-1.26
1629709012468,0.4
1629709012484,1.79
1629709012500,3.15
1629709012515,4.74
1629709012531,6.77
1629709012546,9.25
1629709012562,11.98
1629709012578,14.58
1629709012593,16.67
1629709012609,18.02
1629709012625,18.64
1629709012640,18.8
1629709012656,18.94
1629709012671,19.47
1629709012687,20.6
1629709012703,22.17
1629709012718,23.77
1629709012734,24.83
1629709012750,24.87
1629709012765,23.69
1629709012781,21.38
1629709012796,18.41
1629709012812,15.49
1629709012828,13.44
1629709012843,12.87
1629709012859,13.98
1629709012875,16.35
1629709012890,19.06
1629709012906,21.03
1629709012921,21.34
1629709012937,19.67
1629709012953,16.24
1629709012968,11.66
1629709012984,6.59
1629709013000,1.5
1629709013015,-3.43
1629709013031,-8.13
1629709013046,-12.6
1629709013062,-16.71
1629709013078,-20.27
1629709013093,-23.12
1629709013109,-25.13
1629709013125,-26.3
1629709013140,-26.71
1629709013156,-26.55
1629709013171,-26.08
1629709013187,-25.58
1629709013203,-25.37
1629709013218,-25.63
1629709013234,-26.48
1629709013250,-27.88
1629709013265,-29.59
1629709013281,-31.25
1629709013296,-32.42
1629709013312,-32.7
1629709013328,-31.82
1629709013343,-29.83
1629709013359,-27.0
1629709013375,-23.71
1629709013390,-20.28
1629709013406,-16.88
1629709013421,-13.56
1629709013437,-10.32
1629709013453,-7.22
1629709013468,-4.31
1629709013484,-1.68
1629709013500,0.69
1629709013515,2.82
1629709013531,4.71
1629709013546,6.19
1629709013562,7.0
1629709013578,6.93
1629709013593,5.97
1629709013609,4.39
1629709013625,2.67
1629709013640,1.23
1629709013656,0.34
1629709013671,-0.11
1629709013687,-0.3
1629709013703,-0.48
1629709013718,-0.69
1629709013734,-0.81
1629709013750,-0.63
1629709013765,-0.03
1629709013781,0.9
1629709013796,1.95
1629709013812,2.85
1629709013828,3.46
1629709013843,3.79
1629709013859,3.95
1629709013875,4.06
1629709013890,4.17
1629709013906,4.21
1629709013921,4.09
1629709013937,3.76
1629709013953,3.29
1629709013968,2.83
1629709013984,2.57
1629709014000,2.6
1629709014015,2.89
1629709014031,3.32
1629709014046,3.71
1629709014062,3.91
1629709014078,3.86
1629709014093,3.55
1629709014109,3.09
1629709014125,2.57
1629709014140,2.02
1629709014156,1.33
1629709014171,0.33
1629709014187,-1.17
1629709014203,-3.29
1629709014218,-5.93
1629709014234,-8.85
1629709014250,-11.7
1629709014265,-14.16
1629709014281,-16.05
1629709014296,-17.36
1629709014312,-18.18
1629709014328,-18.66
1629709014343,-18.88
1629709014359,-18.86
1629709014375,-18.59
1629709014390,-18.09
1629709014406,-17.43
1629709014421,-16.72
1629709014437,-16.06
1629709014453,-15.45
1629709014468,-14.85
1629709014484,-14.09
1629709014500,-13.08
1629709014515,-11.81
1629709014531,-10.34
1629709014546,-8.82
1629709014562,-7.35
1629709014578,-5.96
1629709014593,-4.59
1629709014609,-3.19
1629709014625,-1.72
1629709014640,-0.19
1629709014656,1.31
1629709014671,2.75
1629709014687,4.13
1629709014703,5.49
1629709014718,6.81
1629709014734,8.04
1629709014750,9.03
1629709014765,9.71
1629709014781,10.11
1629709014796,10.38
1629709014812,10.73
1629709014828,11.25
1629709014843,11.92
1629709014859,12.57
1629709014875,12.98
1629709014890,12.97
1629709014906,12.48
1629709014921,11.58
1629709014937,10.37
1629709014953,9.01
1629709014968,7.63
1629709014984,6.32
1629709015000,5.19
1629709015015,4.26
1629709015031,3.5
1629709015046,2.83
1629709015062,2.18
1629709015078,1.52
1629709015093,0.93
1629709015109,0.44
1629709015125,0.02
1629709015140,-0.45
1629709015156,-1.17
1629709015171,-2.25
1629709015187,-3.68
1629709015203,-5.31
1629709015218,-6.9
1629709015234,-8.2
1629709015250,-9.06
1629709015265,-9.44
1629709015281,-9.4
1629709015296,-9.06
1629709015312,-8.58
1629709015328,-8.05
1629709015343,-7.54
1629709015359,-7.03
1629709015375,-6.41
1629709015390,-5.52
1629709015406,-4.25
1629709015421,-2.63
1629709015437,-0.83
1629709015453,0.92
1629709015468,2.37
1629709015484,3.39
1629709015500,3.96
1629709015515,4.18
1629709015531,4.26
1629709015546,4.54
1629709015562,5.46
1629709015578,7.41
1629709015593,10.59
1629709015609,14.88
1629709015625,19.71
1629709015640,24.24
1629709015656,27.68
1629709015671,29.58
1629709015687,30.07
1629709015703,29.68
1629709015718,29.1
1629709015734,28.77
1629709015750,28.68
1629709015765,28.46
1629709015781,27.62
1629709015796,25.88
1629709015812,23.28
1629709015828,20.19
1629709015843,17.01
1629709015859,13.97
1629709015875,11.0
1629709015890,7.82
1629709015906,4.18
1629709015921,-0.01
1629709015937,-4.52
1629709015953,-8.96
1629709015968,-12.84
1629709015984,-15.9
1629709016000,-18.07
1629709016015,-19.49
1629709016031,-20.36
1629709016046,-20.83
1629709016062,-20.98
1629709016078,-20.82
1629709016093,-20.36
1629709016109,-19.65
1629709016125,-18.8
1629709016140,-17.92
1629709016156,-17.08
1629709016171,-16.35
1629709016187,-15.72
1629709016203,-15.16
1629709016218,-14.62
1629709016234,-13.97
1629709016250,-13.09
1629709016265,-11.91
1629709016281,-10.43
1629709016296,-8.79
1629709016312,-7.17
1629709016328,-5.73
1629709016343,-4.48
1629709016359,-3.33
1629709016375,-2.13
1629709016390,-0.72
1629709016406,0.9
1629709016421,2.6
1629709016437,4.21
1629709016453,5.56
1629709016468,6.55
1629709016484,7.23
1629709016500,7.68
1629709016515,8.04
1629709016531,8.46
1629709016546,9.06
1629709016562,9.87
1629709016578,10.85
1629709016593,11.85
1629709016609,12.67
1629709016625,13.16
1629709016640,13.26
1629709016656,13.05
1629709016671,12.65
1629709016687,12.21
1629709016703,11.78
1629709016718,11.31
1629709016734,10.68
1629709016750,9.8
1629709016765,8.63
1629709016781,7.27
1629709016796,5.86
1629709016812,4.56
1629709016828,3.4
1629709016843,2.33
1629709016859,1.25
1629709016875,0.01
1629709016890,-1.43
1629709016906,-2.99
1629709016921,-4.56
1629709016937,-6.03
1629709016953,-7.34
1629709016968,-8.55
1629709016984,-9.78
1629709017000,-11.16
1629709017015,-12.79
1629709017031,-14.67
1629709017046,-16.66
1629709017062,-18.57
1629709017078,-20.21
1629709017093,-21.35
1629709017109,-21.87
1629709017125,-21.69
1629709017140,-20.8
1629709017156,-19.25
1629709017171,-17.13
1629709017187,-14.55
1629709017203,-11.65
1629709017218,-8.54
1629709017234,-5.37
1629709017250,-2.28
1629709017265,0.55
1629709017281,3.0
1629709017296,5.0
1629709017312,6.59
1629709017328,7.87
1629709017343,8.95
1629709017359,9.92
1629709017375,10.78
1629709017390,11.52
1629709017406,12.13
1629709017421,12.66
1629709017437,13.16
1629709017453,13.63
1629709017468,14.08
1629709017484,14.44
1629709017500,14.75
1629709017515,15.07
1629709017531,15.49
1629709017546,16.04
1629709017562,16.66
1629709017578,17.19
1629709017593,17.47
1629709017609,17.42
1629709017625,17.06
1629709017640,16.45
1629709017656,15.61
1629709017671,14.51
1629709017687,13.11
1629709017703,11.46
1629709017718,9.74
1629709017734,8.21
1629709017750,7.08
1629709017765,6.4
1629709017781,6.03
1629709017796,5.71
1629709017812,5.15
1629709017828,4.29
1629709017843,3.17
1629709017859,1.96
1629709017875,0.79
1629709017890,-0.32
1629709017906,-1.47
1629709017921,-2.81
1629709017937,-4.4
1629709017953,-6.21
1629709017968,-8.11
1629709017984,-10.03
1629709018000,-11.93
1629709018015,-13.93
1629709018031,-16.1
1629709018046,-18.41
1629709018062,-20.59
1629709018078,-22.27
1629709018093,-23.08
1629709018109,-22.84
1629709018125,-21.57
1629709018140,-19.45
1629709018156,-16.68
1629709018171,-13.42
1629709018187,-9.81
1629709018203,-6.01
1629709018218,-2.29
1629709018234,1.02
1629709018250,3.63
1629709018265,5.45
1629709018281,6.6
1629709018296,7.35
1629709018312,7.93
1629709018328,8.47
1629709018343,8.96
1629709018359,9.4
1629709018375,9.83
1629709018390,10.33
1629709018406,11.01
1629709018421,11.83
1629709018437,12.65
1629709018453,13.28
1629709018468,13.6
1629709018484,13.67
1629709018500,13.67
1629709018515,13.81
1629709018531,14.16
1629709018546,14.65
1629709018562,15.12
1629709018578,15.36
1629709018593,15.25
1629709018609,14.69
1629709018625,13.69
1629709018640,12.35
1629709018656,10.85
1629709018671,9.46
1629709018687,8.51
1629709018703,8.17
1629709018718,8.43
1629709018734,9.06
1629709018750,9.63
1629709018765,9.76
1629709018781,9.25
1629709018796,8.12
1629709018812,6.63
1629709018828,5.09
1629709018843,3.68
1629709018859,2.37
1629709018875,1.0
1629709018890,-0.61
1629709018906,-2.55
1629709018921,-4.67
1629709018937,-6.74
1629709018953,-8.55
1629709018968,-10.04
1629709018984,-11.35
1629709019000,-12.76
1629709019015,-14.51
1629709019031,-16.71
1629709019046,-19.25
1629709019062,-21.87
1629709019078,-24.25
1629709019093,-26.16
1629709019109,-27.42
1629709019125,-27.96
1629709019140,-27.77
1629709019156,-26.81
1629709019171,-25.14
1629709019187,-22.79
1629709019203,-19.91
1629709019218,-16.7
1629709019234,-13.42
1629709019250,-10.33
1629709019265,-7.61
1629709019281,-5.33
1629709019296,-3.41
1629709019312,-1.71
1629709019328,-0.13
1629709019343,1.37
1629709019359,2.74
1629709019375,3.87
1629709019390,4.7
1629709019406,5.27
1629709019421,5.66
1629709019437,6.06
1629709019453,6.62
1629709019468,7.46
1629709019484,8.61
1629709019500,10.08
1629709019515,11.79
1629709019531,13.57
1629709019546,15.21
1629709019562,16.47
1629709019578,17.18
1629709019593,17.26
1629709019609,16.73
1629709019625,15.68
1629709019640,14.25
1629709019656,12.66
1629709019671,11.13
1629709019687,9.94
1629709019703,9.22
1629709019718,8.98
1629709019734,9.01
1629709019750,8.97
1629709019765,8.57
1629709019781,7.66
1629709019796,6.33
1629709019812,4.83
1629709019828,3.49
1629709019843,2.43
1629709019859,1.67
1629709019875,1.09
1629709019890,0.55
1629709019906,-0.02
1629709019921,-0.67
1629709019937,-1.36
1629709019953,-2.15
1629709019968,-3.14
1629709019984,-4.48
1629709020000,-6.33
1629709020015,-8.72
1629709020031,-11.54
1629709020046,-14.5
1629709020062,-17.25
1629709020078,-19.44
1629709020093,-20.81
1629709020109,-21.26
1629709020125,-20.82
1629709020140,-19.65
1629709020156,-17.97
1629709020171,-16.0
1629709020187,-13.92
1629709020203,-11.87
1629709020218,-9.95
1629709020234,-8.24
1629709020250,-6.74
1629709020265,-5.4
1629709020281,-4.12
1629709020296,-2.8
1629709020312,-1.45
1629709020328,-0.14
1629709020343,0.97
1629709020359,1.73
1629709020375,2.08
1629709020390,2.05
1629709020406,1.81
1629709020421,1.52
1629709020437,1.37
1629709020453,1.47
1629709020468,1.89
1629709020484,2.67
1629709020500,3.78
1629709020515,5.12
1629709020531,6.57
1629709020546,8.0
1629709020562,9.34
1629709020578,10.58
1629709020593,11.7
1629709020609,12.64
1629709020625,13.26
1629709020640,13.44
1629709020656,13.07
1629709020671,12.21
1629709020687,10.99
1629709020703,9.7
1629709020718,8.6
1629709020734,7.87
1629709020750,7.56
1629709020765,7.59
1629709020781,7.79
1629709020796,7.97
1629709020812,7.96
1629709020828,7.69
1629709020843,7.12
1629709020859,6.28
1629709020875,5.2
1629709020890,3.89
1629709020906,2.32
1629709020921,0.44
1629709020937,-1.74
1629709020953,-4.15
1629709020968,-6.7
1629709020984,-9.16
1629709021000,-11.35
1629709021015,-13.01
1629709021031,-13.98
1629709021046,-14.08
1629709021062,-13.33
1629709021078,-11.81
1629709021093,-9.65
1629709021109,-7.07
1629709021125,-4.23
1629709021140,-1.27
1629709021156,1.64
1629709021171,4.43
1629709021187,6.96
1629709021203,9.07
1629709021218,10.63
1629709021234,11.52
1629709021250,11.7
1629709021265,11.3
1629709021281,10.57
1629709021296,9.83
1629709021312,9.36
1629709021328,9.28
1629709021343,9.51
1629709021359,9.88
1629709021375,10.2
1629709021390,10.41
1629709021406,10.58
1629709021421,10.81
1629709021437,11.13
1629709021453,11.44
1629709021468,11.55
1629709021484,11.22
1629709021500,10.4
1629709021515,9.19
1629709021531,7.79
1629709021546,6.45
1629709021562,5.3
1629709021578,4.41
1629709021593,3.68
1629709021609,3.03
1629709021625,2.33
1629709021640,1.49
1629709021656,0.42
1629709021671,-0.95
1629709021687,-2.63
1629709021703,-4.6
1629709021718,-6.7
1629709021734,-8.73
1629709021750,-10.44
1629709021765,-11.75
1629709021781,-12.79
1629709021796,-13.92
1629709021812,-15.63
1629709021828,-18.39
1629709021843,-22.44
1629709021859,-27.65
1629709021875,-33.52
1629709021890,-39.2
1629709021906,-43.75
1629709021921,-46.32
1629709021937,-46.39
1629709021953,-43.92
1629709021968,-39.3
1629709021984,-33.25
1629709022000,-26.56
1629709022015,-19.81
1629709022031,-13.32
1629709022046,-7.15
1629709022062,-1.32
1629709022078,4.08
1629709022093,8.78
1629709022109,12.49
1629709022125,15.04
1629709022140,16.42
1629709022156,16.84
1629709022171,16.58
1629709022187,15.92
1629709022203,15.07
1629709022218,14.15
1629709022234,13.22
1629709022250,12.37
1629709022265,11.65
1629709022281,11.11
1629709022296,10.79
1629709022312,10.71
1629709022328,10.91
1629709022343,11.35
1629709022359,11.92
1629709022375,12.47
1629709022390,12.85
1629709022406,13.03
1629709022421,13.11
1629709022437,13.21
1629709022453,13.46
1629709022468,13.79
1629709022484,14.0
1629709022500,13.82
1629709022515,13.11
1629709022531,11.92
1629709022546,10.49
1629709022562,9.14
1629709022578,8.11
1629709022593,7.48
1629709022609,7.09
1629709022625,6.67
1629709022640,5.99
1629709022656,4.91
1629709022671,3.43
1629709022687,1.65
1629709022703,-0.29
1629709022718,-2.31
1629709022734,-4.34
1629709022750,-6.39
1629709022765,-8.44
1629709022781,-10.49
1629709022796,-12.53
1629709022812,-14.6
1629709022828,-16.71
1629709022843,-18.81
1629709022859,-20.79
1629709022875,-22.45
1629709022890,-23.58
1629709022906,-24.0
1629709022921,-23.67
1629709022937,-22.68
1629709022953,-21.21
1629709022968,-19.38
1629709022984,-17.27
1629709023000,-14.94
1629709023015,-12.39
1629709023031,-9.71
1629709023046,-6.99
1629709023062,-4.28
1629709023078,-1.62
1629709023093,0.99
1629709023109,3.51
1629709023125,5.86
1629709023140,7.94
1629709023156,9.68
1629709023171,11.1
1629709023187,12.3
1629709023203,13.37
1629709023218,14.3
1629709023234,14.99
1629709023250,15.3
1629709023265,15.21
1629709023281,14.84
1629709023296,14.52
1629709023312,14.54
1629709023328,15.08
1629709023343,16.12
1629709023359,17.45
1629709023375,18.81
1629709023390,19.94
1629709023406,20.74
1629709023421,21.17
1629709023437,21.32
1629709023453,21.29
1629709023468,21.12
1629709023484,20.79
1629709023500,20.19
1629709023515,19.2
1629709023531,17.83
1629709023546,16.23
1629709023562,14.7
1629709023578,13.53
1629709023593,12.85
1629709023609,12.48
1629709023625,12.03
1629709023640,11.02
1629709023656,9.15
1629709023671,6.48
1629709023687,3.43
1629709023703,0.58
1629709023718,-1.56
1629709023734,-2.82
1629709023750,-3.42
1629709023765,-3.8
1629709023781,-4.48
1629709023796,-5.83
1629709023812,-7.98
1629709023828,-10.77
1629709023843,-13.82
1629709023859,-16.54
1629709023875,-18.31
1629709023890,-18.58
1629709023906,-17.08
1629709023921,-14.05
1629709023937,-10.33
1629709023953,-7.24
1629709023968,-6.16
1629709023984,-8.03
1629709024000,-12.84
1629709024015,-19.61
1629709024031,-26.73
1629709024046,-32.59
1629709024062,-36.15
1629709024078,-37.21
1629709024093,-36.17
1629709024109,-33.73
1629709024125,-30.41
1629709024140,-26.42
1629709024156,-21.83
1629709024171,-16.81
1629709024187,-11.71
1629709024203,-7.1
1629709024218,-3.43
1629709024234,-0.85
1629709024250,0.85
1629709024265,2.12
1629709024281,3.44
1629709024296,5.05
1629709024312,6.93
1629709024328,8.82
1629709024343,10.35
1629709024359,11.27
1629709024375,11.54
1629709024390,11.36
1629709024406,11.07
1629709024421,11.0
1629709024437,11.31
1629709024453,11.92
1629709024468,12.58
1629709024484,12.92
1629709024500,12.66
1629709024515,11.72
1629709024531,10.25
1629709024546,8.53
1629709024562,6.93
1629709024578,5.7
1629709024593,4.86
1629709024609,4.3
1629709024625,3.68
1629709024640,2.72
1629709024656,1.2
1629709024671,-0.83
1629709024687,-3.18
1629709024703,-5.55
1629709024718,-7.68
1629709024734,-9.49
1629709024750,-11.04
1629709024765,-12.51
1629709024781,-14.05
1629709024796,-15.82
1629709024812,-17.82
1629709024828,-19.98
1629709024843,-22.13
1629709024859,-24.04
1629709024875,-25.49
1629709024890,-26.26
1629709024906,-26.24
1629709024921,-25.36
1629709024937,-23.68
1629709024953,-21.24
1629709024968,-18.11
1629709024984,-14.38
1629709025000,-10.27
1629709025015,-6.09
1629709025031,-2.18
1629709025046,1.14
1629709025062,3.79
1629709025078,5.87
1629709025093,7.64
1629709025109,9.38
1629709025125,11.2
1629709025140,13.14
1629709025156,15.09
1629709025171,17.0
1629709025187,18.86
1629709025203,20.76
1629709025218,22.78
1629709025234,24.9
1629709025250,27.03
1629709025265,29.02
1629709025281,30.77
1629709025296,32.15
1629709025312,33.07
1629709025328,33.48
1629709025343,33.37
1629709025359,32.91
1629709025375,32.33
1629709025390,31.83
1629709025406,31.52
1629709025421,31.35
1629709025437,31.26
1629709025453,31.22
1629709025468,31.21
1629709025484,31.15
1629709025500,30.81
1629709025515,29.77
1629709025531,27.78
1629709025546,24.86
1629709025562,21.5
1629709025578,18.38
1629709025593,16.0
1629709025609,14.46
1629709025625,13.33
1629709025640,12.05
1629709025656,10.22
1629709025671,7.93
1629709025687,5.56
1629709025703,3.57
1629709025718,2.12
1629709025734,0.93
1629709025750,-0.46
1629709025765,-2.57
1629709025781,-5.57
1629709025796,-9.34
1629709025812,-13.43
1629709025828,-17.28
1629709025843,-20.43
1629709025859,-22.71
1629709025875,-24.18
1629709025890,-25.07
1629709025906,-25.61
1629709025921,-25.81
1629709025937,-25.51
1629709025953,-24.43
1629709025968,-22.46
1629709025984,-19.77
1629709026000,-16.77
1629709026015,-13.96
1629709026031,-11.74
1629709026046,-10.2
1629709026062,-9.14
1629709026078,-8.2
1629709026093,-7.12
1629709026109,-5.78
1629709026125,-4.32
1629709026140,-2.97
1629709026156,-2.03
1629709026171,-1.68
1629709026187,-1.98
1629709026203,-2.81
1629709026218,-3.97
1629709026234,-5.21
1629709026250,-6.28
1629709026265,-6.97
1629709026281,-7.16
1629709026296,-6.91
1629709026312,-6.39
1629709026328,-5.83
1629709026343,-5.4
1629709026359,-5.17
1629709026375,-5.08
1629709026390,-4.99
1629709026406,-4.76
1629709026421,-4.36
1629709026437,-3.9
1629709026453,-3.56
1629709026468,-3.5
1629709026484,-3.79
1629709026500,-4.36
1629709026515,-5.09
1629709026531,-5.8
1629709026546,-6.38
1629709026562,-6.82
1629709026578,-7.23
1629709026593,-7.82
1629709026609,-8.82
1629709026625,-10.33
1629709026640,-12.29
1629709026656,-14.49
1629709026671,-16.7
1629709026687,-18.74
1629709026703,-20.64
1629709026718,-22.53
1629709026734,-24.48
1629709026750,-26.4
1629709026765,-28.01
1629709026781,-28.87
1629709026796,-28.61
1629709026812,-27.08
1629709026828,-24.38
1629709026843,-20.82
1629709026859,-16.74
1629709026875,-12.44
1629709026890,-8.14
1629709026906,-4.0
1629709026921,-0.19
1629709026937,3.09
1629709026953,5.68
1629709026968,7.45
1629709026984,8.43
1629709027000,8.81
1629709027015,8.83
1629709027031,8.77
1629709027046,8.86
1629709027062,9.22
1629709027078,9.88
1629709027093,10.8
1629709027109,11.83
1629709027125,12.81
1629709027140,13.6
1629709027156,14.09
1629709027171,14.27
1629709027187,14.26
1629709027203,14.22
1629709027218,14.29
1629709027234,14.55
1629709027250,14.96
1629709027265,15.38
1629709027281,15.67
1629709027296,15.7
1629709027312,15.39
1629709027328,14.7
1629709027343,13.66
1629709027359,12.3
1629709027375,10.79
1629709027390,9.26
1629709027406,7.81
1629709027421,6.46
1629709027437,5.11
1629709027453,3.66
1629709027468,2.06
1629709027484,0.32
1629709027500,-1.41
1629709027515,-3.02
1629709027531,-4.44
1629709027546,-5.72
1629709027562,-6.97
1629709027578,-8.37
1629709027593,-10.06
1629709027609,-12.11
1629709027625,-14.59
1629709027640,-17.43
1629709027656,-20.48
1629709027671,-23.43
1629709027687,-25.88
1629709027703,-27.4
1629709027718,-27.71
1629709027734,-26.68
1629709027750,-24.42
1629709027765,-21.21
1629709027781,-17.38
1629709027796,-13.25
1629709027812,-9.11
1629709027828,-5.14
1629709027843,-1.48
1629709027859,1.79
1629709027875,4.69
1629709027890,7.27
1629709027906,9.62
1629709027921,11.77
1629709027937,13.7
1629709027953,15.35
1629709027968,16.71
1629709027984,17.88
1629709028000,18.99
1629709028015,20.21
1629709028031,21.6
1629709028046,23.1
1629709028062,24.68
1629709028078,26.31
1629709028093,28.04
1629709028109,29.97
1629709028125,32.11
1629709028140,34.26
1629709028156,36.06
1629709028171,37.05
1629709028187,36.95
1629709028203,35.77
1629709028218,33.81
1629709028234,31.56
1629709028250,29.42
1629709028265,27.49
1629709028281,25.63
1629709028296,23.65
1629709028312,21.46
1629709028328,19.23
1629709028343,17.16
1629709028359,15.34
1629709028375,13.59
1629709028390,11.57
1629709028406,8.98
1629709028421,5.86
1629709028437,2.63
1629709028453,-0.13
1629709028468,-2.04
1629709028484,-3.17
1629709028500,-4.06
1629709028515,-5.42
1629709028531,-7.72
1629709028546,-11.08
1629709028562,-15.17
1629709028578,-19.5
1629709028593,-23.62
1629709028609,-27.26
1629709028625,-30.25
1629709028640,-32.43
1629709028656,-33.59
1629709028671,-33.5
1629709028687,-32.07
1629709028703,-29.48
1629709028718,-26.21
1629709028734,-22.96
1629709028750,-20.4
1629709028765,-18.99
1629709028781,-18.89
1629709028796,-19.96
1629709028812,-21.85
1629709028828,-24.17
1629709028843,-26.58
1629709028859,-28.88
1629709028875,-30.99
1629709028890,-32.82
1629709028906,-34.21
1629709028921,-34.97
1629709028937,-34.89
1629709028953,-33.85
1629709028968,-31.88
1629709028984,-29.15
1629709029000,-25.87
1629709029015,-22.28
1629709029031,-18.54
1629709029046,-14.79
1629709029062,-11.19
1629709029078,-7.96
1629709029093,-5.25
1629709029109,-3.12
1629709029125,-1.54
1629709029140,-0.35
1629709029156,0.61
1629709029171,1.47
1629709029187,2.36
1629709029203,3.25
1629709029218,4.09
1629709029234,4.73
1629709029250,4.91
1629709029265,4.46
1629709029281,3.39
1629709029296,1.96
1629709029312,0.58
1629709029328,-0.36
1629709029343,-0.75
1629709029359,-0.83
1629709029375,-1.02
1629709029390,-1.68
1629709029406,-2.92
1629709029421,-4.53
1629709029437,-6.17
1629709029453,-7.56
1629709029468,-8.62
1629709029484,-9.55
1629709029500,-10.63
1629709029515,-12.06
1629709029531,-13.89
1629709029546,-16.06
1629709029562,-18.38
1629709029578,-20.69
1629709029593,-22.72
1629709029609,-24.22
1629709029625,-24.91
1629709029640,-24.6
1629709029656,-23.21
1629709029671,-20.8
1629709029687,-17.51
1629709029703,-13.52
1629709029718,-8.96
1629709029734,-3.94
1629709029750,1.38
1629709029765,6.73
1629709029781,11.75
1629709029796,16.11
1629709029812,19.59
1629709029828,22.25
1629709029843,24.3
1629709029859,26.02
1629709029875,27.57
1629709029890,28.95
1629709029906,30.07
1629709029921,30.84
1629709029937,31.24
1629709029953,31.37
1629709029968,31.44
1629709029984,31.64
1629709030000,32.06
1629709030015,32.69
1629709030031,33.38
1629709030046,33.97
1629709030062,34.3
1629709030078,34.27
1629709030093,33.85
1629709030109,33.04
1629709030125,31.78
1629709030140,29.99
1629709030156,27.57
1629709030171,24.49
1629709030187,20.94
1629709030203,17.28
1629709030218,13.96
1629709030234,11.27
1629709030250,9.28
1629709030265,7.7
1629709030281,6.14
1629709030296,4.37
1629709030312,2.34
1629709030328,0.34
1629709030343,-1.23
1629709030359,-2.11
1629709030375,-2.32
1629709030390,-2.11
1629709030406,-1.91
1629709030421,-2.13
1629709030437,-2.98
1629709030453,-4.62
1629709030468,-7.02
1629709030484,-10.06
1629709030500,-13.54
1629709030515,-17.08
1629709030531,-20.22
1629709030546,-22.44
1629709030562,-23.38
1629709030578,-22.91
1629709030593,-21.21
1629709030609,-18.63
1629709030625,-15.6
1629709030640,-12.46
1629709030656,-9.34
1629709030671,-6.28
1629709030687,-3.23
1629709030703,-0.21
1629709030718,2.67
1629709030734,5.24
1629709030750,7.36
1629709030765,8.96
1629709030781,10.11
1629709030796,11.04
1629709030812,11.99
1629709030828,13.21
1629709030843,14.82
1629709030859,16.75
1629709030875,18.76
1629709030890,20.52
1629709030906,21.79
1629709030921,22.51
1629709030937,22.88
1629709030953,23.23
1629709030968,23.81
1629709030984,24.71
1629709031000,25.72
1629709031015,26.49
1629709031031,26.61
1629709031046,25.91
1629709031062,24.43
1629709031078,22.41
1629709031093,20.12
1629709031109,17.83
1629709031125,15.78
1629709031140,14.21
1629709031156,13.27
1629709031171,12.98
1629709031187,13.11
1629709031203,13.16
1629709031218,12.59
1629709031234,10.98
1629709031250,8.31
1629709031265,4.86
1629709031281,1.08
1629709031296,-2.66
1629709031312,-6.26
1629709031328,-9.72
1629709031343,-13.04
1629709031359,-16.05
1629709031375,-18.48
1629709031390,-20.17
1629709031406,-21.2
1629709031421,-21.95
1629709031437,-22.84
1629709031453,-24.07
1629709031468,-25.48
1629709031484,-26.63
1629709031500,-27.11
1629709031515,-26.78
1629709031531,-25.9
1629709031546,-24.99
1629709031562,-24.56
1629709031578,-24.87
1629709031593,-25.84
1629709031609,-27.22
1629709031625,-28.72
1629709031640,-30.09
1629709031656,-31.23
1629709031671,-32.0
1629709031687,-32.19
1629709031703,-31.6
1629709031718,-30.08
1629709031734,-27.69
1629709031750,-24.72
1629709031765,-21.57
1629709031781,-18.62
1629709031796,-16.13
1629709031812,-14.2
1629709031828,-12.82
1629709031843,-11.95
1629709031859,-11.4
1629709031875,-10.96
1629709031890,-10.33
1629709031906,-9.27
1629709031921,-7.71
1629709031937,-5.76
1629709031953,-3.73
1629709031968,-1.95
1629709031984,-0.58
1629709032000,0.42
1629709032015,1.16
1629709032031,1.74
1629709032046,2.11
1629709032062,2.16
1629709032078,1.91
1629709032093,1.58
1629709032109,1.57
1629709032125,2.23
1629709032140,3.68
1629709032156,5.75
1629709032171,8.08
1629709032187,10.38
1629709032203,12.44
1629709032218,14.19
1629709032234,15.53
1629709032250,16.19
1629709032265,15.85
1629709032281,14.28
1629709032296,11.56
1629709032312,8.14
1629709032328,4.68
1629709032343,1.63
1629709032359,-1.0
1629709032375,-3.7
1629709032390,-7.1
1629709032406,-11.51
1629709032421,-16.58
1629709032437,-21.3
1629709032453,-24.38
1629709032468,-24.82
1629709032484,-22.38
1629709032500,-17.65
1629709032515,-11.7
1629709032531,-5.63
1629709032546,-0.17
1629709032562,4.41
1629709032578,8.29
1629709032593,11.75
1629709032609,15.13
1629709032625,18.72
1629709032640,22.69
1629709032656,27.12
1629709032671,31.89
1629709032687,36.65
1629709032703,40.84
1629709032718,43.85
1629709032734,45.15
1629709032750,44.51
1629709032765,41.97
1629709032781,37.89
1629709032796,32.8
1629709032812,27.26
1629709032828,21.86
1629709032843,17.02
1629709032859,13.05
1629709032875,10.08
1629709032890,8.08
1629709032906,6.86
1629709032921,6.1
1629709032937,5.42
1629709032953,4.51
1629709032968,3.27
1629709032984,1.83
1629709033000,0.53
1629709033015,-0.33
1629709033031,-0.55
1629709033046,-0.25
1629709033062,0.29
1629709033078,0.73
1629709033093,0.83
1629709033109,0.59
1629709033125,0.11
1629709033140,-0.48
1629709033156,-1.2
1629709033171,-2.22
1629709033187,-3.79
1629709033203,-6.02
1629709033218,-8.81
1629709033234,-11.88
1629709033250,-14.83
1629709033265,-17.32
1629709033281,-19.29
1629709033296,-20.88
1629709033312,-22.4
1629709033328,-24.12
1629709033343,-26.07
1629709033359,-28.05
1629709033375,-29.7
1629709033390,-30.65
1629709033406,-30.73
1629709033421,-29.94
1629709033437,-28.41
1629709033453,-26.3
1629709033468,-23.69
1629709033484,-20.57
1629709033500,-16.97
1629709033515,-13.03
1629709033531,-9.06
1629709033546,-5.4
1629709033562,-2.29
1629709033578,0.24
1629709033593,2.33
1629709033609,4.17
1629709033625,5.85
1629709033640,7.32
1629709033656,8.4
1629709033671,8.96
1629709033687,9.0
1629709033703,8.67
1629709033718,8.15
1629709033734,7.62
1629709033750,7.14
1629709033765,6.69
1629709033781,6.24
1629709033796,5.77
1629709033812,5.34
1629709033828,5.04
1629709033843,4.91
1629709033859,4.94
1629709033875,5.12
1629709033890,5.44
1629709033906,5.89
1629709033921,6.48
1629709033937,7.17
1629709033953,7.89
1629709033968,8.57
1629709033984,9.14
1629709034000,9.56
1629709034015,9.81
1629709034031,9.83
1629709034046,9.54
1629709034062,8.9
1629709034078,7.93
1629709034093,6.75
1629709034109,5.63
1629709034125,4.74
1629709034140,4.13
1629709034156,3.64
1629709034171,3.0
1629709034187,1.97
1629709034203,0.43
1629709034218,-1.58
1629709034234,-3.98
1629709034250,-6.66
1629709034265,-9.53
1629709034281,-12.42
1629709034296,-15.04
1629709034312,-16.93
1629709034328,-17.59
1629709034343,-16.72
1629709034359,-14.29
1629709034375,-10.63
1629709034390,-6.25
1629709034406,-1.7
1629709034421,2.58
1629709034437,6.41
1629709034453,9.71
1629709034468,12.48
1629709034484,14.69
1629709034500,16.3
1629709034515,17.26
1629709034531,17.65
1629709034546,17.64
1629709034562,17.53
1629709034578,17.59
1629709034593,17.96
1629709034609,18.56
1629709034625,19.15
1629709034640,19.47
1629709034656,19.31
1629709034671,18.69
1629709034687,17.8
1629709034703,16.86
1629709034718,16.13
1629709034734,15.65
1629709034750,15.3
1629709034765,14.89
1629709034781,14.25
1629709034796,13.29
1629709034812,12.07
1629709034828,10.7
1629709034843,9.31
1629709034859,7.99
1629709034875,6.76
1629709034890,5.56
1629709034906,4.33
1629709034921,3.02
1629709034937,1.61
1629709034953,0.13
1629709034968,-1.43
1629709034984,-3.06
1629709035000,-4.78
1629709035015,-6.58
1629709035031,-8.39
1629709035046,-10.17
1629709035062,-11.9
1629709035078,-13.58
1629709035093,-15.32
1629709035109,-17.27
1629709035125,-19.53
1629709035140,-22.09
1629709035156,-24.78
1629709035171,-27.28
1629709035187,-29.12
1629709035203,-29.94
1629709035218,-29.47
1629709035234,-27.67
1629709035250,-24.74
1629709035265,-21.01
1629709035281,-16.89
1629709035296,-12.73
1629709035312,-8.85
1629709035328,-5.35
1629709035343,-2.26
1629709035359,0.48
1629709035375,2.93
1629709035390,5.14
1629709035406,7.09
1629709035421,8.7
1629709035437,10.0
1629709035453,10.94
1629709035468,11.59
1629709035484,11.95
1629709035500,12.03
1629709035515,11.82
1629709035531,11.33
1629709035546,10.63
1629709035562,9.88
1629709035578,9.29
1629709035593,8.95
1629709035609,8.9
1629709035625,9.06
1629709035640,9.31
1629709035656,9.56
1629709035671,9.71
1629709035687,9.68
1629709035703,9.38
1629709035718,8.71
1629709035734,7.69
1629709035750,6.43
1629709035765,5.13
1629709035781,3.93
1629709035796,2.94
1629709035812,2.17
1629709035828,1.55
1629709035843,1.01
1629709035859,0.47
1629709035875,-0.15
1629709035890,-0.96
1629709035906,-2.07
1629709035921,-3.58
1629709035937,-5.41
1629709035953,-7.4
1629709035968,-9.27
1629709035984,-10.82
1629709036000,-12.0
1629709036015,-12.97
1629709036031,-13.97
1629709036046,-15.28
1629709036062,-17.03
1629709036078,-19.11
1629709036093,-21.2
1629709036109,-22.88
1629709036125,-23.79
1629709036140,-23.68
1629709036156,-22.53
1629709036171,-20.45
1629709036187,-17.63
1629709036203,-14.23
1629709036218,-10.4
1629709036234,-6.3
1629709036250,-2.15
1629709036265,1.81
1629709036281,5.28
1629709036296,8.03
1629709036312,9.98
1629709036328,11.16
1629709036343,11.75
1629709036359,11.96
1629709036375,12.05
1629709036390,12.23
1629709036406,12.65
1629709036421,13.3
1629709036437,14.06
1629709036453,14.75
1629709036468,15.25
1629709036484,15.58
1629709036500,15.81
1629709036515,16.08
1629709036531,16.42
1629709036546,16.76
1629709036562,16.91
1629709036578,16.77
1629709036593,16.33
1629709036609,15.77
1629709036625,15.24
1629709036640,14.84
1629709036656,14.47
1629709036671,13.99
1629709036687,13.25
1629709036703,12.27
1629709036718,11.23
1629709036734,10.42
1629709036750,10.09
1629709036765,10.38
1629709036781,11.21
1629709036796,12.32
1629709036812,13.31
1629709036828,13.84
1629709036843,13.72
1629709036859,13.04
1629709036875,12.08
1629709036890,11.21
1629709036906,10.55
1629709036921,9.92
1629709036937,8.86
1629709036953,6.88
1629709036968,3.73
1629709036984,-0.45
1629709037000,-5.22
1629709037015,-10.06
1629709037031,-14.54
1629709037046,-18.39
1629709037062,-21.44
1629709037078,-23.52
1629709037093,-24.51
1629709037109,-24.36
1629709037125,-23.24
1629709037140,-21.43
1629709037156,-19.26
1629709037171,-16.89
1629709037187,-14.24
1629709037203,-11.1
1629709037218,-7.33
1629709037234,-3.1
1629709037250,1.15
1629709037265,4.81
1629709037281,7.48
1629709037296,9.09
1629709037312,9.96
1629709037328,10.61
1629709037343,11.44
1629709037359,12.51
1629709037375,13.54
1629709037390,14.14
1629709037406,14.03
1629709037421,13.24
1629709037437,12.12
1629709037453,11.15
1629709037468,10.66
1629709037484,10.64
1629709037500,10.82
1629709037515,10.84
1629709037531,10.45
1629709037546,9.65
1629709037562,8.64
1629709037578,7.71
1629709037593,7.08
1629709037609,6.77
1629709037625,6.61
1629709037640,6.44
1629709037656,6.1
1629709037671,5.54
1629709037687,4.8
1629709037703,3.94
1629709037718,3.03
1629709037734,2.12
1629709037750,1.27
1629709037765,0.48
1629709037781,-0.17
1629709037796,-0.73
1629709037812,-1.24
1629709037828,-1.9
1629709037843,-2.88
1629709037859,-4.31
1629709037875,-6.23
1629709037890,-8.54
1629709037906,-11.13
1629709037921,-13.87
1629709037937,-16.71
1629709037953,-19.64
1629709037968,-22.55
1629709037984,-25.26
1629709038000,-27.5
1629709038015,-28.99
1629709038031,-29.49
1629709038046,-28.96
1629709038062,-27.5
1629709038078,-25.38
1629709038093,-22.89
1629709038109,-20.28
1629709038125,-17.75
1629709038140,-15.36
1629709038156,-13.15
1629709038171,-11.12
1629709038187,-9.32
1629709038203,-7.87
1629709038218,-7.0
1629709038234,-6.86
1629709038250,-7.43
1629709038265,-8.5
1629709038281,-9.7
1629709038296,-10.67
1629709038312,-11.18
1629709038328,-11.24
1629709038343,-11.0
1629709038359,-10.7
1629709038375,-10.49
1629709038390,-10.41
1629709038406,-10.44
1629709038421,-10.51
1629709038437,-10.57
1629709038453,-10.53
1629709038468,-10.29
1629709038484,-9.62
1629709038500,-8.35
1629709038515,-6.4
1629709038531,-3.86
1629709038546,-0.94
1629709038562,2.08
1629709038578,4.97
1629709038593,7.61
1629709038609,9.95
1629709038625,11.9
1629709038640,13.37
1629709038656,14.23
1629709038671,14.42
1629709038687,14.09
1629709038703,13.63
1629709038718,13.53
1629709038734,14.23
1629709038750,15.89
1629709038765,18.35
1629709038781,21.21
1629709038796,23.96
1629709038812,26.25
1629709038828,28.0
1629709038843,29.39
1629709038859,30.84
1629709038875,32.82
1629709038890,35.72
1629709038906,39.76
1629709038921,44.89
1629709038937,50.73
1629709038953,56.46
1629709038968,60.87
1629709038984,62.54
1629709039000,60.28
1629709039015,53.55
1629709039031,42.7
1629709039046,28.93
1629709039062,13.73
1629709039078,-1.57
1629709039093,-16.21
1629709039109,-29.86
1629709039125,-42.27
1629709039140,-52.86
1629709039156,-60.72
1629709039171,-65.04
1629709039187,-65.64
1629709039203,-63.22
1629709039218,-59.13
1629709039234,-54.84
1629709039250,-51.24
1629709039265,-48.46
1629709039281,-46.03
1629709039296,-43.44
1629709039312,-40.51
1629709039328,-37.53
1629709039343,-34.95
1629709039359,-33.11
1629709039375,-31.98
1629709039390,-31.19
1629709039406,-30.29
1629709039421,-28.89
1629709039437,-26.87
1629709039453,-24.33
1629709039468,-21.42
1629709039484,-18.33
1629709039500,-15.19
1629709039515,-12.11
1629709039531,-9.16
1629709039546,-6.51
1629709039562,-4.28
1629709039578,-2.58
1629709039593,-1.39
1629709039609,-0.6
1629709039625,-0.03
1629709039640,0.4
1629709039656,0.69
1629709039671,0.69
1629709039687,0.15
1629709039703,-1.08
1629709039718,-3.01
1629709039734,-5.45
1629709039750,-8.04
1629709039765,-10.36
1629709039781,-11.99
1629709039796,-12.69
1629709039812,-12.38
1629709039828,-11.2
1629709039843,-9.37
1629709039859,-7.1
1629709039875,-4.51
1629709039890,-1.67
1629709039906,1.33
1629709039921,4.32
1629709039937,7.0
1629709039953,9.15
1629709039968,10.62
1629709039984,11.5
1629709040000,12.02
1629709040015,12.44
1629709040031,12.9
1629709040046,13.39
1629709040062,13.82
1629709040078,14.09
1629709040093,14.19
1629709040109,14.19
1629709040125,14.15
1629709040140,14.12
1629709040156,14.08
1629709040171,14.03
1629709040187,14.0
1629709040203,14.07
1629709040218,14.36
1629709040234,14.96
1629709040250,15.84
1629709040265,16.85
1629709040281,17.76
1629709040296,18.27
1629709040312,18.15
1629709040328,17.29
1629709040343,15.77
1629709040359,13.79
1629709040375,11.62
1629709040390,9.49
1629709040406,7.51
1629709040421,5.69
1629709040437,3.96
1629709040453,2.28
1629709040468,0.67
1629709040484,-0.86
1629709040500,-2.27
1629709040515,-3.54
1629709040531,-4.71
1629709040546,-5.81
1629709040562,-6.93
1629709040578,-8.17
1629709040593,-9.68
1629709040609,-11.5
1629709040625,-13.59
1629709040640,-15.73
1629709040656,-17.64
1629709040671,-19.09
1629709040687,-19.85
1629709040703,-19.8
1629709040718,-18.87
1629709040734,-17.03
1629709040750,-14.31
1629709040765,-10.95
1629709040781,-7.33
1629709040796,-3.94
1629709040812,-1.14
1629709040828,1.03
1629709040843,2.88
1629709040859,4.86
1629709040875,7.29
1629709040890,10.12
1629709040906,12.93
1629709040921,15.13
1629709040937,16.39
1629709040953,16.71
1629709040968,16.5
1629709040984,16.27
1629709041000,16.36
1629709041015,16.82
1629709041031,17.47
1629709041046,18.12
1629709041062,18.77
1629709041078,19.67
1629709041093,21.09
1629709041109,23.09
1629709041125,25.3
1629709041140,26.95
1629709041156,27.22
1629709041171,25.51
1629709041187,21.76
1629709041203,16.44
1629709041218,10.31
1629709041234,4.07
1629709041250,-1.9
1629709041265,-7.61
1629709041281,-13.26
1629709041296,-19.01
1629709041312,-24.76
1629709041328,-30.1
1629709041343,-34.54
1629709041359,-37.69
1629709041375,-39.45
1629709041390,-40.02
1629709041406,-39.81
1629709041421,-39.24
1629709041437,-38.61
1629709041453,-38.0
1629709041468,-37.35
1629709041484,-36.57
1629709041500,-35.68
1629709041515,-34.89
1629709041531,-34.47
1629709041546,-34.53
1629709041562,-34.92
1629709041578,-35.13
1629709041593,-34.52
1629709041609,-32.56
1629709041625,-29.08
1629709041640,-24.38
1629709041656,-19.13
1629709041671,-14.0
1629709041687,-9.42
1629709041703,-5.45
1629709041718,-1.91
1629709041734,1.44
1629709041750,4.59
1629709041765,7.33
1629709041781,9.35
1629709041796,10.44
1629709041812,10.73
1629709041828,10.61
1629709041843,10.59
1629709041859,11.07
1629709041875,12.12
1629709041890,13.49
1629709041906,14.76
1629709041921,15.59
1629709041937,15.81
1629709041953,15.52
1629709041968,14.97
1629709041984,14.42
1629709042000,14.06
1629709042015,13.88
1629709042031,13.83
1629709042046,13.8
1629709042062,13.73
1629709042078,13.55
1629709042093,13.31
1629709042109,12.99
1629709042125,12.64
1629709042140,12.25
1629709042156,11.82
1629709042171,11.28
1629709042187,10.56
1629709042203,9.63
1629709042218,8.46
1629709042234,7.16
1629709042250,5.84
1629709042265,4.63
1629709042281,3.59
1629709042296,2.65
1629709042312,1.73
1629709042328,0.73
1629709042343,-0.36
1629709042359,-1.49
1629709042375,-2.6
1629709042390,-3.72
1629709042406,-4.97
1629709042421,-6.54
1629709042437,-8.62
1629709042453,-11.2
1629709042468,-14.1
1629709042484,-16.95
1629709042500,-19.35
1629709042515,-20.92
1629709042531,-21.49
1629709042546,-21.07
1629709042562,-19.82
1629709042578,-18.01
1629709042593,-15.85
1629709042609,-13.51
1629709042625,-11.06
1629709042640,-8.57
1629709042656,-6.14
1629709042671,-3.85
1629709042687,-1.74
1629709042703,0.27
1629709042718,2.27
1629709042734,4.39
1629709042750,6.59
1629709042765,8.75
1629709042781,10.64
1629709042796,12.13
1629709042812,13.21
1629709042828,13.97
1629709042843,14.51
1629709042859,14.83
1629709042875,14.84
1629709042890,14.46
1629709042906,13.7
1629709042921,12.75
1629709042937,11.87
1629709042953,11.3
1629709042968,11.15
1629709042984,11.41
1629709043000,11.94
1629709043015,12.55
1629709043031,13.02
1629709043046,13.21
1629709043062,12.99
1629709043078,12.33
1629709043093,11.32
1629709043109,10.09
1629709043125,8.77
1629709043140,7.41
1629709043156,6.06
1629709043171,4.66
1629709043187,3.28
1629709043203,2.0
1629709043218,0.89
1629709043234,-0.04
1629709043250,-0.95
1629709043265,-2.04
1629709043281,-3.48
1629709043296,-5.29
1629709043312,-7.28
1629709043328,-9.18
1629709043343,-10.75
1629709043359,-11.89
1629709043375,-12.68
1629709043390,-13.27
1629709043406,-13.75
1629709043421,-14.12
1629709043437,-14.22
1629709043453,-13.91
1629709043468,-13.11
1629709043484,-11.91
1629709043500,-10.44
1629709043515,-8.79
1629709043531,-6.96
1629709043546,-4.82
1629709043562,-2.23
1629709043578,0.86
1629709043593,4.32
1629709043609,7.88
1629709043625,11.22
1629709043640,14.04
1629709043656,16.17
1629709043671,17.56
1629709043687,18.22
1629709043703,18.31
1629709043718,18.05
1629709043734,17.75
1629709043750,17.65
1629709043765,17.9
1629709043781,18.44
1629709043796,19.04
1629709043812,19.36
1629709043828,19.18
1629709043843,18.4
1629709043859,17.15
1629709043875,15.67
1629709043890,14.23
1629709043906,13.02
1629709043921,12.13
1629709043937,11.54
1629709043953,11.21
1629709043968,11.04
1629709043984,10.92
1629709044000,10.7
1629709044015,10.27
1629709044031,9.59
1629709044046,8.7
1629709044062,7.7
1629709044078,6.74
1629709044093,5.9
1629709044109,5.19
1629709044125,4.46
1629709044140,3.49
1629709044156,2.04
1629709044171,-0.04
1629709044187,-2.73
1629709044203,-5.87
1629709044218,-9.19
1629709044234,-12.37
1629709044250,-15.16
1629709044265,-17.38
1629709044281,-18.86
1629709044296,-19.58
1629709044312,-19.5
1629709044328,-18.62
1629709044343,-17.03
1629709044359,-14.82
1629709044375,-12.1
1629709044390,-8.99
1629709044406,-5.7
1629709044421,-2.47
1629709044437,0.43
1629709044453,2.78
1629709044468,4.6
1629709044484,5.97
1629709044500,7.09
1629709044515,8.04
1629709044531,8.73
1629709044546,8.96
1629709044562,8.57
1629709044578,7.62
1629709044593,6.33
1629709044609,5.09
1629709044625,4.18
1629709044640,3.73
1629709044656,3.72
1629709044671,4.01
1629709044687,4.52
1629709044703,5.22
1629709044718,6.1
1629709044734,7.05
1629709044750,7.95
1629709044765,8.64
1629709044781,9.03
1629709044796,9.11
1629709044812,8.84
1629709044828,8.25
1629709044843,7.36
1629709044859,6.22
1629709044875,4.93
1629709044890,3.61
1629709044906,2.35
1629709044921,1.12
1629709044937,-0.19
1629709044953,-1.73
1629709044968,-3.53
1629709044984,-5.47
1629709045000,-7.32
1629709045015,-8.84
1629709045031,-9.92
1629709045046,-10.66
1629709045062,-11.27
1629709045078,-11.95
1629709045093,-12.78
1629709045109,-13.64
1629709045125,-14.25
1629709045140,-14.31
1629709045156,-13.68
1629709045171,-12.36
1629709045187,-10.49
1629709045203,-8.27
1629709045218,-5.77
1629709045234,-2.95
1629709045250,0.25
1629709045265,3.82
1629709045281,7.58
1629709045296,11.13
1629709045312,14.1
1629709045328,16.15
1629709045343,17.2
1629709045359,17.39
1629709045375,17.0
1629709045390,16.33
1629709045406,15.59
1629709045421,14.86
1629709045437,14.11
1629709045453,13.29
1629709045468,12.34
1629709045484,11.29
1629709045500,10.25
1629709045515,9.31
1629709045531,8.58
1629709045546,8.07
1629709045562,7.72
1629709045578,7.41
1629709045593,7.11
1629709045609,6.81
1629709045625,6.53
1629709045640,6.32
1629709045656,6.11
1629709045671,5.8
1629709045687,5.29
1629709045703,4.56
1629709045718,3.62
1629709045734,2.64
1629709045750,1.71
1629709045765,0.89
1629709045781,0.14
1629709045796,-0.71
1629709045812,-1.86
1629709045828,-3.48
1629709045843,-5.69
1629709045859,-8.51
1629709045875,-11.8
1629709045890,-15.31
1629709045906,-18.7
1629709045921,-21.54
1629709045937,-23.45
1629709045953,-24.1
1629709045968,-23.3
1629709045984,-21.03
1629709046000,-17.47
1629709046015,-13.0
1629709046031,-8.08
1629709046046,-3.16
1629709046062,1.44
1629709046078,5.58
1629709046093,9.31
1629709046109,12.69
1629709046125,15.75
1629709046140,18.45
1629709046156,20.67
1629709046171,22.36
1629709046187,23.56
1629709046203,24.38
1629709046218,24.93
1629709046234,25.22
1629709046250,25.22
1629709046265,24.86
1629709046281,24.18
1629709046296,23.27
1629709046312,22.3
1629709046328,21.4
1629709046343,20.66
1629709046359,20.06
1629709046375,19.5
1629709046390,18.88
1629709046406,18.1
1629709046421,17.07
1629709046437,15.7
1629709046453,14.0
1629709046468,12.01
1629709046484,9.86
1629709046500,7.77
1629709046515,5.92
1629709046531,4.44
1629709046546,3.3
1629709046562,2.35
1629709046578,1.4
1629709046593,0.32
1629709046609,-0.92
1629709046625,-2.2
1629709046640,-3.35
1629709046656,-4.28
1629709046671,-5.04
1629709046687,-5.86
1629709046703,-6.99
1629709046718,-8.57
1629709046734,-10.57
1629709046750,-12.89
1629709046765,-15.43
1629709046781,-18.16
1629709046796,-21.09
1629709046812,-24.14
1629709046828,-27.01
1629709046843,-29.21
1629709046859,-30.24
1629709046875,-29.76
1629709046890,-27.76
1629709046906,-24.57
1629709046921,-20.6
1629709046937,-16.28
1629709046953,-11.88
1629709046968,-7.54
1629709046984,-3.38
1629709047000,0.45
1629709047015,3.83
1629709047031,6.66
1629709047046,8.91
1629709047062,10.55
1629709047078,11.61
1629709047093,12.17
1629709047109,12.43
1629709047125,12.63
1629709047140,13.01
1629709047156,13.68
1629709047171,14.53
1629709047187,15.25
1629709047203,15.48
1629709047218,14.99
1629709047234,13.83
1629709047250,12.27
1629709047265,10.71
1629709047281,9.55
1629709047296,9.07
1629709047312,9.36
1629709047328,10.33
1629709047343,11.77
1629709047359,13.42
1629709047375,14.98
1629709047390,16.24
1629709047406,17.09
1629709047421,17.47
1629709047437,17.36
1629709047453,16.73
1629709047468,15.52
1629709047484,13.72
1629709047500,11.38
1629709047515,8.64
1629709047531,5.66
1629709047546,2.57
1629709047562,-0.53
1629709047578,-3.6
1629709047593,-6.59
1629709047609,-9.44
1629709047625,-12.07
1629709047640,-14.45
1629709047656,-16.53
1629709047671,-18.36
1629709047687,-20.04
1629709047703,-21.71
1629709047718,-23.52
1629709047734,-25.53
1629709047750,-27.59
1629709047765,-29.42
1629709047781,-30.6
1629709047796,-30.76
1629709047812,-29.76
1629709047828,-27.7
1629709047843,-24.89
1629709047859,-21.66
1629709047875,-18.27
1629709047890,-14.8
1629709047906,-11.28
1629709047921,-7.74
1629709047937,-4.29
1629709047953,-1.07
1629709047968,1.72
1629709047984,3.99
1629709048000,5.75
1629709048015,7.08
1629709048031,8.13
1629709048046,9.07
1629709048062,9.99
1629709048078,10.93
1629709048093,11.82
1629709048109,12.58
1629709048125,13.11
1629709048140,13.38
1629709048156,13.4
1629709048171,13.2
1629709048187,12.81
1629709048203,12.26
1629709048218,11.59
1629709048234,10.84
1629709048250,10.11
1629709048265,9.44
1629709048281,8.83
1629709048296,8.24
1629709048312,7.61
1629709048328,6.89
1629709048343,6.15
1629709048359,5.51
1629709048375,5.05
1629709048390,4.8
1629709048406,4.64
1629709048421,4.39
1629709048437,3.84
1629709048453,2.86
1629709048468,1.45
1629709048484,-0.3
1629709048500,-2.25
1629709048515,-4.35
1629709048531,-6.54
1629709048546,-8.84
1629709048562,-11.22
1629709048578,-13.58
1629709048593,-15.74
1629709048609,-17.57
1629709048625,-19.02
1629709048640,-20.19
1629709048656,-21.25
1629709048671,-22.3
1629709048687,-23.33
1629709048703,-24.16
1629709048718,-24.45
1629709048734,-23.98
1629709048750,-22.67
1629709048765,-20.69
1629709048781,-18.35
1629709048796,-15.95
1629709048812,-13.61
1629709048828,-11.26
1629709048843,-8.74
1629709048859,-5.87
1629709048875,-2.7
1629709048890,0.59
1629709048906,3.61
1629709048921,6.01
1629709048937,7.58
1629709048953,8.29
1629709048968,8.34
1629709048984,8.05
1629709049000,7.69
1629709049015,7.4
1629709049031,7.2
1629709049046,7.01
1629709049062,6.79
1629709049078,6.57
1629709049093,6.47
1629709049109,6.61
1629709049125,7.01
1629709049140,7.56
1629709049156,8.09
1629709049171,8.43
1629709049187,8.52
1629709049203,8.48
1629709049218,8.44
1629709049234,8.5
1629709049250,8.65
1629709049265,8.74
1629709049281,8.57
1629709049296,8.0
1629709049312,6.99
1629709049328,5.58
1629709049343,3.95
1629709049359,2.26
1629709049375,0.63
1629709049390,-0.85
1629709049406,-2.13
1629709049421,-3.23
1629709049437,-4.14
1629709049453,-4.86
1629709049468,-5.44
1629709049484,-5.88
1629709049500,-6.27
1629709049515,-6.72
1629709049531,-7.37
1629709049546,-8.41
1629709049562,-9.98
1629709049578,-12.09
1629709049593,-14.58
1629709049609,-17.05
1629709049625,-18.97
1629709049640,-19.87
1629709049656,-19.55
1629709049671,-18.07
1629709049687,-15.82
1629709049703,-13.28
1629709049718,-10.82
1629709049734,-8.58
1629709049750,-6.47
1629709049765,-4.32
1629709049781,-2.0
1629709049796,0.44
1629709049812,2.84
1629709049828,4.93
1629709049843,6.5
1629709049859,7.51
1629709049875,8.07
1629709049890,8.39
1629709049906,8.66
1629709049921,8.93
1629709049937,9.1
1629709049953,9.0
1629709049968,8.52
1629709049984,7.76
1629709050000,7.02
1629709050015,6.62
1629709050031,6.77
1629709050046,7.4
1629709050062,8.18
1629709050078,8.72
1629709050093,8.79
1629709050109,8.44
1629709050125,7.94
1629709050140,7.61
1629709050156,7.55
1629709050171,7.58
1629709050187,7.41
1629709050203,6.74
1629709050218,5.46
1629709050234,3.73
1629709050250,1.82
1629709050265,0.06
1629709050281,-1.38
1629709050296,-2.45
1629709050312,-3.24
1629709050328,-3.85
1629709050343,-4.36
1629709050359,-4.82
1629709050375,-5.28
1629709050390,-5.82
1629709050406,-6.57
1629709050421,-7.71
1629709050437,-9.36
1629709050453,-11.59
1629709050468,-14.28
1629709050484,-17.2
1629709050500,-19.97
1629709050515,-22.17
1629709050531,-23.5
1629709050546,-23.78
1629709050562,-23.03
1629709050578,-21.42
1629709050593,-19.17
1629709050609,-16.51
1629709050625,-13.69
1629709050640,-10.88
1629709050656,-8.23
1629709050671,-5.82
1629709050687,-3.66
1629709050703,-1.71
1629709050718,0.09
1629709050734,1.73
1629709050750,3.17
1629709050765,4.35
1629709050781,5.2
1629709050796,5.71
1629709050812,5.87
1629709050828,5.72
1629709050843,5.24
1629709050859,4.49
1629709050875,3.55
1629709050890,2.65
1629709050906,2.08
1629709050921,2.04
1629709050937,2.62
1629709050953,3.77
1629709050968,5.24
1629709050984,6.71
1629709051000,7.95
1629709051015,8.78
1629709051031,9.18
1629709051046,9.22
1629709051062,9.04
1629709051078,8.75
1629709051093,8.37
1629709051109,7.84
1629709051125,7.03
1629709051140,5.81
1629709051156,4.13
1629709051171,2.12
1629709051187,-0.06
1629709051203,-2.18
1629709051218,-4.1
1629709051234,-5.84
1629709051250,-7.44
1629709051265,-9.02
1629709051281,-10.63
1629709051296,-12.26
1629709051312,-13.86
1629709051328,-15.39
1629709051343,-16.79
1629709051359,-18.04
1629709051375,-19.08
1629709051390,-19.78
1629709051406,-19.96
1629709051421,-19.45
1629709051437,-18.2
1629709051453,-16.34
1629709051468,-14.15
1629709051484,-11.96
1629709051500,-10.0
1629709051515,-8.36
1629709051531,-6.88
1629709051546,-5.38
1629709051562,-3.7
1629709051578,-1.87
1629709051593,-0.11
1629709051609,1.37
1629709051625,2.43
1629709051640,3.12
1629709051656,3.59
1629709051671,4.03
1629709051687,4.53
1629709051703,5.04
1629709051718,5.42
1629709051734,5.55
1629709051750,5.42
1629709051765,5.16
1629709051781,4.95
1629709051796,4.95
1629709051812,5.15
1629709051828,5.43
1629709051843,5.55
1629709051859,5.37
1629709051875,4.83
1629709051890,4.03
1629709051906,3.15
1629709051921,2.37
1629709051937,1.79
1629709051953,1.36
1629709051968,0.98
1629709051984,0.51
1629709052000,-0.14
1629709052015,-0.98
1629709052031,-1.93
1629709052046,-2.91
1629709052062,-3.8
1629709052078,-4.53
1629709052093,-5.08
1629709052109,-5.57
1629709052125,-6.19
1629709052140,-7.16
1629709052156,-8.61
1629709052171,-10.49
1629709052187,-12.55
1629709052203,-14.42
1629709052218,-15.76
1629709052234,-16.35
1629709052250,-16.18
1629709052265,-15.33
1629709052281,-13.93
1629709052296,-12.09
1629709052312,-9.92
1629709052328,-7.54
1629709052343,-5.09
1629709052359,-2.75
1629709052375,-0.66
1629709052390,1.2
1629709052406,2.87
1629709052421,4.41
1629709052437,5.8
1629709052453,6.91
1629709052468,7.62
1629709052484,7.84
1629709052500,7.7
1629709052515,7.38
1629709052531,7.11
1629709052546,6.97
1629709052562,6.91
1629709052578,6.75
1629709052593,6.36
1629709052609,5.71
1629709052625,4.96
1629709052640,4.33
1629709052656,3.99
1629709052671,3.98
1629709052687,4.2
1629709052703,4.48
1629709052718,4.65
1629709052734,4.67
1629709052750,4.59
1629709052765,4.51
1629709052781,4.45
1629709052796,4.31
1629709052812,3.91
1629709052828,3.09
1629709052843,1.82
1629709052859,0.22
1629709052875,-1.47
1629709052890,-3.05
1629709052906,-4.42
1629709052921,-5.62
1629709052937,-6.84
1629709052953,-8.21
1629709052968,-9.81
1629709052984,-11.63
1629709053000,-13.51
1629709053015,-15.24
1629709053031,-16.59
1629709053046,-17.36
1629709053062,-17.43
1629709053078,-16.75
1629709053093,-15.35
1629709053109,-13.3
1629709053125,-10.69
1629709053140,-7.66
1629709053156,-4.38
1629709053171,-1.11
1629709053187,1.89
1629709053203,4.42
1629709053218,6.42
1629709053234,7.95
1629709053250,9.17
1629709053265,10.2
1629709053281,11.12
1629709053296,11.93
1629709053312,12.63
1629709053328,13.24
1629709053343,13.8
1629709053359,14.34
1629709053375,14.84
1629709053390,15.25
1629709053406,15.52
1629709053421,15.64
1629709053437,15.62
1629709053453,15.49
1629709053468,15.28
1629709053484,15.04
1629709053500,14.74
1629709053515,14.39
1629709053531,14.01
1629709053546,13.61
1629709053562,13.21
1629709053578,12.74
1629709053593,12.1
1629709053609,11.15
1629709053625,9.8
1629709053640,8.02
1629709053656,5.98
1629709053671,3.87
1629709053687,1.89
1629709053703,0.19
1629709053718,-1.26
1629709053734,-2.62
1629709053750,-4.12
1629709053765,-5.93
1629709053781,-8.17
1629709053796,-10.81
1629709053812,-13.68
1629709053828,-16.57
1629709053843,-19.13
1629709053859,-21.04
1629709053875,-22.03
1629709053890,-21.93
1629709053906,-20.75
1629709053921,-18.6
1629709053937,-15.63
1629709053953,-11.98
1629709053968,-7.84
1629709053984,-3.37
1629709054000,1.16
1629709054015,5.43
1629709054031,9.19
1629709054046,12.26
1629709054062,14.64
1629709054078,16.51
1629709054093,18.01
1629709054109,19.22
1629709054125,20.12
1629709054140,20.58
1629709054156,20.57
1629709054171,20.14
1629709054187,19.44
1629709054203,18.66
1629709054218,17.95
1629709054234,17.38
1629709054250,16.96
1629709054265,16.68
1629709054281,16.47
1629709054296,16.25
1629709054312,15.92
1629709054328,15.36
1629709054343,14.53
1629709054359,13.51
1629709054375,12.52
1629709054390,11.81
1629709054406,11.57
1629709054421,11.77
1629709054437,12.13
1629709054453,12.26
1629709054468,11.79
1629709054484,10.58
1629709054500,8.78
1629709054515,6.69
1629709054531,4.63
1629709054546,2.74
1629709054562,0.92
1629709054578,-1.11
1629709054593,-3.56
1629709054609,-6.51
1629709054625,-9.84
1629709054640,-13.34
1629709054656,-16.82
1629709054671,-20.12
1629709054687,-23.12
1629709054703,-25.64
1629709054718,-27.41
1629709054734,-28.13
1629709054750,-27.54
1629709054765,-25.61
1629709054781,-22.47
1629709054796,-18.45
1629709054812,-13.9
1629709054828,-9.16
1629709054843,-4.54
1629709054859,-0.29
1629709054875,3.35
1629709054890,6.21
1629709054906,8.22
1629709054921,9.49
1629709054937,10.22
1629709054953,10.69
1629709054968,11.13
1629709054984,11.71
1629709055000,12.47
1629709055015,13.36
1629709055031,14.29
1629709055046,15.13
1629709055062,15.78
1629709055078,16.12
1629709055093,16.1
1629709055109,15.74
1629709055125,15.18
1629709055140,14.52
1629709055156,13.89
1629709055171,13.31
1629709055187,12.73
1629709055203,12.1
1629709055218,11.41
1629709055234,10.71
1629709055250,10.07
1629709055265,9.53
1629709055281,9.13
1629709055296,8.82
1629709055312,8.57
1629709055328,8.33
1629709055343,8.08
1629709055359,7.76
1629709055375,7.3
1629709055390,6.61
1629709055406,5.62
1629709055421,4.34
1629709055437,2.87
1629709055453,1.35
1629709055468,-0.05
1629709055484,-1.27
1629709055500,-2.35
1629709055515,-3.48
1629709055531,-4.88
1629709055546,-6.76
1629709055562,-9.22
1629709055578,-12.18
1629709055593,-15.45
1629709055609,-18.77
1629709055625,-21.84
1629709055640,-24.39
1629709055656,-26.2
1629709055671,-27.05
1629709055687,-26.86
1629709055703,-25.68
1629709055718,-23.77
1629709055734,-21.37
1629709055750,-18.73
1629709055765,-15.93
1629709055781,-12.94
1629709055796,-9.67
1629709055812,-6.12
1629709055828,-2.46
1629709055843,1.07
1629709055859,4.15
1629709055875,6.61
1629709055890,8.43
1629709055906,9.68
1629709055921,10.48
1629709055937,10.94
1629709055953,11.11
1629709055968,11.0
1629709055984,10.64
1629709056000,10.06
1629709056015,9.35
1629709056031,8.65
1629709056046,8.06
1629709056062,7.68
1629709056078,7.53
1629709056093,7.57
1629709056109,7.76
1629709056125,8.06
1629709056140,8.39
1629709056156,8.71
1629709056171,8.94
1629709056187,8.96
1629709056203,8.69
1629709056218,8.14
1629709056234,7.34
1629709056250,6.41
1629709056265,5.42
1629709056281,4.4
1629709056296,3.27
1629709056312,2.03
1629709056328,0.66
1629709056343,-0.72
1629709056359,-1.96
1629709056375,-2.99
1629709056390,-3.81
1629709056406,-4.52
1629709056421,-5.2
1629709056437,-5.95
1629709056453,-6.79
1629709056468,-7.73
1629709056484,-8.7
1629709056500,-9.65
1629709056515,-10.57
1629709056531,-11.48
1629709056546,-12.46
1629709056562,-13.67
1629709056578,-15.2
1629709056593,-17.05
1629709056609,-19.02
1629709056625,-20.74
1629709056640,-21.8
1629709056656,-21.91
1629709056671,-21.0
1629709056687,-19.23
1629709056703,-16.86
1629709056718,-14.11
1629709056734,-11.08
1629709056750,-7.83
1629709056765,-4.49
1629709056781,-1.26
1629709056796,1.54
1629709056812,3.7
1629709056828,5.21
1629709056843,6.24
1629709056859,7.08
1629709056875,7.96
1629709056890,8.92
1629709056906,9.79
1629709056921,10.33
1629709056937,10.36
1629709056953,9.88
1629709056968,9.02
1629709056984,8.08
1629709057000,7.4
1629709057015,7.31
1629709057031,8.01
1629709057046,9.44
1629709057062,11.27
1629709057078,12.91
1629709057093,13.76
1629709057109,13.51
1629709057125,12.23
1629709057140,10.41
1629709057156,8.65
1629709057171,7.38
1629709057187,6.61
1629709057203,6.0
1629709057218,5.06
1629709057234,3.46
1629709057250,1.22
1629709057265,-1.33
1629709057281,-3.77
1629709057296,-5.81
1629709057312,-7.44
1629709057328,-8.86
1629709057343,-10.31
1629709057359,-11.91
1629709057375,-13.59
1629709057390,-15.12
1629709057406,-16.2
1629709057421,-16.59
1629709057437,-16.17
1629709057453,-14.94
1629709057468,-13.1
1629709057484,-10.95
1629709057500,-8.94
1629709057515,-7.47
1629709057531,-6.8
1629709057546,-6.91
1629709057562,-7.46
1629709057578,-7.94
1629709057593,-7.82
1629709057609,-6.79
1629709057625,-4.85
1629709057640,-2.23
1629709057656,0.7
1629709057671,3.62
1629709057687,6.3
1629709057703,8.57
1629709057718,10.29
1629709057734,11.35
1629709057750,11.67
1629709057765,11.29
1629709057781,10.26
1629709057796,8.68
1629709057812,6.65
1629709057828,4.23
1629709057843,1.61
1629709057859,-0.9
1629709057875,-2.75
1629709057890,-3.38
1629709057906,-2.36
1629709057921,0.33
1629709057937,4.29
1629709057953,8.84
1629709057968,13.26
1629709057984,17.02
1629709058000,19.93
1629709058015,22.02
1629709058031,23.39
1629709058046,24.08
1629709058062,24.05
1629709058078,23.23
1629709058093,21.71
1629709058109,19.68
1629709058125,17.43
1629709058140,15.24
1629709058156,13.26
1629709058171,11.51
1629709058187,9.83
1629709058203,8.03
1629709058218,5.93
1629709058234,3.51
1629709058250,0.85
1629709058265,-1.85
1629709058281,-4.32
1629709058296,-6.39
1629709058312,-8.02
1629709058328,-9.31
1629709058343,-10.45
1629709058359,-11.63
1629709058375,-12.89
1629709058390,-14.23
1629709058406,-15.55
1629709058421,-16.87
1629709058437,-18.27
1629709058453,-19.85
1629709058468,-21.64
1629709058484,-23.42
1629709058500,-24.84
1629709058515,-25.49
1629709058531,-25.06
1629709058546,-23.52
1629709058562,-21.07
1629709058578,-18.1
1629709058593,-14.94
1629709058609,-11.81
1629709058625,-8.81
1629709058640,-5.95
1629709058656,-3.32
1629709058671,-1.06
1629709058687,0.62
1629709058703,1.6
1629709058718,1.92
1629709058734,1.82
1629709058750,1.73
1629709058765,2.07
1629709058781,3.1
1629709058796,4.78
1629709058812,6.85
1629709058828,8.86
1629709058843,10.44
1629709058859,11.45
1629709058875,11.94
1629709058890,12.13
1629709058906,12.22
1629709058921,12.25
1629709058937,12.16
1629709058953,11.8
1629709058968,11.12
1629709058984,10.16
1629709059000,9.12
1629709059015,8.16
1629709059031,7.37
1629709059046,6.72
1629709059062,6.05
1629709059078,5.14
1629709059093,3.83
1629709059109,2.1
1629709059125,0.01
1629709059140,-2.24
1629709059156,-4.43
1629709059171,-6.4
1629709059187,-8.06
1629709059203,-9.39
1629709059218,-10.44
1629709059234,-11.33
1629709059250,-12.2
1629709059265,-13.22
1629709059281,-14.5
1629709059296,-16.03
1629709059312,-17.6
1629709059328,-18.9
1629709059343,-19.62
1629709059359,-19.54
1629709059375,-18.68
1629709059390,-17.11
1629709059406,-14.99
1629709059421,-12.39
1629709059437,-9.34
1629709059453,-5.93
1629709059468,-2.4
1629709059484,0.86
1629709059500,3.47
1629709059515,5.12
1629709059531,5.79
1629709059546,5.66
1629709059562,5.14
1629709059578,4.63
1629709059593,4.4
1629709059609,4.5
1629709059625,4.79
1629709059640,5.04
1629709059656,5.08
1629709059671,4.85
1629709059687,4.45
1629709059703,4.08
1629709059718,3.92
1629709059734,4.02
1629709059750,4.27
1629709059765,4.5
1629709059781,4.52
1629709059796,4.3
1629709059812,3.98
1629709059828,3.75
1629709059843,3.74
1629709059859,3.95
1629709059875,4.18
1629709059890,4.12
1629709059906,3.52
1629709059921,2.32
1629709059937,0.68
1629709059953,-1.1
1629709059968,-2.73
1629709059984,-4.09
1629709060000,-5.26
1629709060015,-6.49
1629709060031,-8.02
1629709060046,-9.92
1629709060062,-12.0
1629709060078,-13.87
1629709060093,-15.13
1629709060109,-15.49
1629709060125,-14.96
1629709060140,-13.72
1629709060156,-12.02
1629709060171,-10.07
1629709060187,-7.93
1629709060203,-5.6
1629709060218,-3.13
1629709060234,-0.66
1629709060250,1.68
1629709060265,3.79
1629709060281,5.76
1629709060296,7.71
1629709060312,9.74
1629709060328,11.72
1629709060343,13.32
1629709060359,14.19
1629709060375,14.1
1629709060390,13.14
1629709060406,11.57
1629709060421,9.77
1629709060437,8.03
1629709060453,6.48
1629709060468,5.15
1629709060484,4.06
1629709060500,3.29
1629709060515,2.9
1629709060531,2.87
1629709060546,3.0
1629709060562,2.95
1629709060578,2.39
1629709060593,1.13
1629709060609,-0.73
1629709060625,-2.9
1629709060640,-4.93
1629709060656,-6.47
1629709060671,-7.33
1629709060687,-7.6
1629709060703,-7.55
1629709060718,-7.53
1629709060734,-7.83
1629709060750,-8.6
1629709060765,-9.92
1629709060781,-11.73
1629709060796,-13.91
1629709060812,-16.23
1629709060828,-18.34
1629709060843,-19.87
1629709060859,-20.51
1629709060875,-20.13
1629709060890,-18.79
1629709060906,-16.75
1629709060921,-14.34
1629709060937,-11.82
1629709060953,-9.35
1629709060968,-7.01
1629709060984,-4.9
1629709061000,-3.09
1629709061015,-1.66
1629709061031,-0.63
1629709061046,0.08
1629709061062,0.62
1629709061078,1.15
1629709061093,1.78
1629709061109,2.53
1629709061125,3.3
1629709061140,3.99
1629709061156,4.52
1629709061171,4.84
1629709061187,5.03
1629709061203,5.18
1629709061218,5.35
1629709061234,5.59
1629709061250,5.82
1629709061265,5.95
1629709061281,5.86
1629709061296,5.5
1629709061312,4.85
1629709061328,3.95
1629709061343,2.8
1629709061359,1.39
1629709061375,-0.24
1629709061390,-1.99
1629709061406,-3.7
1629709061421,-5.19
1629709061437,-6.39
1629709061453,-7.35
1629709061468,-8.2
1629709061484,-9.12
1629709061500,-10.25
1629709061515,-11.58
1629709061531,-12.96
1629709061546,-14.18
1629709061562,-14.98
1629709061578,-15.16
1629709061593,-14.65
1629709061609,-13.49
1629709061625,-11.85
1629709061640,-9.97
1629709061656,-8.05
1629709061671,-6.17
1629709061687,-4.25
1629709061703,-2.16
1629709061718,0.21
1629709061734,2.85
1629709061750,5.57
1629709061765,8.13
1629709061781,10.3
1629709061796,11.98
1629709061812,13.21
1629709061828,14.1
1629709061843,14.74
1629709061859,15.12
1629709061875,15.17
1629709061890,14.82
1629709061906,14.07
1629709061921,12.98
1629709061937,11.6
1629709061953,9.97
1629709061968,8.08
1629709061984,6.13
1629709062000,4.61
1629709062015,4.19
1629709062031,5.59
1629709062046,9.05
1629709062062,14.07
1629709062078,19.47
1629709062093,23.69
1629709062109,25.48
1629709062125,24.34
1629709062140,20.66
1629709062156,15.46
1629709062171,9.84
1629709062187,4.56
1629709062203,-0.2
1629709062218,-4.61
1629709062234,-8.94
1629709062250,-13.26
1629709062265,-17.33
1629709062281,-20.7
1629709062296,-23.01
1629709062312,-24.07
1629709062328,-24.01
1629709062343,-23.16
1629709062359,-21.8
1629709062375,-20.04
1629709062390,-17.78
1629709062406,-14.8
1629709062421,-11.06
1629709062437,-6.78
1629709062453,-2.4
1629709062468,1.5
1629709062484,4.51
1629709062500,6.53
1629709062515,7.76
1629709062531,8.59
1629709062546,9.37
1629709062562,10.29
1629709062578,11.32
1629709062593,12.35
1629709062609,13.18
1629709062625,13.71
1629709062640,13.88
1629709062656,13.72
1629709062671,13.36
1629709062687,12.98
1629709062703,12.73
1629709062718,12.71
1629709062734,12.88
1629709062750,13.07
1629709062765,13.05
1629709062781,12.59
1629709062796,11.57
1629709062812,10.05
1629709062828,8.25
1629709062843,6.41
1629709062859,4.73
1629709062875,3.24
1629709062890,1.79
1629709062906,0.2
1629709062921,-1.73
1629709062937,-4.07
1629709062953,-6.79
1629709062968,-9.78
1629709062984,-12.85
1629709063000,-15.76
1629709063015,-18.27
1629709063031,-20.12
1629709063046,-21.08
1629709063062,-21.06
1629709063078,-20.11
1629709063093,-18.38
1629709063109,-16.08
1629709063125,-13.36
1629709063140,-10.28
1629709063156,-6.91
1629709063171,-3.32
1629709063187,0.32
1629709063203,3.79
1629709063218,6.81
1629709063234,9.18
1629709063250,10.78
1629709063265,11.64
1629709063281,11.97
1629709063296,12.0
1629709063312,12.01
1629709063328,12.14
1629709063343,12.48
1629709063359,12.9
1629709063375,13.28
1629709063390,13.43
1629709063406,13.31
1629709063421,12.97
1629709063437,12.54
1629709063453,12.16
1629709063468,11.85
1629709063484,11.58
1629709063500,11.19
1629709063515,10.56
1629709063531,9.58
1629709063546,8.28
1629709063562,6.78
1629709063578,5.17
1629709063593,3.52
1629709063609,1.85
1629709063625,0.17
1629709063640,-1.49
1629709063656,-3.08
1629709063671,-4.49
1629709063687,-5.66
1629709063703,-6.59
1629709063718,-7.44
1629709063734,-8.45
1629709063750,-9.89
1629709063765,-11.91
1629709063781,-14.44
1629709063796,-17.18
1629709063812,-19.63
1629709063828,-21.27
1629709063843,-21.75
1629709063859,-21.0
1629709063875,-19.16
1629709063890,-16.55
1629709063906,-13.43
1629709063921,-9.98
1629709063937,-6.31
1629709063953,-2.52
1629709063968,1.16
1629709063984,4.48
1629709064000,7.18
1629709064015,9.19
1629709064031,10.58
1629709064046,11.53
1629709064062,12.25
1629709064078,12.8
1629709064093,13.14
1629709064109,13.12
1629709064125,12.62
1629709064140,11.61
1629709064156,10.23
1629709064171,8.75
1629709064187,7.54
1629709064203,6.9
1629709064218,6.99
1629709064234,7.76
1629709064250,8.94
1629709064265,10.19
1629709064281,11.29
1629709064296,12.16
1629709064312,12.91
1629709064328,13.65
1629709064343,14.34
1629709064359,14.78
1629709064375,14.69
1629709064390,13.9
1629709064406,12.46
1629709064421,10.65
1629709064437,8.81
1629709064453,7.22
1629709064468,5.96
1629709064484,4.93
1629709064500,3.94
1629709064515,2.79
1629709064531,1.35
1629709064546,-0.48
1629709064562,-2.78
1629709064578,-5.58
1629709064593,-8.77
1629709064609,-12.07
1629709064625,-15.0
1629709064640,-17.06
1629709064656,-17.87
1629709064671,-17.32
1629709064687,-15.6
1629709064703,-13.04
1629709064718,-10.03
1629709064734,-6.76
1629709064750,-3.31
1629709064765,0.29
1629709064781,4.06
1629709064796,7.84
1629709064812,11.39
1629709064828,14.43
1629709064843,16.74
1629709064859,18.35
1629709064875,19.54
1629709064890,20.67
1629709064906,22.02
1629709064921,23.55
1629709064937,24.9
1629709064953,25.73
1629709064968,25.86
1629709064984,25.52
1629709065000,25.22
1629709065015,25.4
1629709065031,26.24
1629709065046,27.57
1629709065062,29.05
1629709065078,30.42
1629709065093,31.69
1629709065109,33.04
1629709065125,34.61
1629709065140,36.35
1629709065156,37.93
1629709065171,39.04
1629709065187,39.48
1629709065203,39.25
1629709065218,38.36
1629709065234,36.81
1629709065250,34.55
1629709065265,31.55
1629709065281,27.99
1629709065296,24.22
1629709065312,20.69
1629709065328,17.76
1629709065343,15.48
1629709065359,13.54
1629709065375,11.34
1629709065390,8.17
1629709065406,3.48
1629709065421,-2.88
1629709065437,-10.62
1629709065453,-19.03
1629709065468,-27.19
1629709065484,-34.15
1629709065500,-39.23
1629709065515,-42.18
1629709065531,-43.15
1629709065546,-42.67
1629709065562,-41.52
1629709065578,-40.56
1629709065593,-40.53
1629709065609,-41.83
1629709065625,-44.33
1629709065640,-47.32
1629709065656,-49.81
1629709065671,-50.92
1629709065687,-50.27
1629709065703,-48.13
1629709065718,-45.27
1629709065734,-42.56
1629709065750,-40.53
1629709065765,-39.22
1629709065781,-38.31
1629709065796,-37.36
1629709065812,-36.18
1629709065828,-34.85
1629709065843,-33.58
1629709065859,-32.47
1629709065875,-31.35
1629709065890,-29.86
1629709065906,-27.66
1629709065921,-24.63
1629709065937,-21.02
1629709065953,-17.31
1629709065968,-14.0
1629709065984,-11.47
1629709066000,-9.75
1629709066015,-8.64
1629709066031,-7.77
1629709066046,-6.8
1629709066062,-5.58
1629709066078,-4.18
1629709066093,-2.81
1629709066109,-1.75
1629709066125,-1.2
1629709066140,-1.13
1629709066156,-1.36
1629709066171,-1.66
1629709066187,-1.84
1629709066203,-1.87
1629709066218,-1.92
1629709066234,-2.26
1629709066250,-3.19
1629709066265,-4.85
1629709066281,-7.18
1629709066296,-9.9
1629709066312,-12.6
1629709066328,-14.82
1629709066343,-16.14
1629709066359,-16.32
1629709066375,-15.28
1629709066390,-13.15
1629709066406,-10.22
1629709066421,-6.81
1629709066437,-3.23
1629709066453,0.28
1629709066468,3.52
1629709066484,6.32
1629709066500,8.55
1629709066515,10.19
1629709066531,11.27
1629709066546,11.95
1629709066562,12.42
1629709066578,12.85
1629709066593,13.29
1629709066609,13.72
1629709066625,14.04
1629709066640,14.17
1629709066656,14.07
1629709066671,13.75
1629709066687,13.25
1629709066703,12.72
1629709066718,12.3
1629709066734,12.15
1629709066750,12.4
1629709066765,13.02
1629709066781,13.86
1629709066796,14.64
1629709066812,15.11
1629709066828,15.1
1629709066843,14.64
1629709066859,13.83
1629709066875,12.85
1629709066890,11.83
1629709066906,10.78
1629709066921,9.63
1629709066937,8.31
1629709066953,6.79
1629709066968,5.11
1629709066984,3.35
1629709067000,1.6
1629709067015,-0.02
1629709067031,-1.41
1629709067046,-2.51
1629709067062,-3.31
1629709067078,-3.91
1629709067093,-4.51
1629709067109,-5.43
1629709067125,-6.96
1629709067140,-9.27
1629709067156,-12.27
1629709067171,-15.58
1629709067187,-18.59
1629709067203,-20.65
1629709067218,-21.3
1629709067234,-20.47
1629709067250,-18.44
1629709067265,-15.74
1629709067281,-12.93
1629709067296,-10.36
1629709067312,-8.08
1629709067328,-5.92
1629709067343,-3.69
1629709067359,-1.28
1629709067375,1.22
1629709067390,3.6
1629709067406,5.65
1629709067421,7.21
1629709067437,8.27
1629709067453,8.88
1629709067468,9.11
1629709067484,9.04
1629709067500,8.8
1629709067515,8.63
1629709067531,8.82
1629709067546,9.67
1629709067562,11.29
1629709067578,13.51
1629709067593,15.94
1629709067609,18.01
1629709067625,19.22
1629709067640,19.37
1629709067656,18.53
1629709067671,17.02
1629709067687,15.26
1629709067703,13.56
1629709067718,12.0
1629709067734,10.56
1629709067750,9.07
1629709067765,7.48
1629709067781,5.88
1629709067796,4.46
1629709067812,3.42
1629709067828,2.87
1629709067843,2.65
1629709067859,2.46
1629709067875,1.97
1629709067890,1.03
1629709067906,-0.25
1629709067921,-1.56
1629709067937,-2.64
1629709067953,-3.37
1629709067968,-3.91
1629709067984,-4.59
1629709068000,-5.68
1629709068015,-7.2
1629709068031,-8.99
1629709068046,-10.74
1629709068062,-12.18
1629709068078,-13.22
1629709068093,-13.9
1629709068109,-14.28
1629709068125,-14.4
1629709068140,-14.18
1629709068156,-13.5
1629709068171,-12.21
1629709068187,-10.19
1629709068203,-7.37
1629709068218,-3.93
1629709068234,-0.28
1629709068250,2.89
1629709068265,4.8
1629709068281,4.83
1629709068296,2.83
1629709068312,-0.75
1629709068328,-5.06
1629709068343,-9.04
1629709068359,-11.94
1629709068375,-13.48
1629709068390,-13.81
1629709068406,-13.35
1629709068421,-12.45
1629709068437,-11.29
1629709068453,-9.82
1629709068468,-8.01
1629709068484,-5.91
1629709068500,-3.71
1629709068515,-1.7
1629709068531,-0.09
1629709068546,1.09
1629709068562,2.02
1629709068578,2.92
1629709068593,3.96
1629709068609,5.07
1629709068625,6.03
1629709068640,6.56
1629709068656,6.42
1629709068671,5.59
1629709068687,4.26
1629709068703,2.81
1629709068718,1.65
1629709068734,1.11
1629709068750,1.25
1629709068765,1.87
1629709068781,2.64
1629709068796,3.11
1629709068812,2.99
1629709068828,2.11
1629709068843,0.5
1629709068859,-1.67
1629709068875,-4.18
1629709068890,-6.74
1629709068906,-9.04
1629709068921,-10.77
1629709068937,-11.7
1629709068953,-11.71
1629709068968,-10.84
1629709068984,-9.27
1629709069000,-7.15
1629709069015,-4.6
1629709069031,-1.72
1629709069046,1.36
1629709069062,4.41
1629709069078,7.12
1629709069093,9.24
1629709069109,10.62
1629709069125,11.36
1629709069140,11.7
1629709069156,11.95
1629709069171,12.3
1629709069187,12.79
1629709069203,13.27
1629709069218,13.54
1629709069234,13.47
1629709069250,13.11
1629709069265,12.62
1629709069281,12.35
1629709069296,12.46
1629709069312,12.98
1629709069328,13.65
1629709069343,14.13
1629709069359,14.06
1629709069375,13.34
1629709069390,12.13
1629709069406,10.73
1629709069421,9.5
1629709069437,8.55
1629709069453,7.83
1629709069468,7.13
1629709069484,6.28
1629709069500,5.16
1629709069515,3.82
1629709069531,2.38
1629709069546,0.96
1629709069562,-0.35
1629709069578,-1.58
1629709069593,-2.8
1629709069609,-4.17
1629709069625,-5.81
1629709069640,-7.89
1629709069656,-10.47
1629709069671,-13.55
1629709069687,-17.0
1629709069703,-20.54
1629709069718,-23.83
1629709069734,-26.44
1629709069750,-28.03
1629709069765,-28.4
1629709069781,-27.57
1629709069796,-25.7
1629709069812,-23.1
1629709069828,-20.06
1629709069843,-16.8
1629709069859,-13.51
1629709069875,-10.29
1629709069890,-7.31
1629709069906,-4.73
1629709069921,-2.6
1629709069937,-0.93
1629709069953,0.41
1629709069968,1.63
1629709069984,2.91
1629709070000,4.37
1629709070015,6.05
1629709070031,7.74
1629709070046,9.18
1629709070062,10.14
1629709070078,10.5
1629709070093,10.35
1629709070109,9.95
1629709070125,9.62
1629709070140,9.47
1629709070156,9.47
1629709070171,9.36
1629709070187,8.91
1629709070203,8.13
1629709070218,7.25
1629709070234,6.67
1629709070250,6.68
1629709070265,7.29
1629709070281,8.15
1629709070296,8.74
1629709070312,8.65
1629709070328,7.72
1629709070343,6.15
1629709070359,4.33
1629709070375,2.67
1629709070390,1.43
1629709070406,0.6
1629709070421,-0.02
1629709070437,-0.72
1629709070453,-1.8
1629709070468,-3.46
1629709070484,-5.78
1629709070500,-8.76
1629709070515,-12.19
1629709070531,-15.76
1629709070546,-18.98
1629709070562,-21.32
1629709070578,-22.31
1629709070593,-21.69
1629709070609,-19.54
1629709070625,-16.16
1629709070640,-12.09
1629709070656,-7.78
1629709070671,-3.67
1629709070687,0.01
1629709070703,3.1
1629709070718,5.49
1629709070734,7.2
1629709070750,8.34
1629709070765,9.16
1629709070781,9.89
1629709070796,10.74
1629709070812,11.73
1629709070828,12.8
1629709070843,13.8
1629709070859,14.64
1629709070875,15.34
1629709070890,15.89
1629709070906,16.35
1629709070921,16.72
1629709070937,17.04
1629709070953,17.31
1629709070968,17.57
1629709070984,17.78
1629709071000,17.88
1629709071015,17.78
1629709071031,17.4
1629709071046,16.75
1629709071062,15.94
1629709071078,15.07
1629709071093,14.23
1629709071109,13.32
1629709071125,12.19
1629709071140,10.69
1629709071156,8.77
1629709071171,6.52
1629709071187,4.1
1629709071203,1.73
1629709071218,-0.48
1629709071234,-2.49
1629709071250,-4.29
1629709071265,-5.89
1629709071281,-7.34
1629709071296,-8.72
1629709071312,-10.19
1629709071328,-12.0
1629709071343,-14.37
1629709071359,-17.44
1629709071375,-21.08
1629709071390,-24.91
1629709071406,-28.33
1629709071421,-30.74
1629709071437,-31.63
1629709071453,-30.81
1629709071468,-28.41
1629709071484,-24.88
1629709071500,-20.82
1629709071515,-16.86
1629709071531,-13.46
1629709071546,-10.85
1629709071562,-9.02
1629709071578,-7.74
1629709071593,-6.72
1629709071609,-5.71
1629709071625,-4.54
1629709071640,-3.18
1629709071656,-1.69
1629709071671,-0.13
1629709071687,1.49
1629709071703,3.17
1629709071718,4.85
1629709071734,6.39
1629709071750,7.53
1629709071765,8.03
1629709071781,7.8
1629709071796,6.95
1629709071812,5.79
1629709071828,4.74
1629709071843,4.08
1629709071859,3.9
1629709071875,4.08
1629709071890,4.38
1629709071906,4.56
1629709071921,4.53
1629709071937,4.25
1629709071953,3.78
1629709071968,3.15
1629709071984,2.38
1629709072000,1.5
1629709072015,0.74
1629709072031,0.43
1629709072046,0.92
1629709072062,2.36
1629709072078,4.56
1629709072093,6.96
1629709072109,8.88
1629709072125,9.83
1629709072140,9.7
1629709072156,8.7
1629709072171,7.16
1629709072187,5.17
1629709072203,2.54
1629709072218,-1.04
1629709072234,-5.72
1629709072250,-11.16
1629709072265,-16.52
1629709072281,-20.74
1629709072296,-22.92
1629709072312,-22.7
1629709072328,-20.35
1629709072343,-16.58
1629709072359,-12.38
1629709072375,-8.61
1629709072390,-5.9
1629709072406,-4.44
1629709072421,-4.02
1629709072437,-4.0
1629709072453,-3.61
1629709072468,-2.17
1629709072484,0.64
1629709072500,4.63
1629709072515,9.25
1629709072531,13.8
1629709072546,17.72
1629709072562,20.74
1629709072578,22.9
1629709072593,24.38
1629709072609,25.29
1629709072625,25.62
1629709072640,25.32
1629709072656,24.4
1629709072671,23.08
1629709072687,21.74
1629709072703,20.71
1629709072718,20.15
1629709072734,19.94
1629709072750,19.71
1629709072765,19.07
1629709072781,17.81
1629709072796,16.01
1629709072812,14.04
1629709072828,12.31
1629709072843,11.18
1629709072859,10.77
1629709072875,10.96
1629709072890,11.46
1629709072906,11.88
1629709072921,11.87
1629709072937,11.18
1629709072953,9.74
1629709072968,7.61
1629709072984,4.97
1629709073000,2.0
1629709073015,-1.15
1629709073031,-4.42
1629709073046,-7.77
1629709073062,-11.16
1629709073078,-14.55
1629709073093,-17.87
1629709073109,-21.07
1629709073125,-24.11
1629709073140,-26.97
1629709073156,-29.53
1629709073171,-31.56
1629709073187,-32.8
1629709073203,-33.0
1629709073218,-32.06
1629709073234,-30.07
1629709073250,-27.24
1629709073265,-23.86
1629709073281,-20.2
1629709073296,-16.47
1629709073312,-12.76
1629709073328,-9.17
1629709073343,-5.73
1629709073359,-2.52
1629709073375,0.36
1629709073390,2.78
1629709073406,4.71
1629709073421,6.2
1629709073437,7.36
1629709073453,8.38
1629709073468,9.36
1629709073484,10.31
1629709073500,11.13
1629709073515,11.74
1629709073531,12.14
1629709073546,12.49
1629709073562,12.95
1629709073578,13.67
1629709073593,14.61
1629709073609,15.58
1629709073625,16.34
1629709073640,16.71
1629709073656,16.66
1629709073671,16.27
1629709073687,15.7
1629709073703,15.0
1629709073718,14.14
1629709073734,13.01
1629709073750,11.45
1629709073765,9.46
1629709073781,7.13
1629709073796,4.68
1629709073812,2.33
1629709073828,0.26
1629709073843,-1.45
1629709073859,-2.86
1629709073875,-4.08
1629709073890,-5.32
1629709073906,-6.81
1629709073921,-8.78
1629709073937,-11.31
1629709073953,-14.28
1629709073968,-17.3
1629709073984,-19.84
1629709074000,-21.35
1629709074015,-21.43
1629709074031,-20.01
1629709074046,-17.26
1629709074062,-13.57
1629709074078,-9.36
1629709074093,-5.02
1629709074109,-0.8
1629709074125,3.11
1629709074140,6.59
1629709074156,9.56
1629709074171,11.94
1629709074187,13.71
1629709074203,14.9
1629709074218,15.62
1629709074234,15.99
1629709074250,16.13
1629709074265,16.1
1629709074281,15.91
1629709074296,15.55
1629709074312,15.05
1629709074328,14.48
1629709074343,14.01
1629709074359,13.73
1629709074375,13.63
1629709074390,13.53
1629709074406,13.21
1629709074421,12.52
1629709074437,11.52
1629709074453,10.44
1629709074468,9.54
1629709074484,8.95
1629709074500,8.6
1629709074515,8.25
1629709074531,7.7
1629709074546,6.86
1629709074562,5.75
1629709074578,4.56
1629709074593,3.42
1629709074609,2.37
1629709074625,1.34
1629709074640,0.2
1629709074656,-1.1
1629709074671,-2.54
1629709074687,-4.05
1629709074703,-5.64
1629709074718,-7.37
1629709074734,-9.37
1629709074750,-11.72
1629709074765,-14.32
1629709074781,-16.81
1629709074796,-18.71
1629709074812,-19.46
1629709074828,-18.68
1629709074843,-16.29
1629709074859,-12.52
1629709074875,-7.83
1629709074890,-2.71
1629709074906,2.4
1629709074921,7.25
1629709074937,11.64
1629709074953,15.44
1629709074968,18.52
1629709074984,20.84
1629709075000,22.46
1629709075015,23.59
1629709075031,24.52
1629709075046,25.5
1629709075062,26.57
1629709075078,27.49
1629709075093,27.79
1629709075109,27.02
1629709075125,24.91
1629709075140,21.5
1629709075156,17.18
1629709075171,12.47
1629709075187,7.88
1629709075203,3.73
1629709075218,0.12
1629709075234,-3.02
1629709075250,-5.81
1629709075265,-8.27
1629709075281,-10.34
1629709075296,-11.9
1629709075312,-12.85
1629709075328,-13.26
1629709075343,-13.35
1629709075359,-13.45
1629709075375,-13.9
1629709075390,-14.81
1629709075406,-16.13
1629709075421,-17.57
1629709075437,-18.77
1629709075453,-19.48
1629709075468,-19.61
1629709075484,-19.32
1629709075500,-18.89
1629709075515,-18.61
1629709075531,-18.66
1629709075546,-19.09
1629709075562,-19.8
1629709075578,-20.57
1629709075593,-21.13
1629709075609,-21.15
1629709075625,-20.38
1629709075640,-18.66
1629709075656,-15.97
1629709075671,-12.45
1629709075687,-8.39
1629709075703,-4.13
1629709075718,-0.02
1629709075734,3.67
1629709075750,6.72
1629709075765,9.03
1629709075781,10.6
1629709075796,11.5
1629709075812,11.87
1629709075828,11.94
1629709075843,11.87
1629709075859,11.81
1629709075875,11.81
1629709075890,11.87
1629709075906,12.0
1629709075921,12.26
1629709075937,12.72
1629709075953,13.47
1629709075968,14.55
1629709075984,15.92
1629709076000,17.38
1629709076015,18.68
1629709076031,19.58
1629709076046,19.92
1629709076062,19.76
1629709076078,19.25
1629709076093,18.65
1629709076109,18.15
1629709076125,17.82
1629709076140,17.56
1629709076156,17.17
1629709076171,16.5
1629709076187,15.48
1629709076203,14.17
1629709076218,12.61
1629709076234,10.79
1629709076250,8.54
1629709076265,5.65
1629709076281,2.02
1629709076296,-2.25
1629709076312,-6.85
1629709076328,-11.39
1629709076343,-15.55
1629709076359,-19.26
1629709076375,-22.66
1629709076390,-26.01
1629709076406,-29.47
1629709076421,-33.04
1629709076437,-36.54
1629709076453,-39.6
1629709076468,-41.89
1629709076484,-43.09
1629709076500,-43.03
1629709076515,-41.68
1629709076531,-39.13
1629709076546,-35.55
1629709076562,-31.17
1629709076578,-26.24
1629709076593,-20.94
1629709076609,-15.5
1629709076625,-10.11
1629709076640,-5.08
1629709076656,-0.81
1629709076671,2.32
1629709076687,4.06
1629709076703,4.44
1629709076718,3.8
1629709076734,2.67
1629709076750,1.59
1629709076765,0.91
1629709076781,0.7
1629709076796,0.81
1629709076812,1.05
1629709076828,1.27
1629709076843,1.46
1629709076859,1.75
1629709076875,2.26
1629709076890,3.13
1629709076906,4.47
1629709076921,6.45
1629709076937,9.19
1629709076953,12.7
1629709076968,16.77
1629709076984,20.98
1629709077000,24.72
1629709077015,27.44
1629709077031,28.78
1629709077046,28.61
1629709077062,27.11
1629709077078,24.63
1629709077093,21.54
1629709077109,18.14
1629709077125,14.6
1629709077140,10.97
1629709077156,7.29
1629709077171,3.61
1629709077187,0.04
1629709077203,-3.22
1629709077218,-6.02
1629709077234,-8.3
1629709077250,-10.17
1629709077265,-11.81
1629709077281,-13.46
1629709077296,-15.25
1629709077312,-17.23
1629709077328,-19.41
1629709077343,-21.74
1629709077359,-24.15
1629709077375,-26.47
1629709077390,-28.42
1629709077406,-29.62
1629709077421,-29.7
1629709077437,-28.44
1629709077453,-25.95
1629709077468,-22.64
1629709077484,-19.09
1629709077500,-15.85
1629709077515,-13.2
1629709077531,-11.1
1629709077546,-9.33
1629709077562,-7.65
1629709077578,-5.94
1629709077593,-4.29
1629709077609,-2.82
1629709077625,-1.57
1629709077640,-0.41
1629709077656,1.01
1629709077671,3.06
1629709077687,5.95
1629709077703,9.58
1629709077718,13.64
1629709077734,17.67
1629709077750,21.32
1629709077765,24.38
1629709077781,26.78
1629709077796,28.5
1629709077812,29.49
1629709077828,29.67
1629709077843,28.96
1629709077859,27.44
1629709077875,25.35
1629709077890,23.08
1629709077906,21.0
1629709077921,19.31
1629709077937,18.04
1629709077953,17.02
1629709077968,16.05
1629709077984,14.95
1629709078000,13.58
1629709078015,11.87
1629709078031,9.8
1629709078046,7.36
1629709078062,4.64
1629709078078,1.8
1629709078093,-1.0
1629709078109,-3.56
1629709078125,-5.84
1629709078140,-7.9
1629709078156,-9.95
1629709078171,-12.22
1629709078187,-14.87
1629709078203,-17.93
1629709078218,-21.27
1629709078234,-24.63
1629709078250,-27.69
1629709078265,-30.1
1629709078281,-31.55
1629709078296,-31.82
1629709078312,-30.82
1629709078328,-28.56
1629709078343,-25.19
1629709078359,-20.97
1629709078375,-16.18
1629709078390,-11.19
1629709078406,-6.35
1629709078421,-1.97
1629709078437,1.8
1629709078453,4.9
1629709078468,7.46
1629709078484,9.6
1629709078500,11.43
1629709078515,12.99
1629709078531,14.31
1629709078546,15.45
1629709078562,16.58
1629709078578,17.89
1629709078593,19.48
1629709078609,21.25
1629709078625,22.86
1629709078640,23.88
1629709078656,23.94
1629709078671,22.93
1629709078687,21.02
1629709078703,18.63
1629709078718,16.2
1629709078734,14.05
1629709078750,12.23
1629709078765,10.58
1629709078781,8.86
1629709078796,6.87
1629709078812,4.58
1629709078828,2.08
1629709078843,-0.54
1629709078859,-3.19
1629709078875,-5.95
1629709078890,-8.9
1629709078906,-12.06
1629709078921,-15.28
1629709078937,-18.21
1629709078953,-20.38
1629709078968,-21.47
1629709078984,-21.4
1629709079000,-20.48
1629709079015,-19.19
1629709079031,-18.09
1629709079046,-17.55
1629709079062,-17.75
1629709079078,-18.65
1629709079093,-20.05
1629709079109,-21.68
1629709079125,-23.26
1629709079140,-24.47
1629709079156,-25.0
1629709079171,-24.6
1629709079187,-23.11
1629709079203,-20.56
1629709079218,-17.13
1629709079234,-13.07
1629709079250,-8.62
1629709079265,-3.98
1629709079281,0.63
1629709079296,4.98
1629709079312,8.8
1629709079328,11.84
1629709079343,13.93
1629709079359,15.03
1629709079375,15.2
1629709079390,14.64
1629709079406,13.58
1629709079421,12.27
1629709079437,10.94
1629709079453,9.76
1629709079468,8.83
1629709079484,8.1
1629709079500,7.39
1629709079515,6.5
1629709079531,5.33
1629709079546,3.89
1629709079562,2.34
1629709079578,0.9
1629709079593,-0.27
1629709079609,-1.14
1629709079625,-1.75
1629709079640,-2.25
1629709079656,-2.75
1629709079671,-3.4
1629709079687,-4.31
1629709079703,-5.51
1629709079718,-6.9
1629709079734,-8.25
1629709079750,-9.25
1629709079765,-9.54
1629709079781,-8.86
1629709079796,-7.1
1629709079812,-4.43
1629709079828,-1.23
1629709079843,1.98
1629709079859,4.62
1629709079875,6.19
1629709079890,6.37
1629709079906,5.06
1629709079921,2.45
1629709079937,-1.06
1629709079953,-4.95
1629709079968,-8.61
1629709079984,-11.51
1629709080000,-13.29
1629709080015,-13.81
1629709080031,-13.14
1629709080046,-11.62
1629709080062,-9.6
1629709080078,-7.39
1629709080093,-5.14
1629709080109,-2.81
1629709080125,-0.34
1629709080140,2.27
1629709080156,4.9
1629709080171,7.37
1629709080187,9.42
1629709080203,10.95
1629709080218,11.99
1629709080234,12.66
1629709080250,13.13
1629709080265,13.54
1629709080281,13.92
1629709080296,14.32
1629709080312,14.7
1629709080328,15.07
1629709080343,15.47
1629709080359,15.93
1629709080375,16.41
1629709080390,16.86
1629709080406,17.15
1629709080421,17.17
1629709080437,16.89
1629709080453,16.32
1629709080468,15.59
1629709080484,14.85
1629709080500,14.24
1629709080515,13.76
1629709080531,13.3
1629709080546,12.6
1629709080562,11.39
1629709080578,9.48
1629709080593,6.88
1629709080609,3.81
1629709080625,0.62
1629709080640,-2.41
1629709080656,-5.13
1629709080671,-7.64
1629709080687,-10.17
1629709080703,-12.98
1629709080718,-16.19
1629709080734,-19.72
1629709080750,-23.31
1629709080765,-26.61
1629709080781,-29.3
1629709080796,-31.12
1629709080812,-31.88
1629709080828,-31.49
1629709080843,-29.94
1629709080859,-27.29
1629709080875,-23.78
1629709080890,-19.69
1629709080906,-15.3
1629709080921,-10.85
1629709080937,-6.44
1629709080953,-2.12
1629709080968,2.02
1629709080984,5.85
1629709081000,9.14
1629709081015,11.69
1629709081031,13.38
1629709081046,14.3
1629709081062,14.65
1629709081078,14.7
1629709081093,14.7
1629709081109,14.77
1629709081125,14.93
1629709081140,15.15
1629709081156,15.33
1629709081171,15.44
1629709081187,15.45
1629709081203,15.39
1629709081218,15.33
1629709081234,15.24
1629709081250,15.03
1629709081265,14.54
1629709081281,13.65
1629709081296,12.4
1629709081312,10.98
1629709081328,9.6
1629709081343,8.44
1629709081359,7.5
1629709081375,6.66
1629709081390,5.69
1629709081406,4.48
1629709081421,3.0
1629709081437,1.38
1629709081453,-0.24
1629709081468,-1.8
1629709081484,-3.32
1629709081500,-4.86
1629709081515,-6.48
1629709081531,-8.23
1629709081546,-10.14
1629709081562,-12.35
1629709081578,-14.99
1629709081593,-18.07
1629709081609,-21.42
1629709081625,-24.61
1629709081640,-27.08
1629709081656,-28.32
1629709081671,-27.98
1629709081687,-26.0
1629709081703,-22.6
1629709081718,-18.13
1629709081734,-12.98
1629709081750,-7.44
1629709081765,-1.79
1629709081781,3.72
1629709081796,8.78
1629709081812,13.1
1629709081828,16.43
1629709081843,18.67
1629709081859,19.85
1629709081875,20.15
1629709081890,19.77
1629709081906,18.97
1629709081921,17.97
1629709081937,16.93
1629709081953,15.98
1629709081968,15.22
1629709081984,14.67
1629709082000,14.3
1629709082015,14.02
1629709082031,13.77
1629709082046,13.52
1629709082062,13.27
1629709082078,13.02
1629709082093,12.73
1629709082109,12.27
1629709082125,11.51
1629709082140,10.4
1629709082156,9.02
1629709082171,7.56
1629709082187,6.22
1629709082203,5.16
1629709082218,4.36
1629709082234,3.65
1629709082250,2.82
1629709082265,1.68
1629709082281,0.16
1629709082296,-1.67
1629709082312,-3.68
1629709082328,-5.72
1629709082343,-7.71
1629709082359,-9.61
1629709082375,-11.47
1629709082390,-13.33
1629709082406,-15.27
1629709082421,-17.39
1629709082437,-19.75
1629709082453,-22.35
1629709082468,-25.1
1629709082484,-27.73
1629709082500,-29.87
1629709082515,-31.1
1629709082531,-31.1
1629709082546,-29.73
1629709082562,-27.08
1629709082578,-23.36
1629709082593,-18.93
1629709082609,-14.14
1629709082625,-9.3
1629709082640,-4.7
1629709082656,-0.48
1629709082671,3.29
1629709082687,6.58
1629709082703,9.36
1629709082718,11.62
1629709082734,13.36
1629709082750,14.61
1629709082765,15.49
1629709082781,16.16
1629709082796,16.76
1629709082812,17.4
1629709082828,18.06
1629709082843,18.72
1629709082859,19.38
1629709082875,20.11
1629709082890,20.98
1629709082906,21.98
1629709082921,22.93
1629709082937,23.53
1629709082953,23.46
1629709082968,22.54
1629709082984,20.79
1629709083000,18.43
1629709083015,15.77
1629709083031,13.04
1629709083046,10.37
1629709083062,7.76
1629709083078,5.14
1629709083093,2.47
1629709083109,-0.24
1629709083125,-2.89
1629709083140,-5.35
1629709083156,-7.54
1629709083171,-9.43
1629709083187,-11.1
1629709083203,-12.72
1629709083218,-14.39
1629709083234,-16.13
1629709083250,-17.82
1629709083265,-19.24
1629709083281,-20.24
1629709083296,-20.85
1629709083312,-21.29
1629709083328,-21.91
1629709083343,-22.91
1629709083359,-24.24
1629709083375,-25.47
1629709083390,-25.97
1629709083406,-25.05
1629709083421,-22.37
1629709083437,-17.91
1629709083453,-12.06
1629709083468,-5.45
1629709083484,1.22
1629709083500,7.26
1629709083515,12.14
1629709083531,15.58
1629709083546,17.53
1629709083562,18.18
1629709083578,17.81
1629709083593,16.74
1629709083609,15.22
1629709083625,13.33
1629709083640,11.11
1629709083656,8.66
1629709083671,6.15
1629709083687,3.74
1629709083703,1.59
1629709083718,-0.28
1629709083734,-1.89
1629709083750,-3.31
1629709083765,-4.46
1629709083781,-5.28
1629709083796,-5.68
1629709083812,-5.69
1629709083828,-5.51
1629709083843,-5.4
1629709083859,-5.61
1629709083875,-6.32
1629709083890,-7.54
1629709083906,-9.15
1629709083921,-10.93
1629709083937,-12.66
1629709083953,-14.1
1629709083968,-15.09
1629709083984,-15.57
1629709084000,-15.63
1629709084015,-15.42
1629709084031,-15.11
1629709084046,-14.77
1629709084062,-14.34
1629709084078,-13.68
1629709084093,-12.7
1629709084109,-11.39
1629709084125,-9.89
1629709084140,-8.43
1629709084156,-7.24
1629709084171,-6.41
1629709084187,-5.89
1629709084203,-5.49
1629709084218,-4.89
1629709084234,-3.75
1629709084250,-1.79
1629709084265,1.16
1629709084281,5.04
1629709084296,9.45
1629709084312,13.85
1629709084328,17.61
1629709084343,20.25
1629709084359,21.66
1629709084375,22.02
1629709084390,21.67
1629709084406,20.91
1629709084421,19.8
1629709084437,18.16
1629709084453,15.79
1629709084468,12.58
1629709084484,8.71
1629709084500,4.61
1629709084515,0.76
1629709084531,-2.48
1629709084546,-4.97
1629709084562,-6.81
1629709084578,-8.24
1629709084593,-9.43
1629709084609,-10.41
1629709084625,-11.16
1629709084640,-11.53
1629709084656,-11.57
1629709084671,-11.43
1629709084687,-11.3
1629709084703,-11.31
1629709084718,-11.41
1629709084734,-11.39
1629709084750,-10.96
1629709084765,-9.96
1629709084781,-8.4
1629709084796,-6.55
1629709084812,-4.82
1629709084828,-3.54
1629709084843,-2.93
1629709084859,-2.97
1629709084875,-3.46
1629709084890,-4.19
1629709084906,-4.92
1629709084921,-5.53
1629709084937,-6.05
1629709084953,-6.55
1629709084968,-7.13
1629709084984,-7.92
1629709085000,-8.96
1629709085015,-10.23
1629709085031,-11.6
1629709085046,-12.81
1629709085062,-13.46
1629709085078,-13.14
1629709085093,-11.61
1629709085109,-8.86
1629709085125,-5.21
1629709085140,-1.11
1629709085156,3.02
1629709085171,6.94
1629709085187,10.68
1629709085203,14.36
1629709085218,18.05
1629709085234,21.53
1629709085250,24.45
1629709085265,26.36
1629709085281,27.07
1629709085296,26.65
1629709085312,25.51
1629709085328,24.13
1629709085343,22.9
1629709085359,22.0
1629709085375,21.38
1629709085390,20.86
1629709085406,20.25
1629709085421,19.44
1629709085437,18.45
1629709085453,17.4
1629709085468,16.46
1629709085484,15.82
1629709085500,15.55
1629709085515,15.67
1629709085531,16.03
1629709085546,16.3
1629709085562,16.11
1629709085578,15.1
1629709085593,13.06
1629709085609,10.02
1629709085625,6.33
1629709085640,2.48
1629709085656,-1.01
1629709085671,-3.72
1629709085687,-5.56
1629709085703,-6.7
1629709085718,-7.49
1629709085734,-8.31
1629709085750,-9.46
1629709085765,-11.14
1629709085781,-13.42
1629709085796,-16.33
1629709085812,-19.76
1629709085828,-23.48
1629709085843,-27.09
1629709085859,-30.09
1629709085875,-31.94
1629709085890,-32.28
1629709085906,-31.03
1629709085921,-28.41
1629709085937,-24.87
1629709085953,-20.91
1629709085968,-16.93
1629709085984,-13.11
1629709086000,-9.5
1629709086015,-6.09
1629709086031,-2.92
1629709086046,-0.13
1629709086062,2.21
1629709086078,4.03
1629709086093,5.48
1629709086109,6.82
1629709086125,8.42
1629709086140,10.58
1629709086156,13.48
1629709086171,17.02
1629709086187,20.81
1629709086203,24.27
1629709086218,26.71
1629709086234,27.67
1629709086250,27.05
1629709086265,25.19
1629709086281,22.7
1629709086296,20.27
1629709086312,18.29
1629709086328,16.81
1629709086343,15.61
1629709086359,14.41
1629709086375,13.05
1629709086390,11.55
1629709086406,10.03
1629709086421,8.55
1629709086437,7.09
1629709086453,5.55
1629709086468,3.86
1629709086484,2.09
1629709086500,0.4
1629709086515,-0.98
1629709086531,-1.97
1629709086546,-2.66
1629709086562,-3.32
1629709086578,-4.32
1629709086593,-5.95
1629709086609,-8.34
1629709086625,-11.33
1629709086640,-14.53
1629709086656,-17.3
1629709086671,-19.05
1629709086687,-19.32
1629709086703,-17.96
1629709086718,-15.25
1629709086734,-11.71
1629709086750,-8.06
1629709086765,-4.89
1629709086781,-2.52
1629709086796,-0.92
1629709086812,0.18
1629709086828,1.12
1629709086843,2.19
1629709086859,3.45
1629709086875,4.84
1629709086890,6.21
1629709086906,7.45
1629709086921,8.58
1629709086937,9.72
1629709086953,10.99
1629709086968,12.49
1629709086984,14.22
1629709087000,16.09
1629709087015,18.04
1629709087031,20.04
1629709087046,22.07
1629709087062,24.07
1629709087078,25.93
1629709087093,27.45
1629709087109,28.44
1629709087125,28.81
1629709087140,28.58
1629709087156,27.95
1629709087171,27.12
1629709087187,26.28
1629709087203,25.57
1629709087218,25.0
1629709087234,24.54
1629709087250,24.0
1629709087265,22.97
1629709087281,20.89
1629709087296,17.18
1629709087312,11.55
1629709087328,4.18
1629709087343,-4.18
1629709087359,-12.58
1629709087375,-20.2
1629709087390,-26.79
1629709087406,-32.68
1629709087421,-38.51
1629709087437,-44.68
1629709087453,-51.04
1629709087468,-56.88
1629709087484,-61.18
1629709087500,-63.18
1629709087515,-62.68
1629709087531,-60.04
1629709087546,-55.9
1629709087562,-50.79
1629709087578,-45.0
1629709087593,-38.47
1629709087609,-31.17
1629709087625,-23.2
1629709087640,-15.01
1629709087656,-7.23
1629709087671,-0.48
1629709087687,4.83
1629709087703,8.59
1629709087718,10.97
1629709087734,12.3
1629709087750,12.98
1629709087765,13.34
1629709087781,13.58
1629709087796,13.75
1629709087812,13.75
1629709087828,13.37
1629709087843,12.47
1629709087859,10.97
1629709087875,8.99
1629709087890,6.78
1629709087906,4.63
1629709087921,2.72
1629709087937,1.12
1629709087953,-0.28
1629709087968,-1.57
1629709087984,-2.75
1629709088000,-3.66
1629709088015,-4.08
1629709088031,-3.8
1629709088046,-2.84
1629709088062,-1.41
1629709088078,0.11
1629709088093,1.31
1629709088109,1.85
1629709088125,1.64
1629709088140,0.75
1629709088156,-0.59
1629709088171,-2.18
1629709088187,-3.86
1629709088203,-5.6
1629709088218,-7.41
1629709088234,-9.39
1629709088250,-11.6
1629709088265,-14.13
1629709088281,-17.01
1629709088296,-20.14
1629709088312,-23.25
1629709088328,-25.92
1629709088343,-27.59
1629709088359,-27.76
1629709088375,-26.19
1629709088390,-22.99
1629709088406,-18.58
1629709088421,-13.53
1629709088437,-8.33
1629709088453,-3.29
1629709088468,1.48
1629709088484,6.01
1629709088500,10.34
1629709088515,14.49
1629709088531,18.45
1629709088546,22.14
1629709088562,25.41
1629709088578,28.0
1629709088593,29.6
1629709088609,29.96
1629709088625,29.09
1629709088640,27.25
1629709088656,24.93
1629709088671,22.64
1629709088687,20.72
1629709088703,19.21
1629709088718,17.92
1629709088734,16.56
1629709088750,14.91
1629709088765,12.94
1629709088781,10.7
1629709088796,8.29
1629709088812,5.79
1629709088828,3.27
1629709088843,0.79
1629709088859,-1.52
1629709088875,-3.47
1629709088890,-4.93
1629709088906,-5.88
1629709088921,-6.47
1629709088937,-7.02
1629709088953,-7.86
1629709088968,-9.21
1629709088984,-11.04
1629709089000,-13.11
1629709089015,-15.02
1629709089031,-16.43
1629709089046,-17.16
1629709089062,-17.28
1629709089078,-16.99
1629709089093,-16.51
1629709089109,-16.02
1629709089125,-15.56
1629709089140,-15.14
1629709089156,-14.79
1629709089171,-14.53
1629709089187,-14.27
1629709089203,-13.8
1629709089218,-12.88
1629709089234,-11.29
1629709089250,-9.09
1629709089265,-6.55
1629709089281,-4.08
1629709089296,-2.06
1629709089312,-0.66
1629709089328,0.21
1629709089343,0.69
1629709089359,0.92
1629709089375,0.89
1629709089390,0.49
1629709089406,-0.38
1629709089421,-1.67
1629709089437,-3.19
1629709089453,-4.67
1629709089468,-5.82
1629709089484,-6.5
1629709089500,-6.7
1629709089515,-6.49
1629709089531,-6.04
1629709089546,-5.43
1629709089562,-4.63
1629709089578,-3.49
1629709089593,-1.85
1629709089609,0.29
1629709089625,2.73
1629709089640,5.12
1629709089656,7.15
1629709089671,8.63
1629709089687,9.59
1629709089703,10.28
1629709089718,10.87
1629709089734,11.43
1629709089750,11.82
1629709089765,11.72
1629709089781,10.87
1629709089796,9.19
1629709089812,6.77
1629709089828,3.87
1629709089843,0.83
1629709089859,-2.1
1629709089875,-4.7
1629709089890,-6.88
1629709089906,-8.64
1629709089921,-9.99
1629709089937,-10.93
1629709089953,-11.47
1629709089968,-11.64
1629709089984,-11.53
1629709090000,-11.27
1629709090015,-10.96
1629709090031,-10.59
1629709090046,-10.03
1629709090062,-9.09
1629709090078,-7.64
1629709090093,-5.66
1629709090109,-3.28
1629709090125,-0.72
1629709090140,1.83
1629709090156,4.21
1629709090171,6.4
1629709090187,8.4
1629709090203,10.2
1629709090218,11.73
1629709090234,12.9
1629709090250,13.7
1629709090265,14.14
1629709090281,14.29
1629709090296,14.3
1629709090312,14.29
1629709090328,14.45
1629709090343,14.91
1629709090359,15.72
1629709090375,16.88
1629709090390,18.33
1629709090406,19.94
1629709090421,21.57
1629709090437,23.0
1629709090453,23.98
1629709090468,24.2
1629709090484,23.43
1629709090500,21.61
1629709090515,18.95
1629709090531,15.86
1629709090546,12.75
1629709090562,9.85
1629709090578,7.19
1629709090593,4.62
1629709090609,2.01
1629709090625,-0.65
1629709090640,-3.18
1629709090656,-5.36
1629709090671,-7.08
1629709090687,-8.39
1629709090703,-9.46
1629709090718,-10.46
1629709090734,-11.45
1629709090750,-12.39
1629709090765,-13.2
1629709090781,-13.84
1629709090796,-14.27
1629709090812,-14.56
1629709090828,-14.72
1629709090843,-14.83
1629709090859,-14.89
1629709090875,-14.91
1629709090890,-14.83
1629709090906,-14.56
1629709090921,-14.02
1629709090937,-13.18
1629709090953,-12.15
1629709090968,-11.02
1629709090984,-9.93
1629709091000,-8.95
1629709091015,-8.08
1629709091031,-7.34
1629709091046,-6.73
1629709091062,-6.32
1629709091078,-6.05
1629709091093,-5.83
1629709091109,-5.44
1629709091125,-4.68
1629709091140,-3.46
1629709091156,-1.91
1629709091171,-0.28
1629709091187,1.17
1629709091203,2.31
1629709091218,3.29
1629709091234,4.42
1629709091250,6.08
1629709091265,8.49
1629709091281,11.64
1629709091296,15.27
1629709091312,18.89
1629709091328,22.03
1629709091343,24.23
1629709091359,25.17
1629709091375,24.73
1629709091390,22.95
1629709091406,20.02
1629709091421,16.25
1629709091437,12.07
1629709091453,7.95
1629709091468,4.34
1629709091484,1.53
1629709091500,-0.44
1629709091515,-1.8
1629709091531,-2.97
1629709091546,-4.36
1629709091562,-6.24
1629709091578,-8.53
1629709091593,-10.86
1629709091609,-12.74
1629709091625,-13.68
1629709091640,-13.42
1629709091656,-11.97
1629709091671,-9.62
1629709091687,-6.83
1629709091703,-4.21
1629709091718,-2.26
1629709091734,-1.33
1629709091750,-1.43
1629709091765,-2.29
1629709091781,-3.48
1629709091796,-4.57
1629709091812,-5.3
1629709091828,-5.58
1629709091843,-5.56
1629709091859,-5.35
1629709091875,-5.07
1629709091890,-4.78
1629709091906,-4.56
1629709091921,-4.52
1629709091937,-4.75
1629709091953,-5.3
1629709091968,-6.02
1629709091984,-6.73
1629709092000,-7.22
1629709092015,-7.44
1629709092031,-7.43
1629709092046,-7.23
1629709092062,-6.83
1629709092078,-6.15
1629709092093,-5.05
1629709092109,-3.54
1629709092125,-1.85
1629709092140,-0.36
1629709092156,0.58
1629709092171,0.79
1629709092187,0.4
1629709092203,-0.27
1629709092218,-0.88
1629709092234,-1.24
1629709092250,-1.42
1629709092265,-1.7
1629709092281,-2.34
1629709092296,-3.45
1629709092312,-4.97
1629709092328,-6.56
1629709092343,-7.88
1629709092359,-8.62
1629709092375,-8.58
1629709092390,-7.69
1629709092406,-5.96
1629709092421,-3.45
1629709092437,-0.2
1629709092453,3.69
1629709092468,8.08
1629709092484,12.8
1629709092500,17.56
1629709092515,22.09
1629709092531,26.19
1629709092546,29.64
1629709092562,32.37
1629709092578,34.34
1629709092593,35.51
1629709092609,35.92
1629709092625,35.68
1629709092640,35.01
1629709092656,34.14
1629709092671,33.3
1629709092687,32.64
1629709092703,32.15
1629709092718,31.7
1629709092734,31.11
1629709092750,30.26
1629709092765,29.12
1629709092781,27.78
1629709092796,26.34
1629709092812,24.84
1629709092828,23.28
1629709092843,21.61
1629709092859,19.83
1629709092875,18.05
1629709092890,16.39
1629709092906,14.96
1629709092921,13.74
1629709092937,12.58
1629709092953,11.32
1629709092968,9.77
1629709092984,7.85
1629709093000,5.6
1629709093015,3.13
1629709093031,0.52
1629709093046,-2.13
1629709093062,-4.81
1629709093078,-7.54
1629709093093,-10.33
1629709093109,-13.15
1629709093125,-15.84
1629709093140,-18.15
1629709093156,-19.76
1629709093171,-20.39
1629709093187,-19.89
1629709093203,-18.27
1629709093218,-15.76
1629709093234,-12.66
1629709093250,-9.24
1629709093265,-5.73
1629709093281,-2.27
1629709093296,0.99
1629709093312,3.88
