timestamp,bvp
1631290337187,-10.89
1631290337203,-26.02
1631290337218,-41.21
1631290337234,-55.92
1631290337250,-69.35
1631290337265,-80.51
1631290337281,-88.6
1631290337296,-93.44
1631290337312,-95.62
1631290337328,-96.41
1631290337343,-97.22
1631290337359,-98.96
1631290337375,-101.61
1631290337390,-104.22
1631290337406,-104.97
1631290337421,-101.49
1631290337437,-91.22
1631290337453,-71.99
1631290337468,-42.95
1631290337484,-5.65
1631290337500,35.58
1631290337515,74.32
1631290337531,104.02
1631290337546,120.46
1631290337562,123.5
1631290337578,117.12
1631290337593,107.57
1631290337609,100.63
1631290337625,99.24
1631290337640,102.93
1631290337656,108.85
1631290337671,113.76
1631290337687,115.72
1631290337703,114.62
1631290337718,111.63
1631290337734,108.04
1631290337750,104.59
1631290337765,101.23
1631290337781,97.77
1631290337796,94.35
1631290337812,91.77
1631290337828,90.97
1631290337843,92.31
1631290337859,94.98
1631290337875,96.94
1631290337890,95.62
1631290337906,89.06
1631290337921,76.78
1631290337937,59.95
1631290337953,40.81
1631290337968,21.51
1631290337984,3.35
1631290338000,-13.58
1631290338015,-29.75
1631290338031,-45.41
1631290338046,-60.06
1631290338062,-72.4
1631290338078,-81.01
1631290338093,-85.1
1631290338109,-84.88
1631290338125,-81.59
1631290338140,-76.92
1631290338156,-72.57
1631290338171,-69.72
1631290338187,-68.96
1631290338203,-70.24
1631290338218,-72.93
1631290338234,-75.97
1631290338250,-77.97
1631290338265,-77.66
1631290338281,-74.22
1631290338296,-67.62
1631290338312,-58.65
1631290338328,-48.62
1631290338343,-38.91
1631290338359,-30.51
1631290338375,-23.84
1631290338390,-18.72
1631290338406,-14.61
1631290338421,-10.86
1631290338437,-6.94
1631290338453,-2.58
1631290338468,2.16
1631290338484,7.03
1631290338500,11.64
1631290338515,15.64
1631290338531,18.82
1631290338546,21.14
1631290338562,22.66
1631290338578,23.52
1631290338593,23.79
1631290338609,23.43
1631290338625,22.42
1631290338640,20.62
1631290338656,17.89
1631290338671,14.05
1631290338687,8.87
1631290338703,2.26
1631290338718,-5.69
1631290338734,-14.54
1631290338750,-23.54
1631290338765,-31.82
1631290338781,-38.71
1631290338796,-43.99
1631290338812,-47.93
1631290338828,-51.13
1631290338843,-54.23
1631290338859,-57.49
1631290338875,-60.6
1631290338890,-62.8
1631290338906,-63.17
1631290338921,-61.02
1631290338937,-56.32
1631290338953,-49.76
1631290338968,-42.59
1631290338984,-36.34
1631290339000,-32.47
1631290339015,-32.15
1631290339031,-35.93
1631290339046,-43.52
1631290339062,-53.56
1631290339078,-63.65
1631290339093,-70.83
1631290339109,-72.27
1631290339125,-66.05
1631290339140,-51.67
1631290339156,-29.85
1631290339171,-2.06
1631290339187,30.14
1631290339203,65.35
1631290339218,102.22
1631290339234,138.93
1631290339250,172.97
1631290339265,201.18
1631290339281,220.34
1631290339296,227.93
1631290339312,222.77
1631290339328,205.43
1631290339343,178.14
1631290339359,144.4
1631290339375,108.27
1631290339390,73.49
1631290339406,42.81
1631290339421,17.53
1631290339437,-2.28
1631290339453,-17.28
1631290339468,-28.29
1631290339484,-35.85
1631290339500,-40.18
1631290339515,-41.46
1631290339531,-40.04
1631290339546,-36.49
1631290339562,-31.57
1631290339578,-26.14
1631290339593,-21.28
1631290339609,-18.24
1631290339625,-18.2
1631290339640,-21.88
1631290339656,-29.03
1631290339671,-38.26
1631290339687,-47.36
1631290339703,-54.16
1631290339718,-57.28
1631290339734,-56.54
1631290339750,-52.74
1631290339765,-47.03
1631290339781,-40.36
1631290339796,-33.26
1631290339812,-26.01
1631290339828,-19.05
1631290339843,-12.96
1631290339859,-8.34
1631290339875,-5.4
1631290339890,-3.67
1631290339906,-2.17
1631290339921,0.22
1631290339937,4.25
1631290339953,9.93
1631290339968,16.55
1631290339984,22.99
1631290340000,28.17
1631290340015,31.34
1631290340031,32.2
1631290340046,30.74
1631290340062,27.09
1631290340078,21.37
1631290340093,13.81
1631290340109,4.85
1631290340125,-4.65
1631290340140,-13.52
1631290340156,-20.6
1631290340171,-25.07
1631290340187,-26.69
1631290340203,-25.88
1631290340218,-23.41
1631290340234,-20.15
1631290340250,-16.78
1631290340265,-13.77
1631290340281,-11.46
1631290340296,-10.2
1631290340312,-10.32
1631290340328,-12.03
1631290340343,-15.25
1631290340359,-19.48
1631290340375,-23.96
1631290340390,-27.88
1631290340406,-30.69
1631290340421,-32.23
1631290340437,-32.68
1631290340453,-32.39
1631290340468,-31.69
1631290340484,-30.7
1631290340500,-29.45
1631290340515,-27.92
1631290340531,-26.23
1631290340546,-24.73
1631290340562,-23.91
1631290340578,-24.23
1631290340593,-25.98
1631290340609,-29.21
1631290340625,-33.57
1631290340640,-38.33
1631290340656,-42.48
1631290340671,-44.87
1631290340687,-44.48
1631290340703,-40.73
1631290340718,-33.66
1631290340734,-23.97
1631290340750,-12.73
1631290340765,-1.17
1631290340781,9.65
1631290340796,18.97
1631290340812,26.34
1631290340828,31.47
1631290340843,34.25
1631290340859,34.64
1631290340875,32.82
1631290340890,29.18
1631290340906,24.27
1631290340921,18.72
1631290340937,13.03
1631290340953,7.47
1631290340968,2.13
1631290340984,-2.94
1631290341000,-7.61
1631290341015,-11.52
1631290341031,-14.08
1631290341046,-14.72
1631290341062,-13.15
1631290341078,-9.79
1631290341093,-5.78
1631290341109,-2.69
1631290341125,-1.86
1631290341140,-3.78
1631290341156,-7.86
1631290341171,-12.81
1631290341187,-17.34
1631290341203,-20.83
1631290341218,-23.47
1631290341234,-25.91
1631290341250,-28.55
1631290341265,-31.19
1631290341281,-33.08
1631290341296,-33.37
1631290341312,-31.74
1631290341328,-28.53
1631290341343,-24.62
1631290341359,-20.94
1631290341375,-18.25
1631290341390,-16.99
1631290341406,-17.29
1631290341421,-18.88
1631290341437,-20.87
1631290341453,-21.67
1631290341468,-19.17
1631290341484,-11.48
1631290341500,2.22
1631290341515,21.05
1631290341531,42.58
1631290341546,63.48
1631290341562,80.68
1631290341578,92.24
1631290341593,97.77
1631290341609,98.11
1631290341625,94.77
1631290341640,89.26
1631290341656,82.78
1631290341671,76.16
1631290341687,69.99
1631290341703,64.73
1631290341718,60.64
1631290341734,57.63
1631290341750,55.26
1631290341765,52.75
1631290341781,49.37
1631290341796,44.73
1631290341812,39.0
1631290341828,32.87
1631290341843,27.25
1631290341859,22.92
1631290341875,20.14
1631290341890,18.67
1631290341906,17.82
1631290341921,16.83
1631290341937,15.06
1631290341953,12.21
1631290341968,8.32
1631290341984,3.71
1631290342000,-1.15
1631290342015,-5.77
1631290342031,-9.74
1631290342046,-12.9
1631290342062,-15.33
1631290342078,-17.36
1631290342093,-19.44
1631290342109,-21.89
1631290342125,-24.85
1631290342140,-28.28
1631290342156,-32.1
1631290342171,-36.35
1631290342187,-41.12
1631290342203,-46.43
1631290342218,-51.9
1631290342234,-56.64
1631290342250,-59.32
1631290342265,-58.54
1631290342281,-53.46
1631290342296,-44.09
1631290342312,-31.45
1631290342328,-17.29
1631290342343,-3.59
1631290342359,8.04
1631290342375,16.57
1631290342390,21.62
1631290342406,23.31
1631290342421,22.16
1631290342437,19.05
1631290342453,15.28
1631290342468,12.45
1631290342484,11.94
1631290342500,14.19
1631290342515,18.19
1631290342531,21.61
1631290342546,21.73
1631290342562,16.74
1631290342578,6.8
1631290342593,-5.78
1631290342609,-17.47
1631290342625,-24.89
1631290342640,-25.9
1631290342656,-19.89
1631290342671,-7.43
1631290342687,10.37
1631290342703,32.04
1631290342718,55.46
1631290342734,77.57
1631290342750,94.62
1631290342765,103.09
1631290342781,100.97
1631290342796,88.64
1631290342812,68.7
1631290342828,44.98
1631290342843,21.13
1631290342859,-0.47
1631290342875,-18.9
1631290342890,-34.39
1631290342906,-47.57
1631290342921,-58.96
1631290342937,-68.74
1631290342953,-76.88
1631290342968,-83.23
1631290342984,-87.51
1631290343000,-89.4
1631290343015,-88.56
1631290343031,-84.75
1631290343046,-77.99
1631290343062,-68.63
1631290343078,-57.33
1631290343093,-44.98
1631290343109,-32.51
1631290343125,-20.71
1631290343140,-10.13
1631290343156,-1.0
1631290343171,6.74
1631290343187,13.35
1631290343203,19.21
1631290343218,24.69
1631290343234,30.18
1631290343250,36.1
1631290343265,42.89
1631290343281,50.78
1631290343296,59.57
1631290343312,68.52
1631290343328,76.28
1631290343343,81.36
1631290343359,82.49
1631290343375,79.19
1631290343390,71.98
1631290343406,62.27
1631290343421,52.04
1631290343437,43.29
1631290343453,37.55
1631290343468,35.47
1631290343484,36.75
1631290343500,40.24
1631290343515,44.4
1631290343531,47.79
1631290343546,49.45
1631290343562,48.99
1631290343578,46.44
1631290343593,41.83
1631290343609,34.99
1631290343625,25.6
1631290343640,13.46
1631290343656,-1.1
1631290343671,-17.13
1631290343687,-33.33
1631290343703,-48.46
1631290343718,-61.82
1631290343734,-73.29
1631290343750,-82.99
1631290343765,-90.75
1631290343781,-95.7
1631290343796,-96.4
1631290343812,-91.34
1631290343828,-79.72
1631290343843,-62.04
1631290343859,-40.2
1631290343875,-16.97
1631290343890,4.75
1631290343906,22.83
1631290343921,36.3
1631290343937,45.35
1631290343953,50.84
1631290343968,53.78
1631290343984,54.89
1631290344000,54.43
1631290344015,52.45
1631290344031,49.0
1631290344046,44.33
1631290344062,38.93
1631290344078,33.37
1631290344093,28.16
1631290344109,23.63
1631290344125,19.95
1631290344140,17.21
1631290344156,15.4
1631290344171,14.4
1631290344187,13.86
1631290344203,13.31
1631290344218,12.31
1631290344234,10.61
1631290344250,8.31
1631290344265,5.71
1631290344281,3.13
1631290344296,0.61
1631290344312,-2.13
1631290344328,-5.49
1631290344343,-9.74
1631290344359,-14.8
1631290344375,-20.19
1631290344390,-25.26
1631290344406,-29.41
1631290344421,-32.31
1631290344437,-33.93
1631290344453,-34.45
1631290344468,-34.23
1631290344484,-33.71
1631290344500,-33.46
1631290344515,-34.07
1631290344531,-35.96
1631290344546,-39.12
1631290344562,-42.83
1631290344578,-45.67
1631290344593,-45.88
1631290344609,-42.08
1631290344625,-33.86
1631290344640,-22.28
1631290344656,-9.56
1631290344671,1.71
1631290344687,9.59
1631290344703,13.63
1631290344718,14.96
1631290344734,15.73
1631290344750,18.11
1631290344765,23.38
1631290344781,31.42
1631290344796,40.91
1631290344812,49.92
1631290344828,56.61
1631290344843,59.75
1631290344859,58.95
1631290344875,54.54
1631290344890,47.33
1631290344906,38.3
1631290344921,28.48
1631290344937,18.93
1631290344953,10.88
1631290344968,5.61
1631290344984,4.23
1631290345000,7.24
1631290345015,14.17
1631290345031,23.58
1631290345046,33.42
1631290345062,41.8
1631290345078,47.64
1631290345093,51.01
1631290345109,52.94
1631290345125,54.8
1631290345140,57.46
1631290345156,60.68
1631290345171,63.0
1631290345187,62.32
1631290345203,56.81
1631290345218,46.02
1631290345234,31.45
1631290345250,16.18
1631290345265,3.64
1631290345281,-4.05
1631290345296,-7.16
1631290345312,-8.35
1631290345328,-11.22
1631290345343,-18.42
1631290345359,-30.11
1631290345375,-43.77
1631290345390,-55.34
1631290345406,-60.96
1631290345421,-58.62
1631290345437,-48.63
1631290345453,-33.15
1631290345468,-15.07
1631290345484,3.06
1631290345500,19.45
1631290345515,33.03
1631290345531,43.19
1631290345546,49.5
1631290345562,51.88
1631290345578,50.85
1631290345593,47.6
1631290345609,43.75
1631290345625,40.82
1631290345640,39.6
1631290345656,39.86
1631290345671,40.53
1631290345687,40.26
1631290345703,37.99
1631290345718,33.31
1631290345734,26.38
1631290345750,17.7
1631290345765,7.78
1631290345781,-2.98
1631290345796,-14.27
1631290345812,-25.73
1631290345828,-37.06
1631290345843,-48.12
1631290345859,-59.1
1631290345875,-70.47
1631290345890,-82.75
1631290345906,-96.15
1631290345921,-110.29
1631290345937,-124.15
1631290345953,-136.28
1631290345968,-145.15
1631290345984,-149.63
1631290346000,-149.35
1631290346015,-144.79
1631290346031,-137.2
1631290346046,-128.24
1631290346062,-119.46
1631290346078,-111.89
1631290346093,-105.72
1631290346109,-100.4
1631290346125,-94.95
1631290346140,-88.53
1631290346156,-80.85
1631290346171,-72.37
1631290346187,-63.99
1631290346203,-56.65
1631290346218,-50.85
1631290346234,-46.43
1631290346250,-42.65
1631290346265,-38.47
1631290346281,-32.9
1631290346296,-25.36
1631290346312,-15.73
1631290346328,-4.37
1631290346343,8.07
1631290346359,20.86
1631290346375,33.37
1631290346390,45.13
1631290346406,55.87
1631290346421,65.39
1631290346437,73.46
1631290346453,79.79
1631290346468,84.1
1631290346484,86.22
1631290346500,86.29
1631290346515,84.8
1631290346531,82.49
1631290346546,80.1
1631290346562,78.1
1631290346578,76.4
1631290346593,74.42
1631290346609,71.25
1631290346625,66.02
1631290346640,58.32
1631290346656,48.33
1631290346671,36.83
1631290346687,24.86
1631290346703,13.42
1631290346718,3.14
1631290346734,-5.68
1631290346750,-12.99
1631290346765,-18.72
1631290346781,-22.77
1631290346796,-25.0
1631290346812,-25.41
1631290346828,-24.29
1631290346843,-22.21
1631290346859,-19.98
1631290346875,-18.36
1631290346890,-17.9
1631290346906,-18.73
1631290346921,-20.58
1631290346937,-22.94
1631290346953,-25.31
1631290346968,-27.43
1631290346984,-29.39
1631290347000,-31.61
1631290347015,-34.65
1631290347031,-38.92
1631290347046,-44.52
1631290347062,-51.1
1631290347078,-57.87
1631290347093,-63.68
1631290347109,-67.22
1631290347125,-67.3
1631290347140,-63.08
1631290347156,-54.37
1631290347171,-41.66
1631290347187,-26.1
1631290347203,-9.2
1631290347218,7.6
1631290347234,23.19
1631290347250,36.88
1631290347265,48.21
1631290347281,56.61
1631290347296,61.3
1631290347312,61.43
1631290347328,56.56
1631290347343,47.14
1631290347359,34.66
1631290347375,21.32
1631290347390,9.31
1631290347406,0.15
1631290347421,-5.58
1631290347437,-8.08
1631290347453,-7.76
1631290347468,-4.91
1631290347484,0.41
1631290347500,8.04
1631290347515,17.31
1631290347531,26.9
1631290347546,35.11
1631290347562,40.35
1631290347578,41.71
1631290347593,39.17
1631290347609,33.55
1631290347625,26.18
1631290347640,18.4
1631290347656,11.21
1631290347671,5.12
1631290347687,0.19
1631290347703,-3.77
1631290347718,-7.05
1631290347734,-9.85
1631290347750,-12.24
1631290347765,-14.21
1631290347781,-15.79
1631290347796,-17.04
1631290347812,-18.12
1631290347828,-19.27
1631290347843,-20.75
1631290347859,-22.92
1631290347875,-26.12
1631290347890,-30.63
1631290347906,-36.42
1631290347921,-42.95
1631290347937,-49.08
1631290347953,-53.2
1631290347968,-53.73
1631290347984,-49.59
1631290348000,-40.58
1631290348015,-27.57
1631290348031,-12.18
1631290348046,3.63
1631290348062,18.12
1631290348078,30.07
1631290348093,38.96
1631290348109,44.82
1631290348125,48.02
1631290348140,49.11
1631290348156,48.61
1631290348171,47.03
1631290348187,44.87
1631290348203,42.59
1631290348218,40.65
1631290348234,39.35
1631290348250,38.79
1631290348265,38.89
1631290348281,39.45
1631290348296,40.26
1631290348312,41.21
1631290348328,42.25
1631290348343,43.3
1631290348359,44.17
1631290348375,44.52
1631290348390,44.0
1631290348406,42.35
1631290348421,39.59
1631290348437,35.96
1631290348453,31.87
1631290348468,27.68
1631290348484,23.6
1631290348500,19.63
1631290348515,15.66
1631290348531,11.54
1631290348546,7.19
1631290348562,2.67
1631290348578,-1.89
1631290348593,-6.31
1631290348609,-10.44
1631290348625,-14.25
1631290348640,-17.84
1631290348656,-21.53
1631290348671,-25.76
1631290348687,-30.98
1631290348703,-37.37
1631290348718,-44.56
1631290348734,-51.6
1631290348750,-56.98
1631290348765,-59.03
1631290348781,-56.48
1631290348796,-48.88
1631290348812,-36.85
1631290348828,-21.92
1631290348843,-6.04
1631290348859,8.91
1631290348875,21.55
1631290348890,31.24
1631290348906,37.86
1631290348921,41.71
1631290348937,43.22
1631290348953,42.88
1631290348968,41.22
1631290348984,38.84
1631290349000,36.31
1631290349015,34.2
1631290349031,32.87
1631290349046,32.48
1631290349062,32.92
1631290349078,33.92
1631290349093,35.14
1631290349109,36.3
1631290349125,37.17
1631290349140,37.62
1631290349156,37.53
1631290349171,36.82
1631290349187,35.45
1631290349203,33.41
1631290349218,30.74
1631290349234,27.51
1631290349250,23.84
1631290349265,19.83
1631290349281,15.58
1631290349296,11.19
1631290349312,6.74
1631290349328,2.3
1631290349343,-2.06
1631290349359,-6.33
1631290349375,-10.48
1631290349390,-14.5
1631290349406,-18.48
1631290349421,-22.5
1631290349437,-26.78
1631290349453,-31.54
1631290349468,-36.98
1631290349484,-43.03
1631290349500,-49.25
1631290349515,-54.76
1631290349531,-58.35
1631290349546,-58.77
1631290349562,-55.12
1631290349578,-47.15
1631290349593,-35.45
1631290349609,-21.35
1631290349625,-6.53
1631290349640,7.4
1631290349656,19.18
1631290349671,28.19
1631290349687,34.3
1631290349703,37.81
1631290349718,39.18
1631290349734,38.97
1631290349750,37.67
1631290349765,35.73
1631290349781,33.54
1631290349796,31.43
1631290349812,29.7
1631290349828,28.57
1631290349843,28.15
1631290349859,28.39
1631290349875,29.09
1631290349890,29.93
1631290349906,30.58
1631290349921,30.82
1631290349937,30.54
1631290349953,29.7
1631290349968,28.32
1631290349984,26.38
1631290350000,23.89
1631290350015,20.94
1631290350031,17.69
1631290350046,14.32
1631290350062,10.98
1631290350078,7.61
1631290350093,4.07
1631290350109,0.2
1631290350125,-4.03
1631290350140,-8.44
1631290350156,-12.73
1631290350171,-16.62
1631290350187,-20.02
1631290350203,-23.12
1631290350218,-26.29
1631290350234,-30.0
1631290350250,-34.61
1631290350265,-40.16
1631290350281,-46.29
1631290350296,-52.19
1631290350312,-56.64
1631290350328,-58.33
1631290350343,-56.19
1631290350359,-49.78
1631290350375,-39.46
1631290350390,-26.42
1631290350406,-12.24
1631290350421,1.45
1631290350437,13.41
1631290350453,23.0
1631290350468,30.09
1631290350484,34.86
1631290350500,37.56
1631290350515,38.41
1631290350531,37.61
1631290350546,35.52
1631290350562,32.74
1631290350578,29.95
1631290350593,27.84
1631290350609,26.8
1631290350625,26.84
1631290350640,27.63
1631290350656,28.68
1631290350671,29.58
1631290350687,30.09
1631290350703,30.15
1631290350718,29.74
1631290350734,28.8
1631290350750,27.22
1631290350765,24.91
1631290350781,21.85
1631290350796,18.16
1631290350812,14.01
1631290350828,9.57
1631290350843,4.95
1631290350859,0.22
1631290350875,-4.51
1631290350890,-9.05
1631290350906,-13.15
1631290350921,-16.62
1631290350937,-19.43
1631290350953,-21.82
1631290350968,-24.24
1631290350984,-27.22
1631290351000,-31.24
1631290351015,-36.44
1631290351031,-42.55
1631290351046,-48.8
1631290351062,-53.99
1631290351078,-56.71
1631290351093,-55.75
1631290351109,-50.45
1631290351125,-40.98
1631290351140,-28.38
1631290351156,-14.25
1631290351171,-0.37
1631290351187,11.81
1631290351203,21.41
1631290351218,28.1
1631290351234,32.04
1631290351250,33.59
1631290351265,33.2
1631290351281,31.33
1631290351296,28.54
1631290351312,25.45
1631290351328,22.63
1631290351343,20.54
1631290351359,19.34
1631290351375,18.95
1631290351390,19.12
1631290351406,19.57
1631290351421,20.13
1631290351437,20.71
1631290351453,21.23
1631290351468,21.57
1631290351484,21.53
1631290351500,20.83
1631290351515,19.35
1631290351531,17.06
1631290351546,14.18
1631290351562,10.93
1631290351578,7.53
1631290351593,4.04
1631290351609,0.4
1631290351625,-3.5
1631290351640,-7.67
1631290351656,-12.0
1631290351671,-16.28
1631290351687,-20.26
1631290351703,-23.75
1631290351718,-26.7
1631290351734,-29.23
1631290351750,-31.67
1631290351765,-34.45
1631290351781,-38.07
1631290351796,-42.86
1631290351812,-48.85
1631290351828,-55.56
1631290351843,-62.01
1631290351859,-66.81
1631290351875,-68.53
1631290351890,-66.04
1631290351906,-58.88
1631290351921,-47.5
1631290351937,-33.14
1631290351953,-17.54
1631290351968,-2.56
1631290351984,10.36
1631290352000,20.32
1631290352015,27.1
1631290352031,30.97
1631290352046,32.46
1631290352062,32.21
1631290352078,30.82
1631290352093,28.82
1631290352109,26.69
1631290352125,24.84
1631290352140,23.52
1631290352156,22.9
1631290352171,22.99
1631290352187,23.69
1631290352203,24.77
1631290352218,25.96
1631290352234,26.97
1631290352250,27.49
1631290352265,27.32
1631290352281,26.37
1631290352296,24.7
1631290352312,22.43
1631290352328,19.73
1631290352343,16.75
1631290352359,13.59
1631290352375,10.27
1631290352390,6.78
1631290352406,3.08
1631290352421,-0.87
1631290352437,-5.06
1631290352453,-9.42
1631290352468,-13.81
1631290352484,-18.01
1631290352500,-21.87
1631290352515,-25.29
1631290352531,-28.34
1631290352546,-31.23
1631290352562,-34.29
1631290352578,-37.9
1631290352593,-42.34
1631290352609,-47.62
1631290352625,-53.32
1631290352640,-58.51
1631290352656,-61.91
1631290352671,-62.11
1631290352687,-58.15
1631290352703,-49.79
1631290352718,-37.72
1631290352734,-23.37
1631290352750,-8.52
1631290352765,5.26
1631290352781,16.86
1631290352796,25.73
1631290352812,31.83
1631290352828,35.39
1631290352843,36.73
1631290352859,36.27
1631290352875,34.51
1631290352890,31.99
1631290352906,29.31
1631290352921,26.95
1631290352937,25.24
1631290352953,24.21
1631290352968,23.75
1631290352984,23.63
1631290353000,23.64
1631290353015,23.74
1631290353031,23.93
1631290353046,24.27
1631290353062,24.67
1631290353078,24.89
1631290353093,24.53
1631290353109,23.25
1631290353125,20.87
1631290353140,17.54
1631290353156,13.69
1631290353171,9.82
1631290353187,6.32
1631290353203,3.32
1631290353218,0.64
1631290353234,-2.02
1631290353250,-5.0
1631290353265,-8.4
1631290353281,-12.13
1631290353296,-15.91
1631290353312,-19.44
1631290353328,-22.52
1631290353343,-25.13
1631290353359,-27.56
1631290353375,-30.24
1631290353390,-33.67
1631290353406,-38.2
1631290353421,-43.77
1631290353437,-49.73
1631290353453,-54.94
1631290353468,-57.89
1631290353484,-57.24
1631290353500,-52.24
1631290353515,-42.99
1631290353531,-30.53
1631290353546,-16.44
1631290353562,-2.41
1631290353578,10.18
1631290353593,20.44
1631290353609,28.02
1631290353625,32.93
1631290353640,35.37
1631290353656,35.71
1631290353671,34.42
1631290353687,32.14
1631290353703,29.56
1631290353718,27.34
1631290353734,25.9
1631290353750,25.39
1631290353765,25.68
1631290353781,26.46
1631290353796,27.36
1631290353812,28.09
1631290353828,28.49
1631290353843,28.54
1631290353859,28.25
1631290353875,27.61
1631290353890,26.52
1631290353906,24.79
1631290353921,22.27
1631290353937,19.02
1631290353953,15.31
1631290353968,11.54
1631290353984,8.09
1631290354000,5.12
1631290354015,2.46
1631290354031,-0.21
1631290354046,-3.2
1631290354062,-6.55
1631290354078,-10.03
1631290354093,-13.26
1631290354109,-15.96
1631290354125,-18.16
1631290354140,-20.15
1631290354156,-22.39
1631290354171,-25.23
1631290354187,-28.88
1631290354203,-33.32
1631290354218,-38.35
1631290354234,-43.54
1631290354250,-48.21
1631290354265,-51.4
1631290354281,-51.93
1631290354296,-48.81
1631290354312,-41.62
1631290354328,-30.81
1631290354343,-17.7
1631290354359,-4.11
1631290354375,8.2
1631290354390,18.05
1631290354406,24.98
1631290354421,29.18
1631290354437,31.17
1631290354453,31.44
1631290354468,30.32
1631290354484,28.09
1631290354500,25.06
1631290354515,21.72
1631290354531,18.68
1631290354546,16.51
1631290354562,15.56
1631290354578,15.81
1631290354593,16.92
1631290354609,18.41
1631290354625,19.84
1631290354640,20.94
1631290354656,21.64
1631290354671,21.97
1631290354687,21.95
1631290354703,21.49
1631290354718,20.38
1631290354734,18.48
1631290354750,15.77
1631290354765,12.39
1631290354781,8.67
1631290354796,4.97
1631290354812,1.53
1631290354828,-1.57
1631290354843,-4.4
1631290354859,-7.14
1631290354875,-9.95
1631290354890,-12.87
1631290354906,-15.78
1631290354921,-18.48
1631290354937,-20.83
1631290354953,-22.87
1631290354968,-24.9
1631290354984,-27.4
1631290355000,-30.78
1631290355015,-35.19
1631290355031,-40.29
1631290355046,-45.2
1631290355062,-48.68
1631290355078,-49.47
1631290355093,-46.71
1631290355109,-40.19
1631290355125,-30.52
1631290355140,-18.94
1631290355156,-6.93
1631290355171,4.12
1631290355187,13.28
1631290355203,20.13
1631290355218,24.68
1631290355234,27.11
1631290355250,27.69
1631290355265,26.63
1631290355281,24.2
1631290355296,20.82
1631290355312,17.05
1631290355328,13.54
1631290355343,10.81
1631290355359,9.22
1631290355375,8.81
1631290355390,9.42
1631290355406,10.71
1631290355421,12.34
1631290355437,13.94
1631290355453,15.21
1631290355468,15.88
1631290355484,15.76
1631290355500,14.74
1631290355515,12.87
1631290355531,10.32
1631290355546,7.34
1631290355562,4.17
1631290355578,0.97
1631290355593,-2.2
1631290355609,-5.37
1631290355625,-8.57
1631290355640,-11.82
1631290355656,-15.03
1631290355671,-18.12
1631290355687,-21.01
1631290355703,-23.69
1631290355718,-26.23
1631290355734,-28.75
1631290355750,-31.46
1631290355765,-34.62
1631290355781,-38.56
1631290355796,-43.52
1631290355812,-49.38
1631290355828,-55.47
1631290355843,-60.54
1631290355859,-63.0
1631290355875,-61.49
1631290355890,-55.34
1631290355906,-44.88
1631290355921,-31.36
1631290355937,-16.51
1631290355953,-2.08
1631290355968,10.61
1631290355984,20.81
1631290356000,28.29
1631290356015,33.14
1631290356031,35.7
1631290356046,36.32
1631290356062,35.43
1631290356078,33.49
1631290356093,31.0
1631290356109,28.53
1631290356125,26.57
1631290356140,25.45
1631290356156,25.19
1631290356171,25.57
1631290356187,26.17
1631290356203,26.61
1631290356218,26.75
1631290356234,26.68
1631290356250,26.59
1631290356265,26.53
1631290356281,26.31
1631290356296,25.55
1631290356312,23.86
1631290356328,21.09
1631290356343,17.4
1631290356359,13.23
1631290356375,9.04
1631290356390,5.18
1631290356406,1.7
1631290356421,-1.61
1631290356437,-5.09
1631290356453,-8.98
1631290356468,-13.32
1631290356484,-17.86
1631290356500,-22.21
1631290356515,-25.97
1631290356531,-28.96
1631290356546,-31.33
1631290356562,-33.53
1631290356578,-36.17
1631290356593,-39.86
1631290356609,-44.98
1631290356625,-51.52
1631290356640,-58.89
1631290356656,-65.91
1631290356671,-70.96
1631290356687,-72.36
1631290356703,-68.84
1631290356718,-60.09
1631290356734,-46.87
1631290356750,-30.88
1631290356765,-14.27
1631290356781,1.0
1631290356796,13.56
1631290356812,22.88
1631290356828,29.04
1631290356843,32.58
1631290356859,34.14
1631290356875,34.35
1631290356890,33.8
1631290356906,32.97
1631290356921,32.27
1631290356937,31.99
1631290356953,32.23
1631290356968,32.88
1631290356984,33.71
1631290357000,34.38
1631290357015,34.63
1631290357031,34.35
1631290357046,33.6
1631290357062,32.63
1631290357078,31.71
1631290357093,30.99
1631290357109,30.39
1631290357125,29.58
1631290357140,28.15
1631290357156,25.81
1631290357171,22.51
1631290357187,18.54
1631290357203,14.34
1631290357218,10.37
1631290357234,6.85
1631290357250,3.73
1631290357265,0.75
1631290357281,-2.37
1631290357296,-5.81
1631290357312,-9.55
1631290357328,-13.38
1631290357343,-17.06
1631290357359,-20.41
1631290357375,-23.46
1631290357390,-26.45
1631290357406,-29.77
1631290357421,-33.83
1631290357437,-38.88
1631290357453,-44.96
1631290357468,-51.71
1631290357484,-58.4
1631290357500,-63.88
1631290357515,-66.79
1631290357531,-65.88
1631290357546,-60.37
1631290357562,-50.33
1631290357578,-36.72
1631290357593,-21.26
1631290357609,-5.87
1631290357625,7.78
1631290357640,18.7
1631290357656,26.64
1631290357671,31.94
1631290357687,35.16
1631290357703,36.85
1631290357718,37.43
1631290357734,37.19
1631290357750,36.4
1631290357765,35.36
1631290357781,34.4
1631290357796,33.78
1631290357812,33.66
1631290357828,34.0
1631290357843,34.66
1631290357859,35.38
1631290357875,35.97
1631290357890,36.27
1631290357906,36.23
1631290357921,35.81
1631290357937,35.02
1631290357953,33.81
1631290357968,32.13
1631290357984,29.89
1631290358000,27.06
1631290358015,23.66
1631290358031,19.82
1631290358046,15.82
1631290358062,12.01
1631290358078,8.72
1631290358093,6.08
1631290358109,3.97
1631290358125,2.0
1631290358140,-0.34
1631290358156,-3.44
1631290358171,-7.34
1631290358187,-11.79
1631290358203,-16.27
1631290358218,-20.26
1631290358234,-23.46
1631290358250,-25.93
1631290358265,-28.01
1631290358281,-30.21
1631290358296,-33.09
1631290358312,-37.1
1631290358328,-42.54
1631290358343,-49.31
1631290358359,-56.79
1631290358375,-63.78
1631290358390,-68.62
1631290358406,-69.64
1631290358421,-65.68
1631290358437,-56.58
1631290358453,-43.26
1631290358468,-27.51
1631290358484,-11.46
1631290358500,3.09
1631290358515,14.94
1631290358531,23.71
1631290358546,29.57
1631290358562,33.03
1631290358578,34.68
1631290358593,35.05
1631290358609,34.61
1631290358625,33.73
1631290358640,32.76
1631290358656,31.94
1631290358671,31.47
1631290358687,31.41
1631290358703,31.76
1631290358718,32.38
1631290358734,33.11
1631290358750,33.79
1631290358765,34.31
1631290358781,34.64
1631290358796,34.8
1631290358812,34.75
1631290358828,34.45
1631290358843,33.78
1631290358859,32.58
1631290358875,30.74
1631290358890,28.17
1631290358906,24.91
1631290358921,21.12
1631290358937,17.04
1631290358953,12.98
1631290358968,9.21
1631290358984,5.91
1631290359000,3.09
1631290359015,0.62
1631290359031,-1.76
1631290359046,-4.32
1631290359062,-7.25
1631290359078,-10.56
1631290359093,-14.11
1631290359109,-17.64
1631290359125,-20.91
1631290359140,-23.77
1631290359156,-26.28
1631290359171,-28.62
1631290359187,-31.08
1631290359203,-34.01
1631290359218,-37.75
1631290359234,-42.54
1631290359250,-48.36
1631290359265,-54.8
1631290359281,-60.88
1631290359296,-65.17
1631290359312,-66.13
1631290359328,-62.61
1631290359343,-54.27
1631290359359,-41.82
1631290359375,-26.84
1631290359390,-11.27
1631290359406,3.11
1631290359421,15.09
1631290359437,24.17
1631290359453,30.35
1631290359468,33.96
1631290359484,35.41
1631290359500,35.13
1631290359515,33.67
1631290359531,31.59
1631290359546,29.49
1631290359562,27.89
1631290359578,27.09
1631290359593,27.14
1631290359609,27.85
1631290359625,28.9
1631290359640,29.93
1631290359656,30.7
1631290359671,31.09
1631290359687,31.16
1631290359703,31.04
1631290359718,30.88
1631290359734,30.74
1631290359750,30.55
1631290359765,30.06
1631290359781,28.98
1631290359796,27.06
1631290359812,24.2
1631290359828,20.54
1631290359843,16.4
1631290359859,12.19
1631290359875,8.26
1631290359890,4.82
1631290359906,1.89
1631290359921,-0.69
1631290359937,-3.14
1631290359953,-5.64
1631290359968,-8.32
1631290359984,-11.18
1631290360000,-14.17
1631290360015,-17.19
1631290360031,-20.15
1631290360046,-22.94
1631290360062,-25.57
1631290360078,-28.05
1631290360093,-30.54
1631290360109,-33.29
1631290360125,-36.6
1631290360140,-40.67
1631290360156,-45.37
1631290360171,-50.14
1631290360187,-53.96
1631290360203,-55.59
1631290360218,-53.9
1631290360234,-48.31
1631290360250,-38.99
1631290360265,-26.89
1631290360281,-13.46
1631290360296,-0.23
1631290360312,11.55
1631290360328,21.14
1631290360343,28.19
1631290360359,32.69
1631290360375,34.72
1631290360390,34.49
1631290360406,32.37
1631290360421,28.98
1631290360437,25.13
1631290360453,21.7
1631290360468,19.34
1631290360484,18.32
1631290360500,18.49
1631290360515,19.4
1631290360531,20.55
1631290360546,21.58
1631290360562,22.33
1631290360578,22.78
1631290360593,22.97
1631290360609,22.91
1631290360625,22.53
1631290360640,21.71
1631290360656,20.37
1631290360671,18.44
1631290360687,15.92
1631290360703,12.94
1631290360718,9.69
1631290360734,6.42
1631290360750,3.39
1631290360765,0.71
1631290360781,-1.65
1631290360796,-3.86
1631290360812,-6.16
1631290360828,-8.67
1631290360843,-11.35
1631290360859,-14.04
1631290360875,-16.49
1631290360890,-18.56
1631290360906,-20.3
1631290360921,-21.92
1631290360937,-23.8
1631290360953,-26.3
1631290360968,-29.67
1631290360984,-33.98
1631290361000,-39.09
1631290361015,-44.52
1631290361031,-49.48
1631290361046,-52.93
1631290361062,-53.74
1631290361078,-51.04
1631290361093,-44.5
1631290361109,-34.58
1631290361125,-22.45
1631290361140,-9.67
1631290361156,2.21
1631290361171,12.13
1631290361187,19.59
1631290361203,24.64
1631290361218,27.55
1631290361234,28.62
1631290361250,28.04
1631290361265,26.05
1631290361281,23.02
1631290361296,19.54
1631290361312,16.3
1631290361328,13.92
1631290361343,12.76
1631290361359,12.84
1631290361375,13.85
1631290361390,15.35
1631290361406,16.92
1631290361421,18.32
1631290361437,19.47
1631290361453,20.36
1631290361468,20.99
1631290361484,21.24
1631290361500,20.87
1631290361515,19.61
1631290361531,17.29
1631290361546,13.93
1631290361562,9.8
1631290361578,5.38
1631290361593,1.16
1631290361609,-2.47
1631290361625,-5.4
1631290361640,-7.82
1631290361656,-10.13
1631290361671,-12.74
1631290361687,-15.86
1631290361703,-19.43
1631290361718,-23.08
1631290361734,-26.39
1631290361750,-29.06
1631290361765,-31.09
1631290361781,-32.82
1631290361796,-34.79
1631290361812,-37.59
1631290361828,-41.63
1631290361843,-46.99
1631290361859,-53.32
1631290361875,-59.81
1631290361890,-65.3
1631290361906,-68.4
1631290361921,-67.89
1631290361937,-63.02
1631290361953,-53.86
1631290361968,-41.3
1631290361984,-26.86
1631290362000,-12.3
1631290362015,0.88
1631290362031,11.68
1631290362046,19.76
1631290362062,25.22
1631290362078,28.47
1631290362093,29.94
1631290362109,30.06
1631290362125,29.22
1631290362140,27.87
1631290362156,26.4
1631290362171,25.21
1631290362187,24.56
1631290362203,24.52
1631290362218,24.97
1631290362234,25.65
1631290362250,26.33
1631290362265,26.84
1631290362281,27.19
1631290362296,27.47
1631290362312,27.81
1631290362328,28.27
1631290362343,28.74
1631290362359,28.92
1631290362375,28.4
1631290362390,26.83
1631290362406,24.08
1631290362421,20.31
1631290362437,15.92
1631290362453,11.48
1631290362468,7.44
1631290362484,3.97
1631290362500,0.95
1631290362515,-1.96
1631290362531,-5.13
1631290362546,-8.75
1631290362562,-12.75
1631290362578,-16.83
1631290362593,-20.63
1631290362609,-23.87
1631290362625,-26.52
1631290362640,-28.74
1631290362656,-30.91
1631290362671,-33.44
1631290362687,-36.75
1631290362703,-41.12
1631290362718,-46.6
1631290362734,-52.88
1631290362750,-59.17
1631290362765,-64.26
1631290362781,-66.72
1631290362796,-65.3
1631290362812,-59.39
1631290362828,-49.24
1631290362843,-35.97
1631290362859,-21.31
1631290362875,-7.0
1631290362890,5.6
1631290362906,15.74
1631290362921,23.3
1631290362937,28.49
1631290362953,31.67
1631290362968,33.19
1631290362984,33.37
1631290363000,32.55
1631290363015,31.11
1631290363031,29.5
1631290363046,28.12
1631290363062,27.24
1631290363078,26.98
1631290363093,27.31
1631290363109,28.06
1631290363125,29.03
1631290363140,30.02
1631290363156,30.87
1631290363171,31.49
1631290363187,31.81
1631290363203,31.78
1631290363218,31.33
1631290363234,30.34
1631290363250,28.73
1631290363265,26.4
1631290363281,23.36
1631290363296,19.76
1631290363312,15.84
1631290363328,11.87
1631290363343,8.11
1631290363359,4.67
1631290363375,1.5
1631290363390,-1.55
1631290363406,-4.68
1631290363421,-7.99
1631290363437,-11.44
1631290363453,-14.88
1631290363468,-18.06
1631290363484,-20.82
1631290363500,-23.14
1631290363515,-25.18
1631290363531,-27.23
1631290363546,-29.6
1631290363562,-32.58
1631290363578,-36.41
1631290363593,-41.21
1631290363609,-46.89
1631290363625,-53.02
1631290363640,-58.68
1631290363656,-62.58
1631290363671,-63.29
1631290363687,-59.73
1631290363703,-51.56
1631290363718,-39.44
1631290363734,-24.88
1631290363750,-9.77
1631290363765,4.14
1631290363781,15.64
1631290363796,24.24
1631290363812,30.04
1631290363828,33.43
1631290363843,34.92
1631290363859,34.96
1631290363875,33.94
1631290363890,32.25
1631290363906,30.27
1631290363921,28.41
1631290363937,26.96
1631290363953,26.14
1631290363968,25.95
1631290363984,26.26
1631290364000,26.84
1631290364015,27.48
1631290364031,28.03
1631290364046,28.44
1631290364062,28.69
1631290364078,28.75
1631290364093,28.47
1631290364109,27.67
1631290364125,26.16
1631290364140,23.86
1631290364156,20.84
1631290364171,17.35
1631290364187,13.7
1631290364203,10.23
1631290364218,7.17
1631290364234,4.65
1631290364250,2.66
1631290364265,1.05
1631290364281,-0.45
1631290364296,-2.16
1631290364312,-4.38
1631290364328,-7.27
1631290364343,-10.8
1631290364359,-14.74
1631290364375,-18.7
1631290364390,-22.34
1631290364406,-25.43
1631290364421,-27.99
1631290364437,-30.25
1631290364453,-32.62
1631290364468,-35.55
1631290364484,-39.41
1631290364500,-44.32
1631290364515,-49.91
1631290364531,-55.29
1631290364546,-59.1
1631290364562,-59.86
1631290364578,-56.43
1631290364593,-48.44
1631290364609,-36.5
1631290364625,-22.08
1631290364640,-7.1
1631290364656,6.64
1631290364671,17.91
1631290364687,26.16
1631290364703,31.45
1631290364718,34.13
1631290364734,34.65
1631290364750,33.46
1631290364765,31.02
1631290364781,27.91
1631290364796,24.83
1631290364812,22.45
1631290364828,21.29
1631290364843,21.54
1631290364859,22.98
1631290364875,25.07
1631290364890,27.18
1631290364906,28.79
1631290364921,29.68
1631290364937,29.91
1631290364953,29.72
1631290364968,29.4
1631290364984,29.04
1631290365000,28.53
1631290365015,27.56
1631290365031,25.79
1631290365046,23.08
1631290365062,19.5
1631290365078,15.47
1631290365093,11.49
1631290365109,8.04
1631290365125,5.36
1631290365140,3.33
1631290365156,1.65
1631290365171,-0.13
1631290365187,-2.31
1631290365203,-4.96
1631290365218,-7.91
1631290365234,-10.85
1631290365250,-13.48
1631290365265,-15.7
1631290365281,-17.58
1631290365296,-19.36
1631290365312,-21.38
1631290365328,-24.02
1631290365343,-27.6
1631290365359,-32.3
1631290365375,-37.97
1631290365390,-43.99
1631290365406,-49.27
1631290365421,-52.41
1631290365437,-52.17
1631290365453,-47.83
1631290365468,-39.49
1631290365484,-28.11
1631290365500,-15.2
1631290365515,-2.35
1631290365531,9.13
1631290365546,18.48
1631290365562,25.4
1631290365578,29.88
1631290365593,32.07
1631290365609,32.18
1631290365625,30.56
1631290365640,27.69
1631290365656,24.24
1631290365671,20.98
1631290365687,18.59
1631290365703,17.47
1631290365718,17.67
1631290365734,18.91
1631290365750,20.72
1631290365765,22.61
1631290365781,24.18
1631290365796,25.25
1631290365812,25.77
1631290365828,25.86
1631290365843,25.62
1631290365859,25.09
1631290365875,24.2
1631290365890,22.78
1631290365906,20.64
1631290365921,17.75
1631290365937,14.22
1631290365953,10.38
1631290365968,6.6
1631290365984,3.18
1631290366000,0.19
1631290366015,-2.5
1631290366031,-5.16
1631290366046,-8.01
1631290366062,-11.13
1631290366078,-14.41
1631290366093,-17.64
1631290366109,-20.6
1631290366125,-23.21
1631290366140,-25.53
1631290366156,-27.77
1631290366171,-30.21
1631290366187,-33.17
1631290366203,-36.94
1631290366218,-41.72
1631290366234,-47.51
1631290366250,-53.93
1631290366265,-60.12
1631290366281,-64.76
1631290366296,-66.34
1631290366312,-63.67
1631290366328,-56.28
1631290366343,-44.69
1631290366359,-30.33
1631290366375,-15.07
1631290366390,-0.72
1631290366406,11.41
1631290366421,20.7
1631290366437,27.11
1631290366453,30.91
1631290366468,32.55
1631290366484,32.48
1631290366500,31.18
1631290366515,29.18
1631290366531,27.04
1631290366546,25.29
1631290366562,24.33
1631290366578,24.36
1631290366593,25.26
1631290366609,26.71
1631290366625,28.28
1631290366640,29.54
1631290366656,30.29
1631290366671,30.5
1631290366687,30.28
1631290366703,29.82
1631290366718,29.19
1631290366734,28.32
1631290366750,27.03
1631290366765,25.13
1631290366781,22.53
1631290366796,19.29
1631290366812,15.58
1631290366828,11.71
1631290366843,7.96
1631290366859,4.52
1631290366875,1.44
1631290366890,-1.37
1631290366906,-4.13
1631290366921,-7.08
1631290366937,-10.33
1631290366953,-13.83
1631290366968,-17.36
1631290366984,-20.58
1631290367000,-23.24
1631290367015,-25.29
1631290367031,-26.95
1631290367046,-28.68
1631290367062,-31.03
1631290367078,-34.49
1631290367093,-39.31
1631290367109,-45.35
1631290367125,-52.04
1631290367140,-58.31
1631290367156,-62.83
1631290367171,-64.18
1631290367187,-61.33
1631290367203,-53.9
1631290367218,-42.45
1631290367234,-28.31
1631290367250,-13.3
1631290367265,0.73
1631290367281,12.41
1631290367296,21.04
1631290367312,26.61
1631290367328,29.59
1631290367343,30.65
1631290367359,30.38
1631290367375,29.24
1631290367390,27.58
1631290367406,25.75
1631290367421,24.12
1631290367437,23.07
1631290367453,22.84
1631290367468,23.4
1631290367484,24.53
1631290367500,25.86
1631290367515,27.04
1631290367531,27.9
1631290367546,28.4
1631290367562,28.63
1631290367578,28.65
1631290367593,28.47
1631290367609,28.0
1631290367625,27.1
1631290367640,25.62
1631290367656,23.45
1631290367671,20.62
1631290367687,17.33
1631290367703,13.89
1631290367718,10.65
1631290367734,7.87
1631290367750,5.58
1631290367765,3.57
1631290367781,1.46
1631290367796,-1.12
1631290367812,-4.33
1631290367828,-8.06
1631290367843,-11.99
1631290367859,-15.73
1631290367875,-19.01
1631290367890,-21.74
1631290367906,-24.01
1631290367921,-26.08
1631290367937,-28.25
1631290367953,-30.87
1631290367968,-34.27
1631290367984,-38.66
1631290368000,-43.96
1631290368015,-49.64
1631290368031,-54.68
1631290368046,-57.71
1631290368062,-57.4
1631290368078,-52.96
1631290368093,-44.46
1631290368109,-32.86
1631290368125,-19.71
1631290368140,-6.71
1631290368156,4.83
1631290368171,14.11
1631290368187,20.93
1631290368203,25.47
1631290368218,28.05
1631290368234,29.09
1631290368250,28.93
1631290368265,27.91
1631290368281,26.36
1631290368296,24.67
1631290368312,23.25
1631290368328,22.48
1631290368343,22.61
1631290368359,23.66
1631290368375,25.38
1631290368390,27.35
1631290368406,29.1
1631290368421,30.29
1631290368437,30.84
1631290368453,30.82
1631290368468,30.39
1631290368484,29.6
1631290368500,28.38
1631290368515,26.57
1631290368531,24.03
1631290368546,20.83
1631290368562,17.18
1631290368578,13.46
1631290368593,10.03
1631290368609,7.1
1631290368625,4.68
1631290368640,2.6
1631290368656,0.55
1631290368671,-1.71
1631290368687,-4.26
1631290368703,-6.96
1631290368718,-9.46
1631290368734,-11.42
1631290368750,-12.6
1631290368765,-13.04
1631290368781,-13.1
1631290368796,-13.31
1631290368812,-14.35
1631290368828,-16.71
1631290368843,-20.63
1631290368859,-25.9
1631290368875,-31.89
1631290368890,-37.52
1631290368906,-41.52
1631290368921,-42.68
1631290368937,-40.24
1631290368953,-34.09
1631290368968,-24.85
1631290368984,-13.73
1631290369000,-2.18
1631290369015,8.45
1631290369031,17.28
1631290369046,23.87
1631290369062,28.16
1631290369078,30.28
1631290369093,30.44
1631290369109,28.9
1631290369125,26.07
1631290369140,22.54
1631290369156,19.05
1631290369171,16.3
1631290369187,14.77
1631290369203,14.56
1631290369218,15.37
1631290369234,16.69
1631290369250,18.0
1631290369265,18.94
1631290369281,19.42
1631290369296,19.52
1631290369312,19.4
1631290369328,19.12
1631290369343,18.6
1631290369359,17.58
1631290369375,15.77
1631290369390,13.0
1631290369406,9.32
1631290369421,5.06
1631290369437,0.72
1631290369453,-3.14
1631290369468,-6.2
1631290369484,-8.42
1631290369500,-10.12
1631290369515,-11.77
1631290369531,-13.8
1631290369546,-16.37
1631290369562,-19.34
1631290369578,-22.34
1631290369593,-25.0
1631290369609,-27.16
1631290369625,-28.94
1631290369640,-30.68
1631290369656,-32.85
1631290369671,-35.82
1631290369687,-39.81
1631290369703,-44.77
1631290369718,-50.32
1631290369734,-55.74
1631290369750,-60.03
1631290369765,-61.99
1631290369781,-60.5
1631290369796,-54.89
1631290369812,-45.23
1631290369828,-32.37
1631290369843,-17.83
1631290369859,-3.36
1631290369875,9.46
1631290369890,19.59
1631290369906,26.67
1631290369921,30.92
1631290369937,32.89
1631290369953,33.3
1631290369968,32.77
1631290369984,31.78
1631290370000,30.64
1631290370015,29.57
1631290370031,28.69
1631290370046,28.08
1631290370062,27.75
1631290370078,27.62
1631290370093,27.57
1631290370109,27.4
1631290370125,26.97
1631290370140,26.22
1631290370156,25.22
1631290370171,24.14
1631290370187,23.13
1631290370203,22.23
1631290370218,21.33
1631290370234,20.16
1631290370250,18.44
1631290370265,15.99
1631290370281,12.85
1631290370296,9.33
1631290370312,5.86
1631290370328,2.92
1631290370343,0.71
1631290370359,-0.82
1631290370375,-2.04
1631290370390,-3.42
1631290370406,-5.34
1631290370421,-7.93
1631290370437,-11.05
1631290370453,-14.38
1631290370468,-17.61
1631290370484,-20.54
1631290370500,-23.19
1631290370515,-25.75
1631290370531,-28.51
1631290370546,-31.77
1631290370562,-35.78
1631290370578,-40.56
1631290370593,-45.92
1631290370609,-51.26
1631290370625,-55.61
1631290370640,-57.78
1631290370656,-56.64
1631290370671,-51.46
1631290370687,-42.25
1631290370703,-29.82
1631290370718,-15.52
1631290370734,-0.94
1631290370750,12.55
1631290370765,24.03
1631290370781,33.11
1631290370796,39.8
1631290370812,44.29
1631290370828,46.81
1631290370843,47.56
1631290370859,46.75
1631290370875,44.61
1631290370890,41.47
1631290370906,37.75
1631290370921,33.94
1631290370937,30.5
1631290370953,27.81
1631290370968,26.06
1631290370984,25.23
1631290371000,25.15
1631290371015,25.65
1631290371031,26.64
1631290371046,28.24
1631290371062,30.6
1631290371078,33.77
1631290371093,37.51
1631290371109,41.21
1631290371125,44.04
1631290371140,45.21
1631290371156,44.28
1631290371171,41.35
1631290371187,36.98
1631290371203,31.92
1631290371218,26.82
1631290371234,21.96
1631290371250,17.29
1631290371265,12.6
1631290371281,7.69
1631290371296,2.56
1631290371312,-2.62
1631290371328,-7.57
1631290371343,-12.07
1631290371359,-16.0
1631290371375,-19.39
1631290371390,-22.38
1631290371406,-25.2
1631290371421,-28.13
1631290371437,-31.54
1631290371453,-35.79
1631290371468,-41.22
1631290371484,-47.94
1631290371500,-55.64
1631290371515,-63.48
1631290371531,-70.13
1631290371546,-74.05
1631290371562,-73.95
1631290371578,-69.29
1631290371593,-60.5
1631290371609,-48.89
1631290371625,-36.17
1631290371640,-23.96
1631290371656,-13.36
1631290371671,-4.82
1631290371687,1.7
1631290371703,6.44
1631290371718,9.68
1631290371734,11.6
1631290371750,12.43
1631290371765,12.45
1631290371781,12.05
1631290371796,11.66
1631290371812,11.61
1631290371828,12.12
1631290371843,13.19
1631290371859,14.66
1631290371875,16.28
1631290371890,17.86
1631290371906,19.26
1631290371921,20.46
1631290371937,21.43
1631290371953,22.1
1631290371968,22.35
1631290371984,21.98
1631290372000,20.89
1631290372015,19.07
1631290372031,16.68
1631290372046,13.96
1631290372062,11.17
1631290372078,8.56
1631290372093,6.35
1631290372109,4.66
1631290372125,3.48
1631290372140,2.64
1631290372156,1.76
1631290372171,0.4
1631290372187,-1.76
1631290372203,-4.76
1631290372218,-8.27
1631290372234,-11.71
1631290372250,-14.5
1631290372265,-16.26
1631290372281,-16.98
1631290372296,-17.01
1631290372312,-16.91
1631290372328,-17.33
1631290372343,-18.78
1631290372359,-21.59
1631290372375,-25.75
1631290372390,-30.81
1631290372406,-35.88
1631290372421,-39.74
1631290372437,-41.09
1631290372453,-38.91
1631290372468,-32.87
1631290372484,-23.43
1631290372500,-11.78
1631290372515,0.54
1631290372531,12.0
1631290372546,21.53
1631290372562,28.63
1631290372578,33.33
1631290372593,35.95
1631290372609,36.93
1631290372625,36.67
1631290372640,35.49
1631290372656,33.72
1631290372671,31.65
1631290372687,29.56
1631290372703,27.64
1631290372718,25.99
1631290372734,24.57
1631290372750,23.29
1631290372765,22.1
1631290372781,20.93
1631290372796,19.8
1631290372812,18.75
1631290372828,17.82
1631290372843,17.04
1631290372859,16.38
1631290372875,15.77
1631290372890,15.07
1631290372906,14.1
1631290372921,12.71
1631290372937,10.84
1631290372953,8.58
1631290372968,6.17
1631290372984,3.99
1631290373000,2.39
1631290373015,1.63
1631290373031,1.81
1631290373046,2.75
1631290373062,4.09
1631290373078,5.32
1631290373093,5.95
1631290373109,5.6
1631290373125,4.17
1631290373140,1.77
1631290373156,-1.37
1631290373171,-4.97
1631290373187,-8.9
1631290373203,-13.17
1631290373218,-17.95
1631290373234,-23.51
1631290373250,-30.03
1631290373265,-37.45
1631290373281,-45.33
1631290373296,-52.83
1631290373312,-58.73
1631290373328,-61.74
1631290373343,-60.85
1631290373359,-55.63
1631290373375,-46.49
1631290373390,-34.54
1631290373406,-21.43
1631290373421,-8.86
1631290373437,1.76
1631290373453,9.63
1631290373468,14.58
1631290373484,17.02
1631290373500,17.59
1631290373515,16.99
1631290373531,15.72
1631290373546,14.12
1631290373562,12.36
1631290373578,10.65
1631290373593,9.27
1631290373609,8.52
1631290373625,8.59
1631290373640,9.47
1631290373656,10.88
1631290373671,12.38
1631290373687,13.64
1631290373703,14.48
1631290373718,14.98
1631290373734,15.37
1631290373750,15.82
1631290373765,16.4
1631290373781,16.94
1631290373796,17.19
1631290373812,16.85
1631290373828,15.74
1631290373843,13.82
1631290373859,11.24
1631290373875,8.33
1631290373890,5.51
1631290373906,3.25
1631290373921,1.88
1631290373937,1.56
1631290373953,2.14
1631290373968,3.2
1631290373984,4.18
1631290374000,4.46
1631290374015,3.62
1631290374031,1.52
1631290374046,-1.65
1631290374062,-5.47
1631290374078,-9.43
1631290374093,-13.17
1631290374109,-16.55
1631290374125,-19.75
1631290374140,-23.09
1631290374156,-27.03
1631290374171,-31.94
1631290374187,-37.95
1631290374203,-44.82
1631290374218,-51.81
1631290374234,-57.76
1631290374250,-61.29
1631290374265,-61.21
1631290374281,-56.93
1631290374296,-48.69
1631290374312,-37.56
1631290374328,-25.07
1631290374343,-12.8
1631290374359,-1.9
1631290374375,7.06
1631290374390,14.04
1631290374406,19.26
1631290374421,23.01
1631290374437,25.49
1631290374453,26.88
1631290374468,27.42
1631290374484,27.55
1631290374500,27.92
1631290374515,29.23
1631290374531,32.06
1631290374546,36.53
1631290374562,42.25
1631290374578,48.41
1631290374593,53.97
1631290374609,58.04
1631290374625,60.13
1631290374640,60.23
1631290374656,58.64
1631290374671,55.83
1631290374687,52.16
1631290374703,47.89
1631290374718,43.15
1631290374734,38.04
1631290374750,32.73
1631290374765,27.4
1631290374781,22.25
1631290374796,17.41
1631290374812,12.97
1631290374828,8.92
1631290374843,5.27
1631290374859,1.96
1631290374875,-1.05
1631290374890,-3.85
1631290374906,-6.55
1631290374921,-9.28
1631290374937,-12.14
1631290374953,-15.15
1631290374968,-18.27
1631290374984,-21.41
1631290375000,-24.39
1631290375015,-27.16
1631290375031,-29.77
1631290375046,-32.47
1631290375062,-35.7
1631290375078,-39.93
1631290375093,-45.56
1631290375109,-52.69
1631290375125,-60.95
1631290375140,-69.5
1631290375156,-77.05
1631290375171,-82.14
1631290375187,-83.46
1631290375203,-80.25
1631290375218,-72.55
1631290375234,-61.2
1631290375250,-47.68
1631290375265,-33.66
1631290375281,-20.61
1631290375296,-9.5
1631290375312,-0.63
1631290375328,6.1
1631290375343,11.1
1631290375359,14.67
1631290375375,17.04
1631290375390,18.32
1631290375406,18.66
1631290375421,18.43
1631290375437,18.16
1631290375453,18.48
1631290375468,19.89
1631290375484,22.51
1631290375500,26.08
1631290375515,30.06
1631290375531,33.83
1631290375546,36.93
1631290375562,39.14
1631290375578,40.47
1631290375593,41.01
1631290375609,40.8
1631290375625,39.81
1631290375640,38.0
1631290375656,35.37
1631290375671,32.06
1631290375687,28.38
1631290375703,24.67
1631290375718,21.24
1631290375734,18.24
1631290375750,15.65
1631290375765,13.28
1631290375781,10.83
1631290375796,8.0
1631290375812,4.59
1631290375828,0.58
1631290375843,-3.9
1631290375859,-8.6
1631290375875,-13.21
1631290375890,-17.52
1631290375906,-21.41
1631290375921,-24.87
1631290375937,-27.95
1631290375953,-30.73
1631290375968,-33.14
1631290375984,-35.08
1631290376000,-36.35
1631290376015,-36.79
1631290376031,-36.28
1631290376046,-34.73
1631290376062,-32.04
1631290376078,-28.09
1631290376093,-22.75
1631290376109,-16.02
1631290376125,-8.16
1631290376140,0.29
1631290376156,8.59
1631290376171,15.93
1631290376187,21.77
1631290376203,25.85
1631290376218,28.31
1631290376234,29.47
1631290376250,29.63
1631290376265,28.97
1631290376281,27.53
1631290376296,25.33
1631290376312,22.54
1631290376328,19.53
1631290376343,16.77
1631290376359,14.71
1631290376375,13.53
1631290376390,13.13
1631290376406,13.1
1631290376421,12.97
1631290376437,12.36
1631290376453,11.07
1631290376468,9.14
1631290376484,6.76
1631290376500,4.12
1631290376515,1.36
1631290376531,-1.47
1631290376546,-4.36
1631290376562,-7.31
1631290376578,-10.31
1631290376593,-13.29
1631290376609,-16.11
1631290376625,-18.56
1631290376640,-20.39
1631290376656,-21.44
1631290376671,-21.69
1631290376687,-21.36
1631290376703,-20.89
1631290376718,-20.8
1631290376734,-21.54
1631290376750,-23.24
1631290376765,-25.72
1631290376781,-28.53
1631290376796,-31.09
1631290376812,-32.92
1631290376828,-33.82
1631290376843,-33.89
1631290376859,-33.55
1631290376875,-33.42
1631290376890,-34.14
1631290376906,-36.18
1631290376921,-39.62
1631290376937,-43.92
1631290376953,-47.98
1631290376968,-50.34
1631290376984,-49.59
1631290377000,-44.86
1631290377015,-36.12
1631290377031,-24.23
1631290377046,-10.64
1631290377062,3.05
1631290377078,15.48
1631290377093,25.79
1631290377109,33.5
1631290377125,38.49
1631290377140,40.75
1631290377156,40.49
1631290377171,38.11
1631290377187,34.29
1631290377203,29.87
1631290377218,25.65
1631290377234,22.2
1631290377250,19.74
1631290377265,18.2
1631290377281,17.36
1631290377296,17.0
1631290377312,17.03
1631290377328,17.49
1631290377343,18.5
1631290377359,20.22
1631290377375,22.77
1631290377390,26.2
1631290377406,30.32
1631290377421,34.64
1631290377437,38.44
1631290377453,40.88
1631290377468,41.32
1631290377484,39.53
1631290377500,35.79
1631290377515,30.72
1631290377531,25.01
1631290377546,19.18
1631290377562,13.45
1631290377578,7.76
1631290377593,2.01
1631290377609,-3.76
1631290377625,-9.35
1631290377640,-14.42
1631290377656,-18.7
1631290377671,-22.09
1631290377687,-24.72
1631290377703,-26.85
1631290377718,-28.75
1631290377734,-30.69
1631290377750,-32.94
1631290377765,-35.8
1631290377781,-39.64
1631290377796,-44.73
1631290377812,-51.06
1631290377828,-58.09
1631290377843,-64.7
1631290377859,-69.45
1631290377875,-70.96
1631290377890,-68.47
1631290377906,-62.0
1631290377921,-52.42
1631290377937,-41.1
1631290377953,-29.5
1631290377968,-18.8
1631290377984,-9.75
1631290378000,-2.61
1631290378015,2.63
1631290378031,6.21
1631290378046,8.45
1631290378062,9.73
1631290378078,10.43
1631290378093,10.95
1631290378109,11.61
1631290378125,12.64
1631290378140,14.15
1631290378156,16.09
1631290378171,18.28
1631290378187,20.55
1631290378203,22.75
1631290378218,24.85
1631290378234,26.9
1631290378250,28.96
1631290378265,30.97
1631290378281,32.77
1631290378296,34.16
1631290378312,34.96
1631290378328,35.26
1631290378343,35.28
1631290378359,35.34
1631290378375,35.62
1631290378390,36.03
1631290378406,36.24
1631290378421,35.76
1631290378437,34.15
1631290378453,31.14
1631290378468,26.65
1631290378484,20.82
1631290378500,13.95
1631290378515,6.53
1631290378531,-0.9
1631290378546,-7.77
1631290378562,-13.66
1631290378578,-18.5
1631290378593,-22.55
1631290378609,-26.4
1631290378625,-30.7
1631290378640,-35.99
1631290378656,-42.41
1631290378671,-49.58
1631290378687,-56.63
1631290378703,-62.39
1631290378718,-65.59
1631290378734,-65.21
1631290378750,-60.82
1631290378765,-52.64
1631290378781,-41.57
1631290378796,-28.9
1631290378812,-15.94
1631290378828,-3.76
1631290378843,7.04
1631290378859,16.23
1631290378875,23.78
1631290378890,29.66
1631290378906,33.8
1631290378921,36.14
1631290378937,36.8
1631290378953,36.23
1631290378968,35.16
1631290378984,34.54
1631290379000,35.24
1631290379015,37.8
1631290379031,42.2
1631290379046,47.83
1631290379062,53.64
1631290379078,58.43
1631290379093,61.24
1631290379109,61.59
1631290379125,59.52
1631290379140,55.41
1631290379156,49.72
1631290379171,42.84
1631290379187,35.05
1631290379203,26.66
1631290379218,18.17
1631290379234,10.24
1631290379250,3.54
1631290379265,-1.48
1631290379281,-4.86
1631290379296,-7.03
1631290379312,-8.76
1631290379328,-10.8
1631290379343,-13.66
1631290379359,-17.46
1631290379375,-21.92
1631290379390,-26.6
1631290379406,-30.99
1631290379421,-34.82
1631290379437,-38.12
1631290379453,-41.24
1631290379468,-44.73
1631290379484,-49.16
1631290379500,-54.89
1631290379515,-61.92
1631290379531,-69.73
1631290379546,-77.33
1631290379562,-83.23
1631290379578,-85.88
1631290379593,-83.94
1631290379609,-76.82
1631290379625,-64.93
1631290379640,-49.68
1631290379656,-33.07
1631290379671,-17.16
1631290379687,-3.56
1631290379703,6.98
1631290379718,14.43
1631290379734,19.35
1631290379750,22.47
1631290379765,24.5
1631290379781,25.97
1631290379796,27.28
1631290379812,28.69
1631290379828,30.38
1631290379843,32.37
1631290379859,34.52
1631290379875,36.59
1631290379890,38.28
1631290379906,39.41
1631290379921,39.97
1631290379937,40.13
1631290379953,40.1
1631290379968,40.06
1631290379984,40.0
1631290380000,39.75
1631290380015,39.1
1631290380031,37.84
1631290380046,35.88
1631290380062,33.21
1631290380078,29.91
1631290380093,26.11
1631290380109,22.0
1631290380125,17.81
1631290380140,13.75
1631290380156,9.95
1631290380171,6.34
1631290380187,2.75
1631290380203,-1.03
1631290380218,-5.11
1631290380234,-9.39
1631290380250,-13.64
1631290380265,-17.59
1631290380281,-21.06
1631290380296,-23.97
1631290380312,-26.38
1631290380328,-28.33
1631290380343,-29.82
1631290380359,-30.89
1631290380375,-31.64
1631290380390,-32.16
1631290380406,-32.52
1631290380421,-32.62
1631290380437,-32.15
1631290380453,-30.65
1631290380468,-27.7
1631290380484,-23.06
1631290380500,-16.87
1631290380515,-9.63
1631290380531,-2.05
1631290380546,5.08
1631290380562,11.17
1631290380578,15.86
1631290380593,19.15
1631290380609,21.28
1631290380625,22.62
1631290380640,23.54
1631290380656,24.29
1631290380671,24.93
1631290380687,25.45
1631290380703,25.8
1631290380718,26.02
1631290380734,26.22
1631290380750,26.55
1631290380765,27.09
1631290380781,27.78
1631290380796,28.33
1631290380812,28.4
1631290380828,27.64
1631290380843,25.88
1631290380859,23.18
1631290380875,19.79
1631290380890,16.02
1631290380906,12.19
1631290380921,8.48
1631290380937,4.94
1631290380953,1.55
1631290380968,-1.73
1631290380984,-4.85
1631290381000,-7.73
1631290381015,-10.24
1631290381031,-12.26
1631290381046,-13.72
1631290381062,-14.67
1631290381078,-15.24
1631290381093,-15.66
1631290381109,-16.21
1631290381125,-17.17
1631290381140,-18.71
1631290381156,-20.85
1631290381171,-23.38
1631290381187,-25.95
1631290381203,-28.17
1631290381218,-29.74
1631290381234,-30.6
1631290381250,-31.02
1631290381265,-31.51
1631290381281,-32.68
1631290381296,-35.05
1631290381312,-38.7
1631290381328,-43.19
1631290381343,-47.47
1631290381359,-50.1
1631290381375,-49.64
1631290381390,-45.11
1631290381406,-36.39
1631290381421,-24.25
1631290381437,-10.19
1631290381453,4.07
1631290381468,17.01
1631290381484,27.66
1631290381500,35.6
1631290381515,40.86
1631290381531,43.62
1631290381546,44.18
1631290381562,42.82
1631290381578,39.95
1631290381593,36.11
1631290381609,31.94
1631290381625,28.08
1631290381640,25.01
1631290381656,22.91
1631290381671,21.61
1631290381687,20.83
1631290381703,20.31
1631290381718,20.08
1631290381734,20.44
1631290381750,21.82
1631290381765,24.46
1631290381781,28.17
1631290381796,32.24
1631290381812,35.67
1631290381828,37.52
1631290381843,37.3
1631290381859,35.1
1631290381875,31.47
1631290381890,27.13
1631290381906,22.67
1631290381921,18.39
1631290381937,14.31
1631290381953,10.3
1631290381968,6.23
1631290381984,2.06
1631290382000,-2.14
1631290382015,-6.24
1631290382031,-10.07
1631290382046,-13.5
1631290382062,-16.49
1631290382078,-19.11
1631290382093,-21.57
1631290382109,-24.13
1631290382125,-27.08
1631290382140,-30.7
1631290382156,-35.19
1631290382171,-40.66
1631290382187,-46.98
1631290382203,-53.72
1631290382218,-60.05
1631290382234,-64.87
1631290382250,-66.99
1631290382265,-65.52
1631290382281,-60.11
1631290382296,-51.14
1631290382312,-39.65
1631290382328,-27.04
1631290382343,-14.73
1631290382359,-3.86
1631290382375,4.9
1631290382390,11.32
1631290382406,15.58
1631290382421,18.05
1631290382437,19.18
1631290382453,19.39
1631290382468,19.08
1631290382484,18.66
1631290382500,18.55
1631290382515,19.15
1631290382531,20.67
1631290382546,23.11
1631290382562,26.19
1631290382578,29.44
1631290382593,32.42
1631290382609,34.85
1631290382625,36.68
1631290382640,37.98
1631290382656,38.84
1631290382671,39.2
1631290382687,38.99
1631290382703,38.09
1631290382718,36.53
1631290382734,34.49
1631290382750,32.23
1631290382765,29.93
1631290382781,27.62
1631290382796,25.22
1631290382812,22.57
1631290382828,19.58
1631290382843,16.27
1631290382859,12.7
1631290382875,8.88
1631290382890,4.71
1631290382906,0.03
1631290382921,-5.29
1631290382937,-11.18
1631290382953,-17.36
1631290382968,-23.37
1631290382984,-28.72
1631290383000,-33.07
1631290383015,-36.33
1631290383031,-38.6
1631290383046,-40.08
1631290383062,-41.01
1631290383078,-41.6
1631290383093,-42.13
1631290383109,-42.87
1631290383125,-44.02
1631290383140,-45.48
1631290383156,-46.73
1631290383171,-46.88
1631290383187,-44.88
1631290383203,-40.0
1631290383218,-32.16
1631290383234,-22.1
1631290383250,-11.16
1631290383265,-0.84
1631290383281,7.72
1631290383296,13.99
1631290383312,18.09
1631290383328,20.54
1631290383343,21.94
1631290383359,22.75
1631290383375,23.23
1631290383390,23.47
1631290383406,23.6
1631290383421,23.76
1631290383437,24.11
1631290383453,24.71
1631290383468,25.44
1631290383484,26.06
1631290383500,26.28
1631290383515,25.98
1631290383531,25.22
1631290383546,24.23
1631290383562,23.26
1631290383578,22.43
1631290383593,21.65
1631290383609,20.72
1631290383625,19.37
1631290383640,17.44
1631290383656,14.96
1631290383671,12.14
1631290383687,9.27
1631290383703,6.67
1631290383718,4.53
1631290383734,2.9
1631290383750,1.69
1631290383765,0.71
1631290383781,-0.29
1631290383796,-1.46
1631290383812,-2.95
1631290383828,-4.8
1631290383843,-7.03
1631290383859,-9.6
1631290383875,-12.38
1631290383890,-15.14
1631290383906,-17.6
1631290383921,-19.47
1631290383937,-20.62
1631290383953,-21.12
1631290383968,-21.27
1631290383984,-21.51
1631290384000,-22.31
1631290384015,-24.15
1631290384031,-27.35
1631290384046,-32.04
1631290384062,-38.0
1631290384078,-44.49
1631290384093,-50.29
1631290384109,-53.89
1631290384125,-53.86
1631290384140,-49.46
1631290384156,-40.9
1631290384171,-29.38
1631290384187,-16.72
1631290384203,-4.77
1631290384218,5.14
1631290384234,12.42
1631290384250,17.15
1631290384265,19.79
1631290384281,20.81
1631290384296,20.64
1631290384312,19.61
1631290384328,18.12
1631290384343,16.73
1631290384359,16.07
1631290384375,16.72
1631290384390,18.96
1631290384406,22.73
1631290384421,27.6
1631290384437,32.9
1631290384453,37.94
1631290384468,42.13
1631290384484,45.08
1631290384500,46.6
1631290384515,46.7
1631290384531,45.51
1631290384546,43.21
1631290384562,40.02
1631290384578,36.14
1631290384593,31.74
1631290384609,26.98
1631290384625,22.06
1631290384640,17.23
1631290384656,12.76
1631290384671,8.89
1631290384687,5.72
1631290384703,3.19
1631290384718,1.06
1631290384734,-0.93
1631290384750,-3.03
1631290384765,-5.33
1631290384781,-7.82
1631290384796,-10.48
1631290384812,-13.34
1631290384828,-16.46
1631290384843,-19.88
1631290384859,-23.53
1631290384875,-27.24
1631290384890,-30.74
1631290384906,-33.88
1631290384921,-36.66
1631290384937,-39.3
1631290384953,-42.18
1631290384968,-45.64
1631290384984,-49.82
1631290385000,-54.47
1631290385015,-58.92
1631290385031,-62.2
1631290385046,-63.2
1631290385062,-61.0
1631290385078,-55.13
1631290385093,-45.74
1631290385109,-33.56
1631290385125,-19.77
1631290385140,-5.71
1631290385156,7.39
1631290385171,18.58
1631290385187,27.29
1631290385203,33.34
1631290385218,36.84
1631290385234,38.11
1631290385250,37.62
1631290385265,35.96
1631290385281,33.77
1631290385296,31.68
1631290385312,30.19
1631290385328,29.58
1631290385343,29.82
1631290385359,30.63
1631290385375,31.58
1631290385390,32.24
1631290385406,32.3
1631290385421,31.62
1631290385437,30.18
1631290385453,28.1
1631290385468,25.57
1631290385484,22.84
1631290385500,20.15
1631290385515,17.67
1631290385531,15.42
1631290385546,13.36
1631290385562,11.45
1631290385578,9.81
1631290385593,8.78
1631290385609,8.81
1631290385625,10.18
1631290385640,12.8
1631290385656,16.08
1631290385671,19.06
1631290385687,20.71
1631290385703,20.33
1631290385718,17.71
1631290385734,13.15
1631290385750,7.24
1631290385765,0.54
1631290385781,-6.54
1631290385796,-13.77
1631290385812,-20.96
1631290385828,-27.88
1631290385843,-34.24
1631290385859,-39.9
1631290385875,-44.92
1631290385890,-49.62
1631290385906,-54.3
1631290385921,-58.9
1631290385937,-62.85
1631290385953,-65.08
1631290385968,-64.48
1631290385984,-60.36
1631290386000,-52.78
1631290386015,-42.58
1631290386031,-31.1
1631290386046,-19.71
1631290386062,-9.49
1631290386078,-1.09
1631290386093,5.23
1631290386109,9.48
1631290386125,11.83
1631290386140,12.57
1631290386156,12.06
1631290386171,10.82
1631290386187,9.42
1631290386203,8.37
1631290386218,8.11
1631290386234,8.83
1631290386250,10.44
1631290386265,12.67
1631290386281,15.08
1631290386296,17.28
1631290386312,19.0
1631290386328,20.18
1631290386343,20.92
1631290386359,21.41
1631290386375,21.84
1631290386390,22.28
1631290386406,22.72
1631290386421,23.05
1631290386437,23.15
1631290386453,22.88
1631290386468,22.16
1631290386484,20.87
1631290386500,18.98
1631290386515,16.5
1631290386531,13.55
1631290386546,10.36
1631290386562,7.18
1631290386578,4.25
1631290386593,1.66
1631290386609,-0.59
1631290386625,-2.68
1631290386640,-4.76
1631290386656,-7.0
1631290386671,-9.49
1631290386687,-12.27
1631290386703,-15.3
1631290386718,-18.56
1631290386734,-22.02
1631290386750,-25.74
1631290386765,-29.85
1631290386781,-34.61
1631290386796,-40.26
1631290386812,-46.84
1631290386828,-54.0
1631290386843,-60.86
1631290386859,-66.08
1631290386875,-68.21
1631290386890,-66.08
1631290386906,-59.19
1631290386921,-47.84
1631290386937,-33.07
1631290386953,-16.39
1631290386968,0.61
1631290386984,16.43
1631290387000,29.99
1631290387015,40.57
1631290387031,47.92
1631290387046,52.17
1631290387062,53.75
1631290387078,53.23
1631290387093,51.19
1631290387109,48.15
1631290387125,44.51
1631290387140,40.64
1631290387156,36.9
1631290387171,33.57
1631290387187,30.82
1631290387203,28.66
1631290387218,26.9
1631290387234,25.36
1631290387250,23.91
1631290387265,22.61
1631290387281,21.57
1631290387296,20.89
1631290387312,20.55
1631290387328,20.32
1631290387343,19.84
1631290387359,18.78
1631290387375,16.94
1631290387390,14.26
1631290387406,10.85
1631290387421,6.85
1631290387437,2.44
1631290387453,-2.2
1631290387468,-6.84
1631290387484,-11.27
1631290387500,-15.34
1631290387515,-19.02
1631290387531,-22.39
1631290387546,-25.64
1631290387562,-28.92
1631290387578,-32.19
1631290387593,-35.26
1631290387609,-37.82
1631290387625,-39.62
1631290387640,-40.7
1631290387656,-41.39
1631290387671,-42.23
1631290387687,-43.85
1631290387703,-46.66
1631290387718,-50.73
1631290387734,-55.65
1631290387750,-60.54
1631290387765,-64.16
1631290387781,-65.13
1631290387796,-62.3
1631290387812,-55.1
1631290387828,-43.84
1631290387843,-29.66
1631290387859,-14.25
1631290387875,0.57
1631290387890,13.42
1631290387906,23.53
1631290387921,30.79
1631290387937,35.51
1631290387953,38.17
1631290387968,39.23
1631290387984,39.09
1631290388000,38.17
1631290388015,36.82
1631290388031,35.35
1631290388046,33.94
1631290388062,32.61
1631290388078,31.21
1631290388093,29.58
1631290388109,27.65
1631290388125,25.45
1631290388140,23.18
1631290388156,21.08
1631290388171,19.38
1631290388187,18.19
1631290388203,17.45
1631290388218,16.94
1631290388234,16.37
1631290388250,15.5
1631290388265,14.3
1631290388281,12.99
1631290388296,11.97
1631290388312,11.66
1631290388328,12.26
1631290388343,13.58
1631290388359,15.12
1631290388375,16.17
1631290388390,16.06
1631290388406,14.4
1631290388421,11.14
1631290388437,6.56
1631290388453,1.13
1631290388468,-4.64
1631290388484,-10.29
1631290388500,-15.55
1631290388515,-20.27
1631290388531,-24.5
1631290388546,-28.41
1631290388562,-32.33
1631290388578,-36.64
1631290388593,-41.59
1631290388609,-47.1
1631290388625,-52.56
1631290388640,-56.92
1631290388656,-58.89
1631290388671,-57.46
1631290388687,-52.21
1631290388703,-43.57
1631290388718,-32.65
1631290388734,-20.92
1631290388750,-9.79
1631290388765,-0.25
1631290388781,7.19
1631290388796,12.46
1631290388812,15.79
1631290388828,17.54
1631290388843,18.11
1631290388859,17.92
1631290388875,17.33
1631290388890,16.69
1631290388906,16.26
1631290388921,16.21
1631290388937,16.57
1631290388953,17.31
1631290388968,18.32
1631290388984,19.48
1631290389000,20.71
1631290389015,22.0
1631290389031,23.36
1631290389046,24.83
1631290389062,26.33
1631290389078,27.72
1631290389093,28.73
1631290389109,29.03
1631290389125,28.37
1631290389140,26.62
1631290389156,23.9
1631290389171,20.53
1631290389187,16.96
1631290389203,13.63
1631290389218,10.85
1631290389234,8.68
1631290389250,6.95
1631290389265,5.36
1631290389281,3.54
1631290389296,1.18
1631290389312,-1.88
1631290389328,-5.64
1631290389343,-9.94
1631290389359,-14.52
1631290389375,-19.05
1631290389390,-23.37
1631290389406,-27.49
1631290389421,-31.68
1631290389437,-36.4
1631290389453,-42.05
1631290389468,-48.76
1631290389484,-56.05
1631290389500,-62.8
1631290389515,-67.39
1631290389531,-68.13
1631290389546,-63.78
1631290389562,-54.02
1631290389578,-39.68
1631290389593,-22.49
1631290389609,-4.69
1631290389625,11.6
1631290389640,24.86
1631290389656,34.39
1631290389671,40.19
1631290389687,42.78
1631290389703,42.83
1631290389718,41.0
1631290389734,37.84
1631290389750,33.85
1631290389765,29.6
1631290389781,25.68
1631290389796,22.65
1631290389812,20.89
1631290389828,20.48
1631290389843,21.17
1631290389859,22.49
1631290389875,23.92
1631290389890,25.03
1631290389906,25.61
1631290389921,25.58
1631290389937,25.0
1631290389953,23.88
1631290389968,22.17
1631290389984,19.83
1631290390000,16.85
1631290390015,13.29
1631290390031,9.39
1631290390046,5.42
1631290390062,1.66
1631290390078,-1.66
1631290390093,-4.48
1631290390109,-6.88
1631290390125,-9.05
1631290390140,-11.22
1631290390156,-13.52
1631290390171,-16.01
1631290390187,-18.64
1631290390203,-21.3
1631290390218,-23.87
1631290390234,-26.27
1631290390250,-28.5
1631290390265,-30.64
1631290390281,-32.84
1631290390296,-35.3
1631290390312,-38.24
1631290390328,-41.8
1631290390343,-45.95
1631290390359,-50.38
1631290390375,-54.41
1631290390390,-57.02
1631290390406,-57.13
1631290390421,-53.82
1631290390437,-46.77
1631290390453,-36.4
1631290390468,-23.78
1631290390484,-10.4
1631290390500,2.33
1631290390515,13.31
1631290390531,21.99
1631290390546,28.24
1631290390562,32.2
1631290390578,34.14
1631290390593,34.38
1631290390609,33.37
1631290390625,31.62
1631290390640,29.7
1631290390656,28.11
1631290390671,27.23
1631290390687,27.21
1631290390703,28.01
1631290390718,29.44
1631290390734,31.22
1631290390750,33.12
1631290390765,34.99
1631290390781,36.83
1631290390796,38.8
1631290390812,41.1
1631290390828,43.8
1631290390843,46.7
1631290390859,49.25
1631290390875,50.7
1631290390890,50.34
1631290390906,47.73
1631290390921,42.97
1631290390937,36.61
1631290390953,29.45
1631290390968,22.32
1631290390984,15.75
1631290391000,9.93
1631290391015,4.73
1631290391031,-0.09
1631290391046,-4.73
1631290391062,-9.21
1631290391078,-13.42
1631290391093,-17.19
1631290391109,-20.48
1631290391125,-23.39
1631290391140,-26.19
1631290391156,-29.23
1631290391171,-32.82
1631290391187,-37.22
1631290391203,-42.51
1631290391218,-48.67
1631290391234,-55.45
1631290391250,-62.19
1631290391265,-67.85
1631290391281,-71.12
1631290391296,-70.74
1631290391312,-66.01
1631290391328,-57.07
1631290391343,-44.97
1631290391359,-31.35
1631290391375,-17.92
1631290391390,-5.99
1631290391406,3.77
1631290391421,11.26
1631290391437,16.67
1631290391453,20.24
1631290391468,22.16
1631290391484,22.62
1631290391500,21.92
1631290391515,20.58
1631290391531,19.26
1631290391546,18.59
1631290391562,19.01
1631290391578,20.67
1631290391593,23.37
1631290391609,26.67
1631290391625,30.08
1631290391640,33.13
1631290391656,35.52
1631290391671,37.09
1631290391687,37.77
1631290391703,37.53
1631290391718,36.37
1631290391734,34.32
1631290391750,31.51
1631290391765,28.18
1631290391781,24.6
1631290391796,21.07
1631290391812,17.78
1631290391828,14.72
1631290391843,11.75
1631290391859,8.62
1631290391875,5.1
1631290391890,1.09
1631290391906,-3.27
1631290391921,-7.65
1631290391937,-11.68
1631290391953,-15.05
1631290391968,-17.66
1631290391984,-19.63
1631290392000,-21.19
1631290392015,-22.58
1631290392031,-23.99
1631290392046,-25.45
1631290392062,-27.04
1631290392078,-28.73
1631290392093,-30.42
1631290392109,-31.81
1631290392125,-32.37
1631290392140,-31.46
1631290392156,-28.5
1631290392171,-23.26
1631290392187,-15.98
1631290392203,-7.32
1631290392218,1.76
1631290392234,10.3
1631290392250,17.53
1631290392265,22.95
1631290392281,26.37
1631290392296,27.82
1631290392312,27.5
1631290392328,25.75
1631290392343,23.0
1631290392359,19.77
1631290392375,16.63
1631290392390,14.09
1631290392406,12.56
1631290392421,12.16
1631290392437,12.74
1631290392453,13.88
1631290392468,15.11
1631290392484,16.07
1631290392500,16.57
1631290392515,16.66
1631290392531,16.42
1631290392546,15.91
1631290392562,15.07
1631290392578,13.76
1631290392593,11.81
1631290392609,9.17
1631290392625,5.96
1631290392640,2.49
1631290392656,-0.85
1631290392671,-3.68
1631290392687,-5.75
1631290392703,-7.12
1631290392718,-8.07
1631290392734,-9.11
1631290392750,-10.65
1631290392765,-12.94
1631290392781,-15.88
1631290392796,-19.1
1631290392812,-22.1
1631290392828,-24.46
1631290392843,-25.98
1631290392859,-26.79
1631290392875,-27.27
1631290392890,-28.09
1631290392906,-29.92
1631290392921,-33.25
1631290392937,-38.05
1631290392953,-43.61
1631290392968,-48.59
1631290392984,-51.29
1631290393000,-50.24
1631290393015,-44.72
1631290393031,-35.02
1631290393046,-22.38
1631290393062,-8.55
1631290393078,4.7
1631290393093,16.0
1631290393109,24.59
1631290393125,30.34
1631290393140,33.53
1631290393156,34.72
1631290393171,34.52
1631290393187,33.53
1631290393203,32.21
1631290393218,30.93
1631290393234,29.98
1631290393250,29.66
1631290393265,30.33
1631290393281,32.33
1631290393296,35.89
1631290393312,40.87
1631290393328,46.78
1631290393343,52.74
1631290393359,57.74
1631290393375,60.89
1631290393390,61.65
1631290393406,59.82
1631290393421,55.59
1631290393437,49.31
1631290393453,41.53
1631290393468,32.81
1631290393484,23.82
1631290393500,15.27
1631290393515,7.77
1631290393531,1.77
1631290393546,-2.65
1631290393562,-5.77
1631290393578,-8.19
1631290393593,-10.61
1631290393609,-13.61
1631290393625,-17.47
1631290393640,-22.08
1631290393656,-27.07
1631290393671,-31.93
1631290393687,-36.22
1631290393703,-39.7
1631290393718,-42.39
1631290393734,-44.58
1631290393750,-46.77
1631290393765,-49.5
1631290393781,-53.26
1631290393796,-58.18
1631290393812,-63.9
1631290393828,-69.44
1631290393843,-73.39
1631290393859,-74.26
1631290393875,-70.95
1631290393890,-63.18
1631290393906,-51.62
1631290393921,-37.71
1631290393937,-23.14
1631290393953,-9.44
1631290393968,2.43
1631290393984,12.07
1631290394000,19.48
1631290394015,24.87
1631290394031,28.41
1631290394046,30.31
1631290394062,30.85
1631290394078,30.54
1631290394093,30.01
1631290394109,29.89
1631290394125,30.59
1631290394140,32.15
1631290394156,34.28
1631290394171,36.52
1631290394187,38.49
1631290394203,40.04
1631290394218,41.26
1631290394234,42.36
1631290394250,43.49
1631290394265,44.68
1631290394281,45.76
1631290394296,46.51
1631290394312,46.72
1631290394328,46.26
1631290394343,45.12
1631290394359,43.42
1631290394375,41.42
1631290394390,39.46
1631290394406,37.91
1631290394421,37.01
1631290394437,36.75
1631290394453,36.89
1631290394468,37.05
1631290394484,36.91
1631290394500,36.34
1631290394515,35.5
1631290394531,34.75
1631290394546,34.51
1631290394562,35.1
1631290394578,36.66
1631290394593,38.93
1631290394609,41.26
1631290394625,42.45
1631290394640,41.0
1631290394656,35.49
1631290394671,25.25
1631290394687,10.85
1631290394703,-5.75
1631290394718,-21.63
1631290394734,-33.78
1631290394750,-39.98
1631290394765,-39.41
1631290394781,-32.66
1631290394796,-21.32
1631290394812,-7.31
1631290394828,7.61
1631290394843,22.05
1631290394859,35.06
1631290394875,46.12
1631290394890,55.24
1631290394906,62.97
1631290394921,70.39
1631290394937,78.65
1631290394953,88.56
1631290394968,100.18
1631290394984,112.81
1631290395000,125.31
1631290395015,136.44
1631290395031,145.22
1631290395046,151.08
1631290395062,153.65
1631290395078,152.6
1631290395093,147.5
1631290395109,137.75
1631290395125,122.72
1631290395140,101.8
1631290395156,74.66
1631290395171,41.74
1631290395187,4.63
1631290395203,-33.74
1631290395218,-69.59
1631290395234,-99.34
1631290395250,-120.82
1631290395265,-134.17
1631290395281,-141.59
1631290395296,-146.31
1631290395312,-151.12
1631290395328,-157.2
1631290395343,-163.85
1631290395359,-169.22
1631290395375,-171.29
1631290395390,-168.81
1631290395406,-161.65
1631290395421,-150.56
1631290395437,-136.69
1631290395453,-121.22
1631290395468,-105.21
1631290395484,-89.61
1631290395500,-75.31
1631290395515,-63.07
1631290395531,-53.43
1631290395546,-46.51
1631290395562,-41.84
1631290395578,-38.33
1631290395593,-34.5
1631290395609,-28.78
1631290395625,-20.03
1631290395640,-7.9
1631290395656,6.99
1631290395671,23.2
1631290395687,39.0
1631290395703,52.79
1631290395718,63.47
1631290395734,70.58
1631290395750,74.13
1631290395765,74.35
1631290395781,71.47
1631290395796,65.66
1631290395812,57.11
1631290395828,46.2
1631290395843,33.68
1631290395859,20.65
1631290395875,8.41
1631290395890,-1.85
1631290395906,-9.28
1631290395921,-13.64
1631290395937,-15.25
1631290395953,-14.85
1631290395968,-13.26
1631290395984,-11.14
1631290396000,-8.92
1631290396015,-6.82
1631290396031,-5.04
1631290396046,-3.8
1631290396062,-3.29
1631290396078,-3.57
1631290396093,-4.48
1631290396109,-5.66
1631290396125,-6.83
1631290396140,-8.05
1631290396156,-9.81
1631290396171,-12.89
1631290396187,-17.92
1631290396203,-24.92
1631290396218,-33.12
1631290396234,-41.2
1631290396250,-47.78
1631290396265,-52.04
1631290396281,-54.0
1631290396296,-54.44
1631290396312,-54.45
1631290396328,-54.85
1631290396343,-55.78
1631290396359,-56.66
1631290396375,-56.43
1631290396390,-54.05
1631290396406,-48.8
1631290396421,-40.58
1631290396437,-29.82
1631290396453,-17.32
1631290396468,-3.99
1631290396484,9.28
1631290396500,21.76
1631290396515,32.85
1631290396531,42.12
1631290396546,49.32
1631290396562,54.41
1631290396578,57.6
1631290396593,59.38
1631290396609,60.31
1631290396625,60.93
1631290396640,61.56
1631290396656,62.22
1631290396671,62.62
1631290396687,62.33
1631290396703,60.96
1631290396718,58.35
1631290396734,54.63
1631290396750,50.25
1631290396765,45.74
1631290396781,41.68
1631290396796,38.41
1631290396812,36.06
1631290396828,34.5
1631290396843,33.51
1631290396859,32.89
1631290396875,32.52
1631290396890,32.38
1631290396906,32.44
1631290396921,32.52
1631290396937,32.27
1631290396953,31.25
1631290396968,29.17
1631290396984,26.02
1631290397000,22.16
1631290397015,18.19
1631290397031,14.62
1631290397046,11.57
1631290397062,8.6
1631290397078,4.81
1631290397093,-0.88
1631290397109,-9.41
1631290397125,-21.21
1631290397140,-36.1
1631290397156,-53.2
1631290397171,-71.13
1631290397187,-88.15
1631290397203,-102.57
1631290397218,-113.02
1631290397234,-118.77
1631290397250,-119.81
1631290397265,-116.91
1631290397281,-111.27
1631290397296,-104.3
1631290397312,-97.22
1631290397328,-90.79
1631290397343,-85.21
1631290397359,-80.21
1631290397375,-75.3
1631290397390,-70.14
1631290397406,-64.78
1631290397421,-59.62
1631290397437,-55.36
1631290397453,-52.52
1631290397468,-51.22
1631290397484,-51.06
1631290397500,-51.29
1631290397515,-51.1
1631290397531,-49.9
1631290397546,-47.45
1631290397562,-43.76
1631290397578,-38.94
1631290397593,-33.06
1631290397609,-26.17
1631290397625,-18.43
1631290397640,-10.24
1631290397656,-2.22
1631290397671,4.9
1631290397687,10.52
1631290397703,14.36
1631290397718,16.64
1631290397734,17.9
1631290397750,18.87
1631290397765,20.13
1631290397781,21.97
1631290397796,24.36
1631290397812,27.06
1631290397828,29.74
1631290397843,32.21
1631290397859,34.39
1631290397875,36.25
1631290397890,37.79
1631290397906,38.86
1631290397921,39.3
1631290397937,38.95
1631290397953,37.74
1631290397968,35.61
1631290397984,32.49
1631290398000,28.27
1631290398015,22.81
1631290398031,16.2
1631290398046,8.78
1631290398062,1.16
1631290398078,-5.99
1631290398093,-12.25
1631290398109,-17.7
1631290398125,-22.84
1631290398140,-28.49
1631290398156,-35.26
1631290398171,-43.3
1631290398187,-52.08
1631290398203,-60.53
1631290398218,-67.32
1631290398234,-71.14
1631290398250,-71.0
1631290398265,-66.46
1631290398281,-57.63
1631290398296,-45.24
1631290398312,-30.49
1631290398328,-14.92
1631290398343,-0.12
1631290398359,12.49
1631290398375,21.98
1631290398390,27.96
1631290398406,30.63
1631290398421,30.56
1631290398437,28.52
1631290398453,25.21
1631290398468,21.15
1631290398484,16.68
1631290398500,12.0
1631290398515,7.19
1631290398531,2.35
1631290398546,-2.42
1631290398562,-7.03
1631290398578,-11.41
1631290398593,-15.57
1631290398609,-19.67
1631290398625,-24.01
1631290398640,-28.96
1631290398656,-34.82
1631290398671,-41.62
1631290398687,-48.88
1631290398703,-55.7
1631290398718,-60.87
1631290398734,-63.25
1631290398750,-62.06
1631290398765,-57.16
1631290398781,-49.11
1631290398796,-38.97
1631290398812,-28.07
1631290398828,-17.66
1631290398843,-8.68
1631290398859,-1.6
1631290398875,3.54
1631290398890,6.98
1631290398906,9.09
1631290398921,10.21
1631290398937,10.62
1631290398953,10.59
1631290398968,10.38
1631290398984,10.32
1631290399000,10.67
1631290399015,11.54
1631290399031,12.82
1631290399046,14.19
1631290399062,15.29
1631290399078,15.85
1631290399093,15.84
1631290399109,15.4
1631290399125,14.76
1631290399140,14.1
1631290399156,13.45
1631290399171,12.74
1631290399187,11.88
1631290399203,10.75
1631290399218,9.26
1631290399234,7.31
1631290399250,4.79
1631290399265,1.61
1631290399281,-2.23
1631290399296,-6.54
1631290399312,-10.99
1631290399328,-15.18
1631290399343,-18.83
1631290399359,-21.83
1631290399375,-24.36
1631290399390,-26.81
1631290399406,-29.63
1631290399421,-33.17
1631290399437,-37.45
1631290399453,-42.14
1631290399468,-46.47
1631290399484,-49.41
1631290399500,-49.85
1631290399515,-46.99
1631290399531,-40.6
1631290399546,-31.11
1631290399562,-19.56
1631290399578,-7.32
1631290399593,4.32
1631290399609,14.42
1631290399625,22.52
1631290399640,28.62
1631290399656,32.95
1631290399671,35.76
1631290399687,37.24
1631290399703,37.55
1631290399718,36.89
1631290399734,35.63
1631290399750,34.22
1631290399765,33.09
1631290399781,32.55
1631290399796,32.65
1631290399812,33.26
1631290399828,34.12
1631290399843,34.93
1631290399859,35.43
1631290399875,35.44
1631290399890,34.86
1631290399906,33.7
1631290399921,31.99
1631290399937,29.82
1631290399953,27.23
1631290399968,24.28
1631290399984,20.99
1631290400000,17.37
1631290400015,13.46
1631290400031,9.32
1631290400046,5.08
1631290400062,0.87
1631290400078,-3.19
1631290400093,-6.95
1631290400109,-10.32
1631290400125,-13.31
1631290400140,-16.1
1631290400156,-19.03
1631290400171,-22.56
1631290400187,-27.08
1631290400203,-32.62
1631290400218,-38.7
1631290400234,-44.31
1631290400250,-48.1
1631290400265,-48.85
1631290400281,-45.85
1631290400296,-39.16
1631290400312,-29.56
1631290400328,-18.27
1631290400343,-6.58
1631290400359,4.41
1631290400375,13.98
1631290400390,21.68
1631290400406,27.31
1631290400421,30.82
1631290400437,32.28
1631290400453,31.96
1631290400468,30.35
1631290400484,28.03
1631290400500,25.65
1631290400515,23.73
1631290400531,22.57
1631290400546,22.23
1631290400562,22.51
1631290400578,23.14
1631290400593,23.85
1631290400609,24.45
1631290400625,24.86
1631290400640,25.03
1631290400656,24.96
1631290400671,24.54
1631290400687,23.68
1631290400703,22.26
1631290400718,20.22
1631290400734,17.59
1631290400750,14.44
1631290400765,10.89
1631290400781,7.09
1631290400796,3.22
1631290400812,-0.51
1631290400828,-3.92
1631290400843,-6.91
1631290400859,-9.49
1631290400875,-11.84
1631290400890,-14.23
1631290400906,-17.01
1631290400921,-20.44
1631290400937,-24.66
1631290400953,-29.52
1631290400968,-34.52
1631290400984,-38.82
1631290401000,-41.4
1631290401015,-41.3
1631290401031,-37.92
1631290401046,-31.22
1631290401062,-21.84
1631290401078,-10.85
1631290401093,0.47
1631290401109,10.96
1631290401125,19.81
1631290401140,26.5
1631290401156,30.83
1631290401171,32.77
1631290401187,32.51
1631290401203,30.46
1631290401218,27.24
1631290401234,23.6
1631290401250,20.31
1631290401265,17.96
1631290401281,16.83
1631290401296,16.87
1631290401312,17.74
1631290401328,18.99
1631290401343,20.12
1631290401359,20.79
1631290401375,20.8
1631290401390,20.17
1631290401406,19.02
1631290401421,17.55
1631290401437,15.91
1631290401453,14.08
1631290401468,11.92
1631290401484,9.24
1631290401500,5.91
1631290401515,1.94
1631290401531,-2.49
1631290401546,-7.05
1631290401562,-11.43
1631290401578,-15.33
1631290401593,-18.63
1631290401609,-21.39
1631290401625,-23.81
1631290401640,-26.25
1631290401656,-29.09
1631290401671,-32.62
1631290401687,-36.82
1631290401703,-41.31
1631290401718,-45.24
1631290401734,-47.54
1631290401750,-47.19
1631290401765,-43.56
1631290401781,-36.65
1631290401796,-27.04
1631290401812,-15.86
1631290401828,-4.35
1631290401843,6.36
1631290401859,15.45
1631290401875,22.52
1631290401890,27.45
1631290401906,30.36
1631290401921,31.47
1631290401937,31.09
1631290401953,29.63
1631290401968,27.59
1631290401984,25.49
1631290402000,23.79
1631290402015,22.77
1631290402031,22.53
1631290402046,22.96
1631290402062,23.84
1631290402078,24.89
1631290402093,25.8
1631290402109,26.33
1631290402125,26.25
1631290402140,25.45
1631290402156,23.93
1631290402171,21.8
1631290402187,19.26
1631290402203,16.42
1631290402218,13.35
1631290402234,10.02
1631290402250,6.42
1631290402265,2.55
1631290402281,-1.46
1631290402296,-5.46
1631290402312,-9.26
1631290402328,-12.8
1631290402343,-16.05
1631290402359,-19.11
1631290402375,-22.12
1631290402390,-25.25
1631290402406,-28.75
1631290402421,-32.84
1631290402437,-37.69
1631290402453,-43.27
1631290402468,-49.24
1631290402484,-54.86
1631290402500,-59.07
1631290402515,-60.69
1631290402531,-58.75
1631290402546,-52.82
1631290402562,-43.22
1631290402578,-31.01
1631290402593,-17.69
1631290402609,-4.79
1631290402625,6.51
1631290402640,15.6
1631290402656,22.4
1631290402671,27.14
1631290402687,30.18
1631290402703,31.82
1631290402718,32.35
1631290402734,32.1
1631290402750,31.42
1631290402765,30.73
1631290402781,30.34
1631290402796,30.35
1631290402812,30.68
1631290402828,31.13
1631290402843,31.5
1631290402859,31.73
1631290402875,31.84
1631290402890,31.85
1631290402906,31.76
1631290402921,31.45
1631290402937,30.73
1631290402953,29.46
1631290402968,27.55
1631290402984,25.04
1631290403000,22.02
1631290403015,18.56
1631290403031,14.66
1631290403046,10.29
1631290403062,5.53
1631290403078,0.57
1631290403093,-4.24
1631290403109,-8.54
1631290403125,-12.13
1631290403140,-15.05
1631290403156,-17.58
1631290403171,-20.17
1631290403187,-23.2
1631290403203,-26.93
1631290403218,-31.45
1631290403234,-36.68
1631290403250,-42.38
1631290403265,-48.0
1631290403281,-52.71
1631290403296,-55.38
1631290403312,-54.89
1631290403328,-50.48
1631290403343,-42.15
1631290403359,-30.75
1631290403375,-17.77
1631290403390,-4.82
1631290403406,6.78
1631290403421,16.33
1631290403437,23.7
1631290403453,29.1
1631290403468,32.85
1631290403484,35.18
1631290403500,36.3
1631290403515,36.44
1631290403531,35.98
1631290403546,35.33
1631290403562,34.93
1631290403578,34.96
1631290403593,35.38
1631290403609,36.01
1631290403625,36.66
1631290403640,37.23
1631290403656,37.79
1631290403671,38.43
1631290403687,39.12
1631290403703,39.64
1631290403718,39.61
1631290403734,38.67
1631290403750,36.64
1631290403765,33.6
1631290403781,29.84
1631290403796,25.78
1631290403812,21.83
1631290403828,18.22
1631290403843,15.04
1631290403859,12.16
1631290403875,9.35
1631290403890,6.37
1631290403906,3.05
1631290403921,-0.64
1631290403937,-4.57
1631290403953,-8.55
1631290403968,-12.38
1631290403984,-16.0
1631290404000,-19.42
1631290404015,-22.81
1631290404031,-26.43
1631290404046,-30.52
1631290404062,-35.25
1631290404078,-40.53
1631290404093,-45.87
1631290404109,-50.41
1631290404125,-53.0
1631290404140,-52.56
1631290404156,-48.44
1631290404171,-40.74
1631290404187,-30.28
1631290404203,-18.38
1631290404218,-6.44
1631290404234,4.37
1631290404250,13.33
1631290404265,20.15
1631290404281,24.78
1631290404296,27.36
1631290404312,28.15
1631290404328,27.57
1631290404343,26.18
1631290404359,24.63
1631290404375,23.48
1631290404390,23.07
1631290404406,23.43
1631290404421,24.34
1631290404437,25.45
1631290404453,26.42
1631290404468,27.07
1631290404484,27.33
1631290404500,27.23
1631290404515,26.78
1631290404531,25.95
1631290404546,24.67
1631290404562,22.83
1631290404578,20.39
1631290404593,17.42
1631290404609,14.08
1631290404625,10.64
1631290404640,7.32
1631290404656,4.29
1631290404671,1.54
1631290404687,-1.05
1631290404703,-3.69
1631290404718,-6.53
1631290404734,-9.63
1631290404750,-12.85
1631290404765,-15.99
1631290404781,-18.81
1631290404796,-21.2
1631290404812,-23.18
1631290404828,-24.96
1631290404843,-26.87
1631290404859,-29.31
1631290404875,-32.62
1631290404890,-36.96
1631290404906,-42.15
1631290404921,-47.54
1631290404937,-52.04
1631290404953,-54.28
1631290404968,-53.11
1631290404984,-47.91
1631290405000,-38.96
1631290405015,-27.37
1631290405031,-14.69
1631290405046,-2.48
1631290405062,8.18
1631290405078,16.77
1631290405093,23.25
1631290405109,27.75
1631290405125,30.43
1631290405140,31.39
1631290405156,30.81
1631290405171,29.1
1631290405187,26.89
1631290405203,24.84
1631290405218,23.49
1631290405234,23.06
1631290405250,23.45
1631290405265,24.32
1631290405281,25.25
1631290405296,25.95
1631290405312,26.22
1631290405328,26.08
1631290405343,25.6
1631290405359,24.9
1631290405375,23.99
1631290405390,22.79
1631290405406,21.14
1631290405421,18.87
1631290405437,16.0
1631290405453,12.72
1631290405468,9.37
1631290405484,6.31
1631290405500,3.75
1631290405515,1.64
1631290405531,-0.23
1631290405546,-2.15
1631290405562,-4.35
1631290405578,-6.92
1631290405593,-9.82
1631290405609,-12.98
1631290405625,-16.28
1631290405640,-19.57
1631290405656,-22.73
1631290405671,-25.66
1631290405687,-28.32
1631290405703,-30.83
1631290405718,-33.43
1631290405734,-36.47
1631290405750,-40.19
1631290405765,-44.65
1631290405781,-49.53
1631290405796,-54.12
1631290405812,-57.41
1631290405828,-58.27
1631290405843,-55.81
1631290405859,-49.63
1631290405875,-40.07
1631290405890,-28.17
1631290405906,-15.33
1631290405921,-2.96
1631290405937,7.88
1631290405953,16.66
1631290405968,23.25
1631290405984,27.8
1631290406000,30.47
1631290406015,31.44
1631290406031,30.96
1631290406046,29.45
1631290406062,27.45
1631290406078,25.54
1631290406093,24.25
1631290406109,23.83
1631290406125,24.31
1631290406140,25.44
1631290406156,26.91
1631290406171,28.34
1631290406187,29.44
1631290406203,30.01
1631290406218,30.0
1631290406234,29.46
1631290406250,28.51
1631290406265,27.28
1631290406281,25.84
1631290406296,24.21
1631290406312,22.35
1631290406328,20.19
1631290406343,17.65
1631290406359,14.69
1631290406375,11.38
1631290406390,7.91
1631290406406,4.51
1631290406421,1.37
1631290406437,-1.47
1631290406453,-4.11
1631290406468,-6.74
1631290406484,-9.46
1631290406500,-12.29
1631290406515,-15.1
1631290406531,-17.77
1631290406546,-20.26
1631290406562,-22.65
1631290406578,-25.13
1631290406593,-27.94
1631290406609,-31.29
1631290406625,-35.32
1631290406640,-40.09
1631290406656,-45.44
1631290406671,-50.92
1631290406687,-55.72
1631290406703,-58.8
1631290406718,-59.11
1631290406734,-55.89
1631290406750,-49.01
1631290406765,-38.99
1631290406781,-26.88
1631290406796,-14.05
1631290406812,-1.77
1631290406828,9.0
1631290406843,17.7
1631290406859,24.15
1631290406875,28.41
1631290406890,30.71
1631290406906,31.3
1631290406921,30.59
1631290406937,29.06
1631290406953,27.32
1631290406968,25.86
1631290406984,25.04
1631290407000,24.89
1631290407015,25.2
1631290407031,25.65
1631290407046,25.96
1631290407062,26.03
1631290407078,25.92
1631290407093,25.74
1631290407109,25.55
1631290407125,25.25
1631290407140,24.67
1631290407156,23.62
1631290407171,22.03
1631290407187,19.92
1631290407203,17.4
1631290407218,14.63
1631290407234,11.76
1631290407250,8.92
1631290407265,6.24
1631290407281,3.78
1631290407296,1.56
1631290407312,-0.5
1631290407328,-2.52
1631290407343,-4.64
1631290407359,-6.94
1631290407375,-9.41
1631290407390,-11.93
1631290407406,-14.3
1631290407421,-16.36
1631290407437,-18.04
1631290407453,-19.42
1631290407468,-20.76
1631290407484,-22.43
1631290407500,-24.82
1631290407515,-28.19
1631290407531,-32.54
1631290407546,-37.54
1631290407562,-42.51
1631290407578,-46.51
1631290407593,-48.48
1631290407609,-47.56
1631290407625,-43.31
1631290407640,-35.89
1631290407656,-26.05
1631290407671,-14.97
1631290407687,-3.89
1631290407703,6.11
1631290407718,14.34
1631290407734,20.47
1631290407750,24.43
1631290407765,26.25
1631290407781,26.15
1631290407796,24.47
1631290407812,21.77
1631290407828,18.73
1631290407843,16.02
1631290407859,14.12
1631290407875,13.23
1631290407890,13.28
1631290407906,14.03
1631290407921,15.22
1631290407937,16.56
1631290407953,17.87
1631290407968,19.02
1631290407984,19.96
1631290408000,20.62
1631290408015,20.93
1631290408031,20.78
1631290408046,19.95
1631290408062,18.3
1631290408078,15.81
1631290408093,12.7
1631290408109,9.37
1631290408125,6.31
1631290408140,3.82
1631290408156,1.92
1631290408171,0.38
1631290408187,-1.19
1631290408203,-3.12
1631290408218,-5.56
1631290408234,-8.47
1631290408250,-11.68
1631290408265,-14.95
1631290408281,-18.09
1631290408296,-20.97
1631290408312,-23.6
1631290408328,-26.1
1631290408343,-28.7
1631290408359,-31.7
1631290408375,-35.39
1631290408390,-39.84
1631290408406,-44.81
1631290408421,-49.6
1631290408437,-53.12
1631290408453,-54.2
1631290408468,-51.9
1631290408484,-45.88
1631290408500,-36.58
1631290408515,-25.1
1631290408531,-12.85
1631290408546,-1.17
1631290408562,8.95
1631290408578,16.99
1631290408593,22.82
1631290408609,26.47
1631290408625,28.12
1631290408640,28.03
1631290408656,26.55
1631290408671,24.18
1631290408687,21.51
1631290408703,19.13
1631290408718,17.55
1631290408734,17.04
1631290408750,17.57
1631290408765,18.87
1631290408781,20.49
1631290408796,22.01
1631290408812,23.11
1631290408828,23.75
1631290408843,24.04
1631290408859,24.17
1631290408875,24.18
1631290408890,23.98
1631290408906,23.3
1631290408921,21.86
1631290408937,19.56
1631290408953,16.49
1631290408968,12.96
1631290408984,9.41
1631290409000,6.19
1631290409015,3.45
1631290409031,1.04
1631290409046,-1.37
1631290409062,-4.16
1631290409078,-7.56
1631290409093,-11.51
1631290409109,-15.7
1631290409125,-19.69
1631290409140,-23.16
1631290409156,-26.03
1631290409171,-28.46
1631290409187,-30.85
1631290409203,-33.57
1631290409218,-36.94
1631290409234,-41.1
1631290409250,-46.02
1631290409265,-51.4
1631290409281,-56.59
1631290409296,-60.67
1631290409312,-62.51
1631290409328,-61.1
1631290409343,-55.85
1631290409359,-46.89
1631290409375,-35.06
1631290409390,-21.77
1631290409406,-8.5
1631290409421,3.46
1631290409437,13.37
1631290409453,20.99
1631290409468,26.47
1631290409484,30.15
1631290409500,32.32
1631290409515,33.13
1631290409531,32.7
1631290409546,31.22
1631290409562,29.06
1631290409578,26.77
1631290409593,24.94
1631290409609,24.03
1631290409625,24.16
1631290409640,25.09
1631290409656,26.38
1631290409671,27.55
1631290409687,28.29
1631290409703,28.55
1631290409718,28.45
1631290409734,28.1
1631290409750,27.53
1631290409765,26.53
1631290409781,24.88
1631290409796,22.42
1631290409812,19.28
1631290409828,15.84
1631290409843,12.6
1631290409859,9.99
1631290409875,8.14
1631290409890,6.78
1631290409906,5.39
1631290409921,3.41
1631290409937,0.5
1631290409953,-3.27
1631290409968,-7.55
1631290409984,-11.8
1631290410000,-15.62
1631290410015,-18.84
1631290410031,-21.56
1631290410046,-24.09
1631290410062,-26.73
1631290410078,-29.79
1631290410093,-33.48
1631290410109,-37.93
1631290410125,-43.09
1631290410140,-48.63
1631290410156,-53.8
1631290410171,-57.52
1631290410187,-58.58
1631290410203,-56.05
1631290410218,-49.6
1631290410234,-39.74
1631290410250,-27.64
1631290410265,-14.82
1631290410281,-2.68
1631290410296,7.79
1631290410312,16.16
1631290410328,22.39
1631290410343,26.62
1631290410359,28.95
1631290410375,29.54
1631290410390,28.6
1631290410406,26.59
1631290410421,24.17
1631290410437,22.11
1631290410453,20.99
1631290410468,21.02
1631290410484,22.02
1631290410500,23.53
1631290410515,25.13
1631290410531,26.57
1631290410546,27.84
1631290410562,29.04
1631290410578,30.13
1631290410593,30.92
1631290410609,31.06
1631290410625,30.21
1631290410640,28.22
1631290410656,25.21
1631290410671,21.51
1631290410687,17.58
1631290410703,13.8
1631290410718,10.41
1631290410734,7.5
1631290410750,4.93
1631290410765,2.48
1631290410781,-0.12
1631290410796,-3.04
1631290410812,-6.3
1631290410828,-9.71
1631290410843,-12.94
1631290410859,-15.7
1631290410875,-17.84
1631290410890,-19.49
1631290410906,-21.09
1631290410921,-23.21
1631290410937,-26.38
1631290410953,-30.88
1631290410968,-36.51
1631290410984,-42.51
1631290411000,-47.73
1631290411015,-50.87
1631290411031,-50.83
1631290411046,-47.09
1631290411062,-39.78
1631290411078,-29.69
1631290411093,-17.96
1631290411109,-5.87
1631290411125,5.45
1631290411140,15.1
1631290411156,22.52
1631290411171,27.44
1631290411187,29.9
1631290411203,30.24
1631290411218,29.0
1631290411234,26.85
1631290411250,24.44
1631290411265,22.31
1631290411281,20.83
1631290411296,20.15
1631290411312,20.19
1631290411328,20.76
1631290411343,21.6
1631290411359,22.49
1631290411375,23.31
1631290411390,24.01
1631290411406,24.54
1631290411421,24.81
1631290411437,24.63
1631290411453,23.8
1631290411468,22.16
1631290411484,19.72
1631290411500,16.72
1631290411515,13.47
1631290411531,10.35
1631290411546,7.59
1631290411562,5.24
1631290411578,3.16
1631290411593,1.1
1631290411609,-1.2
1631290411625,-3.96
1631290411640,-7.27
1631290411656,-11.07
1631290411671,-15.12
1631290411687,-19.14
1631290411703,-22.82
1631290411718,-26.01
1631290411734,-28.77
1631290411750,-31.45
1631290411765,-34.6
1631290411781,-38.75
1631290411796,-44.16
1631290411812,-50.57
1631290411828,-57.09
1631290411843,-62.38
1631290411859,-64.94
1631290411875,-63.65
1631290411890,-58.05
1631290411906,-48.56
1631290411921,-36.32
1631290411937,-22.84
1631290411953,-9.61
1631290411968,2.29
1631290411984,12.21
1631290412000,19.95
1631290412015,25.57
1631290412031,29.22
1631290412046,31.09
1631290412062,31.46
1631290412078,30.7
1631290412093,29.37
1631290412109,28.08
1631290412125,27.32
1631290412140,27.39
1631290412156,28.26
1631290412171,29.68
1631290412187,31.27
1631290412203,32.75
1631290412218,33.99
1631290412234,34.96
1631290412250,35.65
1631290412265,35.98
1631290412281,35.82
1631290412296,34.98
1631290412312,33.33
1631290412328,30.87
1631290412343,27.77
1631290412359,24.27
1631290412375,20.64
1631290412390,17.07
1631290412406,13.67
1631290412421,10.4
1631290412437,7.16
1631290412453,3.82
1631290412468,0.29
1631290412484,-3.42
1631290412500,-7.24
1631290412515,-10.99
1631290412531,-14.52
1631290412546,-17.78
1631290412562,-20.82
1631290412578,-23.84
1631290412593,-27.13
1631290412609,-31.04
1631290412625,-35.84
1631290412640,-41.66
1631290412656,-48.25
1631290412671,-54.92
1631290412687,-60.54
1631290412703,-63.76
1631290412718,-63.37
1631290412734,-58.75
1631290412750,-50.11
1631290412765,-38.5
1631290412781,-25.44
1631290412796,-12.46
1631290412812,-0.72
1631290412828,9.21
1631290412843,17.2
1631290412859,23.34
1631290412875,27.76
1631290412890,30.53
1631290412906,31.76
1631290412921,31.72
1631290412937,30.9
1631290412953,29.86
1631290412968,29.16
1631290412984,29.17
1631290413000,29.96
1631290413015,31.39
1631290413031,33.16
1631290413046,34.96
1631290413062,36.55
1631290413078,37.79
1631290413093,38.62
1631290413109,38.98
1631290413125,38.88
1631290413140,38.27
1631290413156,37.13
1631290413171,35.46
1631290413187,33.28
1631290413203,30.65
1631290413218,27.66
1631290413234,24.44
1631290413250,21.09
1631290413265,17.67
1631290413281,14.18
1631290413296,10.55
1631290413312,6.71
1631290413328,2.61
1631290413343,-1.7
1631290413359,-6.08
1631290413375,-10.34
1631290413390,-14.28
1631290413406,-17.84
1631290413421,-21.07
1631290413437,-24.22
1631290413453,-27.6
1631290413468,-31.56
1631290413484,-36.36
1631290413500,-42.1
1631290413515,-48.54
1631290413531,-55.05
1631290413546,-60.61
1631290413562,-63.9
1631290413578,-63.7
1631290413593,-59.23
1631290413609,-50.52
1631290413625,-38.47
1631290413640,-24.63
1631290413656,-10.72
1631290413671,1.83
1631290413687,12.2
1631290413703,20.14
1631290413718,25.81
1631290413734,29.49
1631290413750,31.43
1631290413765,31.91
1631290413781,31.28
1631290413796,30.05
1631290413812,28.78
1631290413828,27.97
1631290413843,27.87
1631290413859,28.4
1631290413875,29.27
1631290413890,30.15
1631290413906,30.78
1631290413921,31.12
1631290413937,31.23
1631290413953,31.21
1631290413968,31.12
1631290413984,30.85
1631290414000,30.21
1631290414015,28.96
1631290414031,26.94
1631290414046,24.13
1631290414062,20.72
1631290414078,17.09
1631290414093,13.65
1631290414109,10.71
1631290414125,8.25
1631290414140,6.03
1631290414156,3.65
1631290414171,0.81
1631290414187,-2.58
1631290414203,-6.31
1631290414218,-10.05
1631290414234,-13.51
1631290414250,-16.6
1631290414265,-19.45
1631290414281,-22.32
1631290414296,-25.49
1631290414312,-29.19
1631290414328,-33.54
1631290414343,-38.58
1631290414359,-44.13
1631290414375,-49.71
1631290414390,-54.43
1631290414406,-57.1
1631290414421,-56.56
1631290414437,-52.08
1631290414453,-43.71
1631290414468,-32.39
1631290414484,-19.59
1631290414500,-6.98
1631290414515,4.11
1631290414531,12.99
1631290414546,19.55
1631290414562,24.06
1631290414578,26.95
1631290414593,28.52
1631290414609,28.97
1631290414625,28.48
1631290414640,27.32
1631290414656,25.94
1631290414671,24.86
1631290414687,24.51
1631290414703,25.06
1631290414718,26.38
1631290414734,28.08
1631290414750,29.72
1631290414765,30.92
1631290414781,31.53
1631290414796,31.6
1631290414812,31.31
1631290414828,30.77
1631290414843,29.99
1631290414859,28.85
1631290414875,27.17
1631290414890,24.82
1631290414906,21.83
1631290414921,18.35
1631290414937,14.67
1631290414953,11.09
1631290414968,7.81
1631290414984,4.9
1631290415000,2.24
1631290415015,-0.4
1631290415031,-3.27
1631290415046,-6.55
1631290415062,-10.24
1631290415078,-14.14
1631290415093,-17.96
1631290415109,-21.38
1631290415125,-24.3
1631290415140,-26.85
1631290415156,-29.47
1631290415171,-32.69
1631290415187,-36.99
1631290415203,-42.6
1631290415218,-49.33
1631290415234,-56.56
1631290415250,-63.26
1631290415265,-68.13
1631290415281,-69.91
1631290415296,-67.69
1631290415312,-61.23
1631290415328,-51.06
1631290415343,-38.4
1631290415359,-24.81
1631290415375,-11.75
1631290415390,-0.26
1631290415406,9.21
1631290415421,16.66
1631290415437,22.38
1631290415453,26.66
1631290415468,29.77
1631290415484,31.87
1631290415500,33.16
1631290415515,33.84
1631290415531,34.2
1631290415546,34.49
1631290415562,34.89
1631290415578,35.49
1631290415593,36.32
1631290415609,37.29
1631290415625,38.32
1631290415640,39.29
1631290415656,40.09
1631290415671,40.6
1631290415687,40.71
1631290415703,40.34
1631290415718,39.45
1631290415734,37.96
1631290415750,35.86
1631290415765,33.14
1631290415781,29.81
1631290415796,25.99
1631290415812,21.87
1631290415828,17.68
1631290415843,13.66
1631290415859,9.99
1631290415875,6.73
1631290415890,3.79
1631290415906,1.02
1631290415921,-1.84
1631290415937,-4.95
1631290415953,-8.41
1631290415968,-12.16
1631290415984,-16.02
1631290416000,-19.79
1631290416015,-23.32
1631290416031,-26.54
1631290416046,-29.58
1631290416062,-32.67
1631290416078,-36.13
1631290416093,-40.29
1631290416109,-45.34
1631290416125,-51.19
1631290416140,-57.41
1631290416156,-63.12
1631290416171,-67.17
1631290416187,-68.34
1631290416203,-65.73
1631290416218,-59.1
1631290416234,-48.97
1631290416250,-36.53
1631290416265,-23.28
1631290416281,-10.64
1631290416296,0.45
1631290416312,9.59
1631290416328,16.84
1631290416343,22.47
1631290416359,26.77
1631290416375,29.92
1631290416390,31.99
1631290416406,33.1
1631290416421,33.47
1631290416437,33.45
1631290416453,33.46
1631290416468,33.81
1631290416484,34.64
1631290416500,35.89
1631290416515,37.31
1631290416531,38.65
1631290416546,39.71
1631290416562,40.4
1631290416578,40.72
1631290416593,40.7
1631290416609,40.33
1631290416625,39.55
1631290416640,38.32
1631290416656,36.58
1631290416671,34.31
1631290416687,31.56
1631290416703,28.36
1631290416718,24.79
1631290416734,21.0
1631290416750,17.16
1631290416765,13.47
1631290416781,10.06
1631290416796,7.0
1631290416812,4.21
1631290416828,1.55
1631290416843,-1.12
1631290416859,-3.92
1631290416875,-6.9
1631290416890,-10.06
1631290416906,-13.37
1631290416921,-16.84
1631290416937,-20.38
1631290416953,-23.89
1631290416968,-27.28
1631290416984,-30.55
1631290417000,-33.9
1631290417015,-37.73
1631290417031,-42.45
1631290417046,-48.21
1631290417062,-54.66
1631290417078,-60.79
1631290417093,-65.16
1631290417109,-66.33
1631290417125,-63.37
1631290417140,-56.13
1631290417156,-45.33
1631290417171,-32.29
1631290417187,-18.52
1631290417203,-5.41
1631290417218,6.02
1631290417234,15.21
1631290417250,21.96
1631290417265,26.39
1631290417281,28.82
1631290417296,29.75
1631290417312,29.7
1631290417328,29.19
1631290417343,28.6
1631290417359,28.2
1631290417375,28.14
1631290417390,28.41
1631290417406,29.02
1631290417421,29.86
1631290417437,30.82
1631290417453,31.79
1631290417468,32.67
1631290417484,33.39
1631290417500,33.83
1631290417515,33.9
1631290417531,33.5
1631290417546,32.57
1631290417562,31.17
1631290417578,29.37
1631290417593,27.26
1631290417609,24.86
1631290417625,22.15
1631290417640,19.08
1631290417656,15.69
1631290417671,12.13
1631290417687,8.61
1631290417703,5.35
1631290417718,2.41
1631290417734,-0.31
1631290417750,-3.0
1631290417765,-5.82
1631290417781,-8.82
1631290417796,-11.91
1631290417812,-14.92
1631290417828,-17.75
1631290417843,-20.38
1631290417859,-22.91
1631290417875,-25.48
1631290417890,-28.28
1631290417906,-31.45
1631290417921,-35.13
1631290417937,-39.47
1631290417953,-44.47
1631290417968,-49.96
1631290417984,-55.38
1631290418000,-59.82
1631290418015,-62.13
1631290418031,-61.21
1631290418046,-56.42
1631290418062,-47.78
1631290418078,-36.05
1631290418093,-22.49
1631290418109,-8.55
1631290418125,4.55
1631290418140,15.99
1631290418156,25.43
1631290418171,32.87
1631290418187,38.47
1631290418203,42.4
1631290418218,44.8
1631290418234,45.86
1631290418250,45.81
1631290418265,45.01
1631290418281,43.84
1631290418296,42.68
1631290418312,41.76
1631290418328,41.2
1631290418343,40.94
1631290418359,40.86
1631290418375,40.79
1631290418390,40.56
1631290418406,40.06
1631290418421,39.17
1631290418437,37.84
1631290418453,36.06
1631290418468,33.82
1631290418484,31.12
1631290418500,27.95
1631290418515,24.32
1631290418531,20.34
1631290418546,16.17
1631290418562,12.04
1631290418578,8.15
1631290418593,4.63
1631290418609,1.5
1631290418625,-1.33
1631290418640,-3.93
1631290418656,-6.4
1631290418671,-8.76
1631290418687,-11.05
1631290418703,-13.29
1631290418718,-15.61
1631290418734,-18.1
1631290418750,-20.84
1631290418765,-23.79
1631290418781,-26.78
1631290418796,-29.57
1631290418812,-31.99
1631290418828,-34.01
1631290418843,-35.86
1631290418859,-38.0
1631290418875,-40.94
1631290418890,-45.03
1631290418906,-50.26
1631290418921,-56.11
1631290418937,-61.62
1631290418953,-65.57
1631290418968,-66.84
1631290418984,-64.66
1631290419000,-58.85
1631290419015,-49.9
1631290419031,-38.82
1631290419046,-26.93
1631290419062,-15.52
1631290419078,-5.57
1631290419093,2.4
1631290419109,8.32
1631290419125,12.46
1631290419140,15.25
1631290419156,17.13
1631290419171,18.49
1631290419187,19.59
1631290419203,20.63
1631290419218,21.67
1631290419234,22.73
1631290419250,23.75
1631290419265,24.69
1631290419281,25.52
1631290419296,26.26
1631290419312,27.02
1631290419328,27.82
1631290419343,28.67
1631290419359,29.43
1631290419375,29.91
1631290419390,29.92
1631290419406,29.33
1631290419421,28.17
1631290419437,26.53
1631290419453,24.56
1631290419468,22.41
1631290419484,20.2
1631290419500,18.01
1631290419515,15.88
1631290419531,13.85
1631290419546,11.94
1631290419562,10.18
1631290419578,8.58
1631290419593,7.14
1631290419609,5.83
1631290419625,4.63
1631290419640,3.47
1631290419656,2.23
1631290419671,0.8
1631290419687,-0.99
1631290419703,-3.29
1631290419718,-6.19
1631290419734,-9.68
1631290419750,-13.68
1631290419765,-17.98
1631290419781,-22.42
1631290419796,-26.84
1631290419812,-31.21
1631290419828,-35.57
1631290419843,-40.01
1631290419859,-44.58
1631290419875,-49.14
1631290419890,-53.35
1631290419906,-56.59
1631290419921,-58.1
1631290419937,-57.18
1631290419953,-53.45
1631290419968,-47.07
1631290419984,-38.7
1631290420000,-29.32
1631290420015,-19.95
1631290420031,-11.4
1631290420046,-4.09
1631290420062,1.87
1631290420078,6.59
1631290420093,10.18
1631290420109,12.71
1631290420125,14.25
1631290420140,14.91
1631290420156,14.91
1631290420171,14.53
1631290420187,14.14
1631290420203,14.04
1631290420218,14.42
1631290420234,15.33
1631290420250,16.7
1631290420265,18.34
1631290420281,20.05
1631290420296,21.64
1631290420312,23.02
1631290420328,24.1
1631290420343,24.77
1631290420359,24.86
1631290420375,24.21
1631290420390,22.72
1631290420406,20.52
1631290420421,17.91
1631290420437,15.28
1631290420453,12.93
1631290420468,10.99
1631290420484,9.35
1631290420500,7.83
1631290420515,6.28
1631290420531,4.67
1631290420546,3.0
1631290420562,1.3
1631290420578,-0.49
1631290420593,-2.44
1631290420609,-4.58
1631290420625,-6.77
1631290420640,-8.82
1631290420656,-10.54
1631290420671,-11.87
1631290420687,-12.92
1631290420703,-13.94
1631290420718,-15.25
1631290420734,-17.15
1631290420750,-19.84
1631290420765,-23.46
1631290420781,-27.97
1631290420796,-33.11
1631290420812,-38.35
1631290420828,-42.89
1631290420843,-45.78
1631290420859,-46.16
1631290420875,-43.51
1631290420890,-37.81
1631290420906,-29.62
1631290420921,-19.9
1631290420937,-9.84
1631290420953,-0.54
1631290420968,7.19
1631290420984,12.9
1631290421000,16.53
1631290421015,18.31
1631290421031,18.67
1631290421046,18.06
1631290421062,16.89
1631290421078,15.43
1631290421093,13.89
1631290421109,12.43
1631290421125,11.22
1631290421140,10.47
1631290421156,10.35
1631290421171,10.96
1631290421187,12.23
1631290421203,13.96
1631290421218,15.84
1631290421234,17.64
1631290421250,19.17
1631290421265,20.34
1631290421281,21.11
1631290421296,21.46
1631290421312,21.34
1631290421328,20.73
1631290421343,19.66
1631290421359,18.21
1631290421375,16.48
1631290421390,14.55
1631290421406,12.42
1631290421421,10.04
1631290421437,7.36
1631290421453,4.39
1631290421468,1.19
1631290421484,-2.1
1631290421500,-5.36
1631290421515,-8.5
1631290421531,-11.57
1631290421546,-14.61
1631290421562,-17.73
1631290421578,-20.98
1631290421593,-24.26
1631290421609,-27.46
1631290421625,-30.42
1631290421640,-33.1
1631290421656,-35.61
1631290421671,-38.23
1631290421687,-41.31
1631290421703,-45.15
1631290421718,-49.77
1631290421734,-54.84
1631290421750,-59.59
1631290421765,-62.98
1631290421781,-63.93
1631290421796,-61.63
1631290421812,-55.8
1631290421828,-46.77
1631290421843,-35.45
1631290421859,-23.09
1631290421875,-10.94
1631290421890,-0.05
1631290421906,8.91
1631290421921,15.69
1631290421937,20.36
1631290421953,23.21
1631290421968,24.7
1631290421984,25.31
1631290422000,25.51
1631290422015,25.67
1631290422031,26.0
1631290422046,26.56
1631290422062,27.26
1631290422078,28.01
1631290422093,28.79
1631290422109,29.67
1631290422125,30.78
1631290422140,32.17
1631290422156,33.74
1631290422171,35.23
1631290422187,36.27
1631290422203,36.5
1631290422218,35.73
1631290422234,33.96
1631290422250,31.38
1631290422265,28.23
1631290422281,24.77
1631290422296,21.2
1631290422312,17.65
1631290422328,14.17
1631290422343,10.78
1631290422359,7.53
1631290422375,4.46
1631290422390,1.63
1631290422406,-0.97
1631290422421,-3.36
1631290422437,-5.62
1631290422453,-7.83
1631290422468,-10.02
1631290422484,-12.2
1631290422500,-14.32
1631290422515,-16.35
1631290422531,-18.32
1631290422546,-20.33
1631290422562,-22.57
1631290422578,-25.24
1631290422593,-28.61
1631290422609,-32.9
1631290422625,-38.17
1631290422640,-44.29
1631290422656,-50.83
1631290422671,-57.0
1631290422687,-61.79
1631290422703,-64.1
1631290422718,-63.04
1631290422734,-58.15
1631290422750,-49.58
1631290422765,-38.13
1631290422781,-25.07
1631290422796,-11.81
1631290422812,0.4
1631290422828,10.75
1631290422843,18.9
1631290422859,24.92
1631290422875,29.13
1631290422890,31.91
1631290422906,33.59
1631290422921,34.43
1631290422937,34.64
1631290422953,34.45
1631290422968,34.06
1631290422984,33.7
1631290423000,33.52
1631290423015,33.61
1631290423031,33.94
1631290423046,34.36
1631290423062,34.66
1631290423078,34.65
1631290423093,34.19
1631290423109,33.21
1631290423125,31.76
1631290423140,29.91
1631290423156,27.68
1631290423171,25.01
1631290423187,21.91
1631290423203,18.45
1631290423218,14.84
1631290423234,11.42
1631290423250,8.48
1631290423265,6.15
1631290423281,4.33
1631290423296,2.75
1631290423312,1.04
1631290423328,-1.05
1631290423343,-3.72
1631290423359,-7.03
1631290423375,-10.92
1631290423390,-15.28
1631290423406,-19.9
1631290423421,-24.48
1631290423437,-28.65
1631290423453,-32.17
1631290423468,-34.96
1631290423484,-37.18
1631290423500,-39.19
1631290423515,-41.42
1631290423531,-44.27
1631290423546,-47.95
1631290423562,-52.34
1631290423578,-56.91
1631290423593,-60.73
1631290423609,-62.63
1631290423625,-61.46
1631290423640,-56.54
1631290423656,-47.87
1631290423671,-36.22
1631290423687,-22.92
1631290423703,-9.4
1631290423718,3.04
1631290423734,13.57
1631290423750,21.78
1631290423765,27.59
1631290423781,31.14
1631290423796,32.69
1631290423812,32.64
1631290423828,31.49
1631290423843,29.88
1631290423859,28.44
1631290423875,27.66
1631290423890,27.79
1631290423906,28.77
1631290423921,30.3
1631290423937,31.97
1631290423953,33.43
1631290423968,34.5
1631290423984,35.18
1631290424000,35.56
1631290424015,35.64
1631290424031,35.33
1631290424046,34.36
1631290424062,32.41
1631290424078,29.3
1631290424093,25.05
1631290424109,19.9
1631290424125,14.3
1631290424140,8.77
1631290424156,3.75
1631290424171,-0.54
1631290424187,-4.14
1631290424203,-7.32
1631290424218,-10.42
1631290424234,-13.7
1631290424250,-17.27
1631290424265,-20.97
1631290424281,-24.58
1631290424296,-27.86
1631290424312,-30.6
1631290424328,-32.77
1631290424343,-34.51
1631290424359,-36.07
1631290424375,-37.78
1631290424390,-40.05
1631290424406,-43.16
1631290424421,-47.14
1631290424437,-51.58
1631290424453,-55.68
1631290424468,-58.35
1631290424484,-58.56
1631290424500,-55.6
1631290424515,-49.33
1631290424531,-40.23
1631290424546,-29.24
1631290424562,-17.52
1631290424578,-6.19
1631290424593,3.86
1631290424609,12.09
1631290424625,18.29
1631290424640,22.48
1631290424656,24.8
1631290424671,25.45
1631290424687,24.73
1631290424703,23.09
1631290424718,21.09
1631290424734,19.4
1631290424750,18.57
1631290424765,18.92
1631290424781,20.43
1631290424796,22.76
1631290424812,25.47
1631290424828,28.12
1631290424843,30.38
1631290424859,32.03
1631290424875,32.96
1631290424890,33.09
1631290424906,32.42
1631290424921,31.07
1631290424937,29.22
1631290424953,27.09
1631290424968,24.87
1631290424984,22.72
1631290425000,20.68
1631290425015,18.7
1631290425031,16.59
1631290425046,14.07
1631290425062,10.83
1631290425078,6.65
1631290425093,1.52
1631290425109,-4.34
1631290425125,-10.48
1631290425140,-16.37
1631290425156,-21.53
1631290425171,-25.68
1631290425187,-28.78
1631290425203,-31.04
1631290425218,-32.92
1631290425234,-35.03
1631290425250,-38.0
1631290425265,-42.24
1631290425281,-47.72
1631290425296,-53.76
1631290425312,-59.15
1631290425328,-62.37
1631290425343,-62.12
1631290425359,-57.71
1631290425375,-49.35
1631290425390,-38.05
1631290425406,-25.3
1631290425421,-12.66
1631290425437,-1.36
1631290425453,7.93
1631290425468,15.03
1631290425484,20.14
1631290425500,23.58
1631290425515,25.65
1631290425531,26.64
1631290425546,26.82
1631290425562,26.55
1631290425578,26.22
1631290425593,26.22
1631290425609,26.75
1631290425625,27.83
1631290425640,29.24
1631290425656,30.67
1631290425671,31.88
1631290425687,32.79
1631290425703,33.45
1631290425718,33.99
1631290425734,34.42
1631290425750,34.58
1631290425765,34.14
1631290425781,32.66
1631290425796,29.86
1631290425812,25.72
1631290425828,20.57
1631290425843,15.0
1631290425859,9.72
1631290425875,5.25
1631290425890,1.83
1631290425906,-0.72
1631290425921,-2.84
1631290425937,-5.06
1631290425953,-7.77
1631290425968,-11.07
1631290425984,-14.87
1631290426000,-18.94
1631290426015,-23.03
1631290426031,-26.98
1631290426046,-30.75
1631290426062,-34.4
1631290426078,-38.16
1631290426093,-42.35
1631290426109,-47.29
1631290426125,-53.14
1631290426140,-59.7
1631290426156,-66.25
1631290426171,-71.62
1631290426187,-74.39
1631290426203,-73.31
1631290426218,-67.75
1631290426234,-57.98
1631290426250,-45.12
1631290426265,-30.8
1631290426281,-16.71
1631290426296,-4.13
1631290426312,6.25
1631290426328,14.36
1631290426343,20.39
1631290426359,24.64
1631290426375,27.36
1631290426390,28.78
1631290426406,29.22
1631290426421,29.15
1631290426437,29.15
1631290426453,29.73
1631290426468,31.19
1631290426484,33.51
1631290426500,36.42
1631290426515,39.44
1631290426531,42.13
1631290426546,44.15
1631290426562,45.29
1631290426578,45.51
1631290426593,44.78
1631290426609,43.13
1631290426625,40.54
1631290426640,37.07
1631290426656,32.78
1631290426671,27.86
1631290426687,22.58
1631290426703,17.2
1631290426718,11.93
1631290426734,6.83
1631290426750,1.89
1631290426765,-3.03
1631290426781,-7.95
1631290426796,-12.79
1631290426812,-17.37
1631290426828,-21.43
1631290426843,-24.82
1631290426859,-27.52
1631290426875,-29.71
1631290426890,-31.75
1631290426906,-34.1
1631290426921,-37.27
1631290426937,-41.55
1631290426953,-46.89
1631290426968,-52.75
1631290426984,-58.09
1631290427000,-61.54
1631290427015,-61.73
1631290427031,-57.82
1631290427046,-49.71
1631290427062,-38.21
1631290427078,-24.75
1631290427093,-11.02
1631290427109,1.52
1631290427125,11.93
1631290427140,19.87
1631290427156,25.42
1631290427171,28.91
1631290427187,30.71
1631290427203,31.16
1631290427218,30.65
1631290427234,29.6
1631290427250,28.49
1631290427265,27.72
1631290427281,27.52
1631290427296,27.85
1631290427312,28.54
1631290427328,29.38
1631290427343,30.26
1631290427359,31.23
1631290427375,32.35
1631290427390,33.59
1631290427406,34.7
1631290427421,35.26
1631290427437,34.82
1631290427453,33.09
1631290427468,30.11
1631290427484,26.21
1631290427500,21.9
1631290427515,17.67
1631290427531,13.82
1631290427546,10.37
1631290427562,7.13
1631290427578,3.86
1631290427593,0.4
1631290427609,-3.24
1631290427625,-6.93
1631290427640,-10.52
1631290427656,-13.94
1631290427671,-17.25
1631290427687,-20.61
1631290427703,-24.21
1631290427718,-28.26
1631290427734,-32.98
1631290427750,-38.59
1631290427765,-45.14
1631290427781,-52.32
1631290427796,-59.26
1631290427812,-64.61
1631290427828,-66.85
1631290427843,-64.8
1631290427859,-58.14
1631290427875,-47.53
1631290427890,-34.43
1631290427906,-20.58
1631290427921,-7.45
1631290427937,4.08
1631290427953,13.7
1631290427968,21.44
1631290427984,27.43
1631290428000,31.74
1631290428015,34.45
1631290428031,35.72
1631290428046,35.89
1631290428062,35.48
1631290428078,35.03
1631290428093,34.99
1631290428109,35.6
1631290428125,36.8
1631290428140,38.34
1631290428156,39.87
1631290428171,41.08
1631290428187,41.83
1631290428203,42.15
1631290428218,42.12
1631290428234,41.79
1631290428250,41.03
1631290428265,39.61
1631290428281,37.31
1631290428296,34.09
1631290428312,30.18
1631290428328,26.0
1631290428343,22.01
1631290428359,18.49
1631290428375,15.48
1631290428390,12.7
1631290428406,9.77
1631290428421,6.37
1631290428437,2.36
1631290428453,-2.17
1631290428468,-6.93
1631290428484,-11.59
1631290428500,-15.88
1631290428515,-19.67
1631290428531,-23.06
1631290428546,-26.33
1631290428562,-29.93
1631290428578,-34.34
1631290428593,-39.96
1631290428609,-46.86
1631290428625,-54.62
1631290428640,-62.2
1631290428656,-68.13
1631290428671,-70.82
1631290428687,-69.09
1631290428703,-62.6
1631290428718,-51.95
1631290428734,-38.55
1631290428750,-24.13
1631290428765,-10.24
1631290428781,2.09
1631290428796,12.42
1631290428812,20.77
1631290428828,27.36
1631290428843,32.42
1631290428859,36.12
1631290428875,38.64
1631290428890,40.19
1631290428906,41.03
1631290428921,41.47
1631290428937,41.76
1631290428953,42.06
1631290428968,42.44
1631290428984,42.84
1631290429000,43.15
1631290429015,43.25
1631290429031,43.09
1631290429046,42.68
1631290429062,42.09
1631290429078,41.43
1631290429093,40.72
1631290429109,39.94
1631290429125,38.9
1631290429140,37.38
1631290429156,35.2
1631290429171,32.3
1631290429187,28.79
1631290429203,24.94
1631290429218,21.1
1631290429234,17.52
1631290429250,14.33
1631290429265,11.44
1631290429281,8.66
1631290429296,5.72
1631290429312,2.43
1631290429328,-1.28
1631290429343,-5.35
1631290429359,-9.56
1631290429375,-13.69
1631290429390,-17.54
1631290429406,-21.05
1631290429421,-24.36
1631290429437,-27.79
1631290429453,-31.79
1631290429468,-36.76
1631290429484,-42.91
1631290429500,-50.02
1631290429515,-57.38
1631290429531,-63.87
1631290429546,-68.14
1631290429562,-68.96
1631290429578,-65.61
1631290429593,-58.1
1631290429609,-47.2
1631290429625,-34.22
1631290429640,-20.67
1631290429656,-7.85
1631290429671,3.4
1631290429687,12.74
1631290429703,20.19
1631290429718,26.0
1631290429734,30.35
1631290429750,33.42
1631290429765,35.33
1631290429781,36.31
1631290429796,36.68
1631290429812,36.85
1631290429828,37.18
1631290429843,37.86
1631290429859,38.89
1631290429875,40.11
1631290429890,41.31
1631290429906,42.3
1631290429921,42.94
1631290429937,43.19
1631290429953,43.06
