timestamp,bvp
1630937420093,245.84
1630937420109,302.55
1630937420125,357.41
1630937420140,402.8
1630937420156,431.69
1630937420171,441.6
1630937420187,433.39
1630937420203,410.56
1630937420218,377.52
1630937420234,338.67
1630937420250,296.66
1630937420265,259.83
1630937420281,233.7
1630937420296,210.52
1630937420312,187.36
1630937420328,165.22
1630937420343,149.08
1630937420359,139.19
1630937420375,132.26
1630937420390,122.66
1630937420406,104.27
1630937420421,71.97
1630937420437,24.96
1630937420453,-30.13
1630937420468,-82.2
1630937420484,-118.34
1630937420500,-127.55
1630937420515,-103.46
1630937420531,-47.11
1630937420546,32.32
1630937420562,118.99
1630937420578,195.69
1630937420593,250.39
1630937420609,277.78
1630937420625,279.44
1630937420640,261.43
1630937420656,231.52
1630937420671,196.15
1630937420687,159.12
1630937420703,121.64
1630937420718,84.57
1630937420734,50.38
1630937420750,21.89
1630937420765,0.81
1630937420781,-13.81
1630937420796,-25.51
1630937420812,-39.24
1630937420828,-59.23
1630937420843,-87.37
1630937420859,-122.26
1630937420875,-159.86
1630937420890,-195.71
1630937420906,-227.29
1630937420921,-254.95
1630937420937,-281.32
1630937420953,-309.97
1630937420968,-344.13
1630937420984,-385.95
1630937421000,-435.91
1630937421015,-492.4
1630937421031,-551.42
1630937421046,-606.62
1630937421062,-650.09
1630937421078,-674.21
1630937421093,-674.05
1630937421109,-649.33
1630937421125,-604.69
1630937421140,-548.0
1630937421156,-487.62
1630937421171,-429.78
1630937421187,-377.64
1630937421203,-331.83
1630937421218,-291.76
1630937421234,-256.1
1630937421250,-224.08
1630937421265,-195.43
1630937421281,-169.55
1630937421296,-145.43
1630937421312,-121.53
1630937421328,-97.07
1630937421343,-72.41
1630937421359,-48.45
1630937421375,-25.4
1630937421390,-3.19
1630937421406,18.68
1630937421421,41.29
1630937421437,66.21
1630937421453,95.28
1630937421468,128.53
1630937421484,162.9
1630937421500,192.41
1630937421515,211.44
1630937421531,215.14
1630937421546,201.61
1630937421562,173.79
1630937421578,138.86
1630937421593,106.67
1630937421609,84.39
1630937421625,74.18
1630937421640,73.81
1630937421656,83.45
1630937421671,101.17
1630937421687,122.65
1630937421703,143.15
1630937421718,158.58
1630937421734,169.5
1630937421750,176.1
1630937421765,177.96
1630937421781,175.53
1630937421796,179.45
1630937421812,195.87
1630937421828,222.17
1630937421843,250.59
1630937421859,272.33
1630937421875,288.31
1630937421890,299.88
1630937421906,307.87
1630937421921,313.95
1630937421937,334.83
1630937421953,379.04
1630937421968,440.71
1630937421984,505.88
1630937422000,559.73
1630937422015,603.53
1630937422031,639.74
1630937422046,669.35
1630937422062,693.78
1630937422078,732.78
1630937422093,795.17
1630937422109,872.07
1630937422125,945.36
1630937422140,996.99
1630937422156,1030.64
1630937422171,1051.72
1630937422187,1063.45
1630937422203,945.71
1630937422218,666.31
1630937422234,304.77
1630937422250,-23.82
1630937422265,-222.02
1630937422281,-335.26
1630937422296,-397.94
1630937422312,-428.55
1630937422328,-447.36
1630937422343,-459.73
1630937422359,-448.7
1630937422375,-419.96
1630937422390,-388.07
1630937422406,-367.73
1630937422421,-368.98
1630937422437,-382.03
1630937422453,-399.31
1630937422468,-417.81
1630937422484,-435.07
1630937422500,-435.64
1630937422515,-412.82
1630937422531,-372.97
1630937422546,-330.47
1630937422562,-300.5
1630937422578,-281.81
1630937422593,-271.35
1630937422609,-267.02
1630937422625,-266.09
1630937422640,-257.78
1630937422656,-237.04
1630937422671,-206.98
1630937422687,-176.12
1630937422703,-153.76
1630937422718,-139.07
1630937422734,-130.11
1630937422750,-125.46
1630937422765,-123.29
1630937422781,-118.08
1630937422796,-107.17
1630937422812,-91.76
1630937422828,-75.83
1630937422843,-63.91
1630937422859,-55.74
1630937422875,-50.47
1630937422890,-47.42
1630937422906,-45.72
1630937422921,-43.24
1630937422937,-38.95
1630937422953,-33.13
1630937422968,-27.13
1630937422984,-22.6
1630937423000,-19.5
1630937423015,-17.53
1630937423031,-16.45
1630937423046,-15.93
1630937423062,-15.84
1630937423078,-16.1
1630937423093,-16.48
1630937423109,-16.88
1630937423125,-17.26
1630937423140,-17.69
1630937423156,-18.12
1630937423171,-18.48
1630937423187,-18.7
1630937423203,-18.73
1630937423218,-18.56
1630937423234,-18.13
1630937423250,-17.34
1630937423265,-15.81
1630937423281,-13.47
1630937423296,-10.15
1630937423312,-5.82
1630937423328,-0.68
1630937423343,4.87
1630937423359,10.3
1630937423375,15.1
1630937423390,18.95
1630937423406,21.81
1630937423421,23.89
1630937423437,25.54
1630937423453,27.07
1630937423468,28.59
1630937423484,29.93
1630937423500,30.84
1630937423515,31.09
1630937423531,30.75
1630937423546,30.23
1630937423562,30.2
1630937423578,31.33
1630937423593,33.95
1630937423609,37.85
1630937423625,42.32
1630937423640,46.37
1630937423656,49.07
1630937423671,49.93
1630937423687,49.1
1630937423703,47.24
1630937423718,45.36
1630937423734,44.47
1630937423750,45.5
1630937423765,48.79
1630937423781,53.74
1630937423796,58.53
1630937423812,60.43
1630937423828,56.64
1630937423843,45.38
1630937423859,26.96
1630937423875,3.78
1630937423890,-20.21
1630937423906,-41.12
1630937423921,-56.57
1630937423937,-66.45
1630937423953,-72.53
1630937423968,-77.33
1630937423984,-82.72
1630937424000,-89.11
1630937424015,-95.36
1630937424031,-99.14
1630937424046,-97.79
1630937424062,-89.34
1630937424078,-73.13
1630937424093,-50.15
1630937424109,-22.88
1630937424125,5.33
1630937424140,31.29
1630937424156,51.45
1630937424171,63.17
1630937424187,65.82
1630937424203,60.74
1630937424218,50.68
1630937424234,38.7
1630937424250,27.17
1630937424265,17.26
1630937424281,8.89
1630937424296,1.13
1630937424312,-6.89
1630937424328,-15.55
1630937424343,-24.6
1630937424359,-33.24
1630937424375,-40.47
1630937424390,-45.37
1630937424406,-47.29
1630937424421,-46.03
1630937424437,-41.89
1630937424453,-35.51
1630937424468,-27.77
1630937424484,-20.0
1630937424500,-13.58
1630937424515,-9.65
1630937424531,-8.74
1630937424546,-10.45
1630937424562,-13.49
1630937424578,-16.19
1630937424593,-17.31
1630937424609,-16.6
1630937424625,-14.91
1630937424640,-13.37
1630937424656,-12.52
1630937424671,-11.66
1630937424687,-9.08
1630937424703,-3.08
1630937424718,6.85
1630937424734,19.55
1630937424750,32.51
1630937424765,42.94
1630937424781,49.04
1630937424796,50.52
1630937424812,48.43
1630937424828,44.46
1630937424843,40.1
1630937424859,36.34
1630937424875,33.7
1630937424890,32.53
1630937424906,33.15
1630937424921,35.82
1630937424937,40.45
1630937424953,46.5
1630937424968,53.0
1630937424984,58.44
1630937425000,61.21
1630937425015,60.11
1630937425031,54.59
1630937425046,45.25
1630937425062,33.68
1630937425078,21.94
1630937425093,11.89
1630937425109,4.56
1630937425125,-0.01
1630937425140,-2.57
1630937425156,-4.41
1630937425171,-7.06
1630937425187,-11.8
1630937425203,-19.35
1630937425218,-29.83
1630937425234,-42.69
1630937425250,-56.76
1630937425265,-70.42
1630937425281,-81.83
1630937425296,-89.63
1630937425312,-93.3
1630937425328,-93.07
1630937425343,-89.24
1630937425359,-82.4
1630937425375,-72.78
1630937425390,-60.42
1630937425406,-45.23
1630937425421,-27.05
1630937425437,-6.42
1630937425453,14.97
1630937425468,34.39
1630937425484,48.97
1630937425500,56.07
1630937425515,54.49
1630937425531,44.97
1630937425546,29.13
1630937425562,10.74
1630937425578,-5.53
1630937425593,-16.63
1630937425609,-22.72
1630937425625,-26.12
1630937425640,-30.11
1630937425656,-37.03
1630937425671,-47.92
1630937425687,-62.19
1630937425703,-77.22
1630937425718,-88.48
1630937425734,-90.26
1630937425750,-79.31
1630937425765,-52.26
1630937425781,-10.18
1630937425796,40.9
1630937425812,91.1
1630937425828,129.54
1630937425843,148.37
1630937425859,145.04
1630937425875,122.98
1630937425890,89.43
1630937425906,52.43
1630937425921,17.17
1630937425937,-14.62
1630937425953,-43.76
1630937425968,-70.75
1630937425984,-95.08
1630937426000,-114.44
1630937426015,-125.19
1630937426031,-124.08
1630937426046,-109.85
1630937426062,-84.96
1630937426078,-54.08
1630937426093,-22.77
1630937426109,4.55
1630937426125,25.86
1630937426140,41.7
1630937426156,54.28
1630937426171,66.09
1630937426187,79.11
1630937426203,90.93
1630937426218,99.84
1630937426234,105.21
1630937426250,107.34
1630937426265,106.47
1630937426281,102.29
1630937426296,94.05
1630937426312,81.0
1630937426328,63.06
1630937426343,41.18
1630937426359,17.95
1630937426375,-3.4
1630937426390,-19.98
1630937426406,-30.11
1630937426421,-33.62
1630937426437,-31.73
1630937426453,-26.58
1630937426468,-20.61
1630937426484,-15.41
1630937426500,-11.47
1630937426515,-8.73
1630937426531,-6.95
1630937426546,-6.05
1630937426562,-6.05
1630937426578,-7.07
1630937426593,-9.15
1630937426609,-12.11
1630937426625,-15.4
1630937426640,-18.0
1630937426656,-18.92
1630937426671,-17.54
1630937426687,-13.81
1630937426703,-8.12
1630937426718,-1.14
1630937426734,6.5
1630937426750,13.71
1630937426765,19.36
1630937426781,22.52
1630937426796,22.56
1630937426812,19.28
1630937426828,13.19
1630937426843,5.59
1630937426859,-1.61
1630937426875,-6.61
1630937426890,-8.34
1630937426906,-6.72
1630937426921,-2.9
1630937426937,1.05
1630937426953,2.87
1630937426968,0.31
1630937426984,-7.7
1630937427000,-20.54
1630937427015,-36.5
1630937427031,-53.39
1630937427046,-68.82
1630937427062,-80.42
1630937427078,-86.02
1630937427093,-83.99
1630937427109,-73.76
1630937427125,-56.4
1630937427140,-34.99
1630937427156,-14.43
1630937427171,0.1
1630937427187,5.08
1630937427203,0.15
1630937427218,-11.61
1630937427234,-25.13
1630937427250,-35.55
1630937427265,-40.81
1630937427281,-40.9
1630937427296,-37.63
1630937427312,-33.12
1630937427328,-28.84
1630937427343,-25.51
1630937427359,-23.4
1630937427375,-22.95
1630937427390,-24.78
1630937427406,-29.13
1630937427421,-35.25
1630937427437,-41.41
1630937427453,-45.22
1630937427468,-44.78
1630937427484,-39.5
1630937427500,-30.43
1630937427515,-19.86
1630937427531,-10.42
1630937427546,-4.04
1630937427562,-1.08
1630937427578,-1.61
1630937427593,-3.9
1630937427609,-5.32
1630937427625,-3.31
1630937427640,3.67
1630937427656,15.6
1630937427671,30.87
1630937427687,46.93
1630937427703,61.0
1630937427718,70.78
1630937427734,75.03
1630937427750,73.57
1630937427765,67.26
1630937427781,57.91
1630937427796,47.91
1630937427812,39.82
1630937427828,35.7
1630937427843,36.39
1630937427859,41.24
1630937427875,48.56
1630937427890,56.16
1630937427906,62.31
1630937427921,66.35
1630937427937,68.7
1630937427953,70.4
1630937427968,72.35
1630937427984,74.74
1630937428000,76.96
1630937428015,77.97
1630937428031,76.71
1630937428046,72.37
1630937428062,64.7
1630937428078,53.96
1630937428093,40.89
1630937428109,26.67
1630937428125,12.76
1630937428140,0.7
1630937428156,-8.19
1630937428171,-13.38
1630937428187,-15.27
1630937428203,-15.08
1630937428218,-14.27
1630937428234,-14.07
1630937428250,-15.01
1630937428265,-16.86
1630937428281,-18.88
1630937428296,-20.24
1630937428312,-20.51
1630937428328,-19.99
1630937428343,-19.58
1630937428359,-20.24
1630937428375,-22.61
1630937428390,-26.61
1630937428406,-31.2
1630937428421,-34.52
1630937428437,-34.75
1630937428453,-31.03
1630937428468,-24.39
1630937428484,-17.55
1630937428500,-13.33
1630937428515,-13.61
1630937428531,-18.24
1630937428546,-25.0
1630937428562,-30.74
1630937428578,-33.1
1630937428593,-31.99
1630937428609,-29.66
1630937428625,-29.34
1630937428640,-32.67
1630937428656,-39.33
1630937428671,-47.45
1630937428687,-54.73
1630937428703,-59.38
1630937428718,-60.4
1630937428734,-57.27
1630937428750,-49.49
1630937428765,-36.46
1630937428781,-17.07
1630937428796,8.28
1630937428812,37.09
1630937428828,65.36
1630937428843,89.53
1630937428859,108.17
1630937428875,122.47
1630937428890,135.28
1630937428906,142.89
1630937428921,142.73
1630937428937,134.21
1630937428953,119.18
1630937428968,100.09
1630937428984,78.73
1630937429000,56.36
1630937429015,34.22
1630937429031,13.73
1630937429046,-3.58
1630937429062,-15.41
1630937429078,-20.25
1630937429093,-18.28
1630937429109,-11.49
1630937429125,-2.9
1630937429140,4.59
1630937429156,8.9
1630937429171,9.06
1630937429187,5.32
1630937429203,-0.19
1630937429218,-4.94
1630937429234,-6.98
1630937429250,-5.68
1630937429265,-1.66
1630937429281,3.64
1630937429296,8.38
1630937429312,11.06
1630937429328,10.96
1630937429343,8.69
1630937429359,5.3
1630937429375,2.27
1630937429390,0.32
1630937429406,-0.65
1630937429421,-1.49
1630937429437,-3.78
1630937429453,-9.24
1630937429468,-19.11
1630937429484,-33.35
1630937429500,-50.54
1630937429515,-67.91
1630937429531,-82.27
1630937429546,-91.02
1630937429562,-93.14
1630937429578,-90.14
1630937429593,-85.11
1630937429609,-81.52
1630937429625,-81.8
1630937429640,-86.41
1630937429656,-93.75
1630937429671,-101.02
1630937429687,-105.32
1630937429703,-104.76
1630937429718,-99.35
1630937429734,-90.24
1630937429750,-78.89
1630937429765,-66.65
1630937429781,-54.32
1630937429796,-42.38
1630937429812,-31.63
1630937429828,-23.91
1630937429843,-19.27
1630937429859,-19.49
1630937429875,-25.57
1630937429890,-36.12
1630937429906,-48.3
1630937429921,-59.15
1630937429937,-67.11
1630937429953,-71.77
1630937429968,-72.77
1630937429984,-68.29
1630937430000,-55.4
1630937430015,-31.61
1630937430031,2.39
1630937430046,40.32
1630937430062,71.9
1630937430078,87.51
1630937430093,83.56
1630937430109,64.86
1630937430125,42.68
1630937430140,29.36
1630937430156,31.11
1630937430171,47.7
1630937430187,72.77
1630937430203,97.36
1630937430218,113.93
1630937430234,118.9
1630937430250,112.69
1630937430265,98.23
1630937430281,78.89
1630937430296,57.76
1630937430312,37.91
1630937430328,21.68
1630937430343,10.77
1630937430359,5.81
1630937430375,6.07
1630937430390,9.42
1630937430406,12.96
1630937430421,14.07
1630937430437,9.92
1630937430453,0.68
1630937430468,-11.11
1630937430484,-21.39
1630937430500,-26.0
1630937430515,-22.21
1630937430531,-9.75
1630937430546,9.08
1630937430562,30.07
1630937430578,48.57
1630937430593,61.41
1630937430609,67.42
1630937430625,67.59
1630937430640,64.25
1630937430656,59.67
1630937430671,54.8
1630937430687,48.85
1630937430703,40.1
1630937430718,27.36
1630937430734,11.5
1630937430750,-4.54
1630937430765,-16.82
1630937430781,-22.16
1630937430796,-19.78
1630937430812,-11.81
1630937430828,-2.43
1630937430843,3.78
1630937430859,3.59
1630937430875,-3.85
1630937430890,-17.39
1630937430906,-34.61
1630937430921,-52.71
1630937430937,-68.84
1630937430953,-80.17
1630937430968,-83.97
1630937430984,-78.15
1630937431000,-62.2
1630937431015,-38.05
1630937431031,-10.04
1630937431046,16.28
1630937431062,36.15
1630937431078,47.19
1630937431093,49.86
1630937431109,46.65
1630937431125,40.65
1630937431140,34.24
1630937431156,28.35
1630937431171,22.75
1630937431187,16.9
1630937431203,10.69
1630937431218,4.49
1630937431234,-1.12
1630937431250,-5.93
1630937431265,-10.05
1630937431281,-13.8
1630937431296,-17.09
1630937431312,-19.58
1630937431328,-21.13
1630937431343,-21.64
1630937431359,-20.99
1630937431375,-19.03
1630937431390,-16.04
1630937431406,-12.68
1630937431421,-9.99
1630937431437,-9.28
1630937431453,-11.65
1630937431468,-17.47
1630937431484,-26.14
1630937431500,-36.16
1630937431515,-45.3
1630937431531,-51.14
1630937431546,-52.47
1630937431562,-47.77
1630937431578,-36.76
1630937431593,-20.44
1630937431609,-0.51
1630937431625,21.11
1630937431640,42.6
1630937431656,62.12
1630937431671,76.22
1630937431687,82.56
1630937431703,80.29
1630937431718,69.94
1630937431734,53.63
1630937431750,34.78
1630937431765,17.08
1630937431781,3.33
1630937431796,-5.41
1630937431812,-9.93
1630937431828,-11.99
1630937431843,-13.46
1630937431859,-15.75
1630937431875,-19.69
1630937431890,-24.66
1630937431906,-29.51
1630937431921,-32.94
1630937431937,-33.86
1630937431953,-31.71
1630937431968,-26.55
1630937431984,-19.27
1630937432000,-11.46
1630937432015,-4.79
1630937432031,-0.33
1630937432046,1.68
1630937432062,1.78
1630937432078,0.85
1630937432093,-0.4
1630937432109,-1.54
1630937432125,-2.58
1630937432140,-3.73
1630937432156,-5.08
1630937432171,-6.55
1630937432187,-8.16
1630937432203,-9.8
1630937432218,-11.69
1630937432234,-14.14
1630937432250,-17.14
1630937432265,-20.2
1630937432281,-22.37
1630937432296,-22.6
1630937432312,-20.15
1630937432328,-15.1
1630937432343,-8.32
1630937432359,-1.18
1630937432375,4.99
1630937432390,9.37
1630937432406,11.78
1630937432421,12.52
1630937432437,12.08
1630937432453,10.88
1630937432468,9.18
1630937432484,7.15
1630937432500,4.89
1630937432515,2.56
1630937432531,0.27
1630937432546,-1.96
1630937432562,-4.22
1630937432578,-6.71
1630937432593,-9.6
1630937432609,-12.94
1630937432625,-16.7
1630937432640,-20.82
1630937432656,-25.21
1630937432671,-29.75
1630937432687,-34.18
1630937432703,-38.08
1630937432718,-41.03
1630937432734,-42.73
1630937432750,-43.27
1630937432765,-43.12
1630937432781,-42.97
1630937432796,-43.44
1630937432812,-44.78
1630937432828,-46.89
1630937432843,-49.52
1630937432859,-52.6
1630937432875,-56.51
1630937432890,-62.04
1630937432906,-69.96
1630937432921,-80.31
1630937432937,-91.94
1630937432953,-102.45
1630937432968,-108.79
1630937432984,-108.17
1630937433000,-99.05
1630937433015,-81.61
1630937433031,-57.62
1630937433046,-29.88
1630937433062,-1.46
1630937433078,24.9
1630937433093,47.1
1630937433109,63.81
1630937433125,74.52
1630937433140,79.53
1630937433156,79.91
1630937433171,77.22
1630937433187,73.03
1630937433203,68.63
1630937433218,64.8
1630937433234,62.01
1630937433250,60.65
1630937433265,61.24
1630937433281,64.21
1630937433296,69.65
1630937433312,76.96
1630937433328,84.94
1630937433343,91.98
1630937433359,96.66
1630937433375,98.04
1630937433390,95.85
1630937433406,90.43
1630937433421,82.68
1630937433437,74.06
1630937433453,66.41
1630937433468,61.63
1630937433484,61.12
1630937433500,65.15
1630937433515,72.65
1630937433531,81.48
1630937433546,89.07
1630937433562,93.27
1630937433578,92.89
1630937433593,87.77
1630937433609,78.55
1630937433625,66.36
1630937433640,52.46
1630937433656,38.23
1630937433671,24.96
1630937433687,13.76
1630937433703,5.3
1630937433718,-0.4
1630937433734,-3.92
1630937433750,-6.28
1630937433765,-8.55
1630937433781,-11.59
1630937433796,-15.8
1630937433812,-21.16
1630937433828,-27.23
1630937433843,-33.31
1630937433859,-38.61
1630937433875,-42.41
1630937433890,-44.25
1630937433906,-43.95
1630937433921,-41.68
1630937433937,-37.83
1630937433953,-32.89
1630937433968,-27.4
1630937433984,-21.89
1630937434000,-16.9
1630937434015,-12.98
1630937434031,-10.54
1630937434046,-9.75
1630937434062,-10.46
1630937434078,-12.12
1630937434093,-14.08
1630937434109,-15.77
1630937434125,-16.99
1630937434140,-17.87
1630937434156,-18.74
1630937434171,-19.85
1630937434187,-21.13
1630937434203,-22.24
1630937434218,-22.73
1630937434234,-22.38
1630937434250,-21.28
1630937434265,-19.79
1630937434281,-18.34
1630937434296,-17.15
1630937434312,-16.22
1630937434328,-15.37
1630937434343,-14.48
1630937434359,-13.59
1630937434375,-12.89
1630937434390,-12.57
1630937434406,-12.63
1630937434421,-12.82
1630937434437,-12.76
1630937434453,-12.17
1630937434468,-11.03
1630937434484,-9.62
1630937434500,-8.42
1630937434515,-7.8
1630937434531,-7.89
1630937434546,-8.46
1630937434562,-9.11
1630937434578,-9.41
1630937434593,-9.15
1630937434609,-8.37
1630937434625,-7.31
1630937434640,-6.24
1630937434656,-5.34
1630937434671,-4.57
1630937434687,-3.79
1630937434703,-2.82
1630937434718,-1.55
1630937434734,-0.01
1630937434750,1.65
1630937434765,3.23
1630937434781,4.57
1630937434796,5.58
1630937434812,6.23
1630937434828,6.51
1630937434843,6.37
1630937434859,5.81
1630937434875,4.8
1630937434890,3.49
1630937434906,2.09
1630937434921,0.93
1630937434937,0.24
1630937434953,0.16
1630937434968,0.57
1630937434984,1.28
1630937435000,2.01
1630937435015,2.55
1630937435031,2.78
1630937435046,2.68
1630937435062,2.31
1630937435078,1.78
1630937435093,1.23
1630937435109,0.81
1630937435125,0.65
1630937435140,0.76
1630937435156,1.09
1630937435171,1.46
1630937435187,1.74
1630937435203,1.85
1630937435218,1.85
1630937435234,1.85
1630937435250,1.97
1630937435265,2.21
1630937435281,2.51
1630937435296,2.74
1630937435312,2.8
1630937435328,2.63
1630937435343,2.2
1630937435359,1.5
1630937435375,0.49
1630937435390,-0.83
1630937435406,-2.37
1630937435421,-3.91
1630937435437,-5.2
1630937435453,-6.05
1630937435468,-6.35
1630937435484,-6.19
1630937435500,-5.7
1630937435515,-5.05
1630937435531,-4.34
1630937435546,-3.69
1630937435562,-3.16
1630937435578,-2.86
1630937435593,-2.83
1630937435609,-3.01
1630937435625,-3.29
1630937435640,-3.43
1630937435656,-3.27
1630937435671,-2.75
1630937435687,-1.95
1630937435703,-1.02
1630937435718,-0.13
1630937435734,0.64
1630937435750,1.29
1630937435765,1.87
1630937435781,2.41
1630937435796,2.89
1630937435812,3.3
1630937435828,3.61
1630937435843,3.84
1630937435859,3.99
1630937435875,4.06
1630937435890,4.04
1630937435906,3.89
1630937435921,3.62
1630937435937,3.25
1630937435953,2.87
1630937435968,2.54
1630937435984,2.31
1630937436000,2.21
1630937436015,2.22
1630937436031,2.33
1630937436046,2.5
1630937436062,2.69
1630937436078,2.79
1630937436093,2.7
1630937436109,2.39
1630937436125,1.88
1630937436140,1.27
1630937436156,0.7
1630937436171,0.25
1630937436187,-0.09
1630937436203,-0.36
1630937436218,-0.6
1630937436234,-0.81
1630937436250,-0.98
1630937436265,-1.13
1630937436281,-1.31
1630937436296,-1.62
1630937436312,-2.1
1630937436328,-2.66
1630937436343,-3.1
1630937436359,-3.19
1630937436375,-2.75
1630937436390,-1.81
1630937436406,-0.58
1630937436421,0.59
1630937436437,1.4
1630937436453,1.68
1630937436468,1.44
1630937436484,0.85
1630937436500,0.19
1630937436515,-0.33
1630937436531,-0.54
1630937436546,-0.4
1630937436562,0.03
1630937436578,0.59
1630937436593,1.13
1630937436609,1.53
1630937436625,1.69
1630937436640,1.57
1630937436656,1.19
1630937436671,0.6
1630937436687,-0.09
1630937436703,-0.74
1630937436718,-1.18
1630937436734,-1.31
1630937436750,-1.12
1630937436765,-0.7
1630937436781,-0.2
1630937436796,0.25
1630937436812,0.57
1630937436828,0.78
1630937436843,0.87
1630937436859,0.84
1630937436875,0.62
1630937436890,0.21
1630937436906,-0.29
1630937436921,-0.66
1630937436937,-0.61
1630937436953,0.03
1630937436968,1.2
1630937436984,2.6
1630937437000,3.79
1630937437015,4.41
1630937437031,4.36
1630937437046,3.8
1630937437062,3.03
1630937437078,2.36
1630937437093,1.89
1630937437109,1.56
1630937437125,1.17
1630937437140,0.54
1630937437156,-0.38
1630937437171,-1.5
1630937437187,-2.64
1630937437203,-3.65
1630937437218,-4.48
1630937437234,-5.18
1630937437250,-5.84
1630937437265,-6.51
1630937437281,-7.14
1630937437296,-7.64
1630937437312,-7.91
1630937437328,-7.92
1630937437343,-7.7
1630937437359,-7.37
1630937437375,-7.02
1630937437390,-6.7
1630937437406,-6.35
1630937437421,-5.89
1630937437437,-5.28
1630937437453,-4.55
1630937437468,-3.82
1630937437484,-3.24
1630937437500,-2.86
1630937437515,-2.63
1630937437531,-2.39
1630937437546,-1.93
1630937437562,-1.16
1630937437578,-0.16
1630937437593,0.82
1630937437609,1.53
1630937437625,1.8
1630937437640,1.68
1630937437656,1.4
1630937437671,1.16
1630937437687,1.09
1630937437703,1.16
1630937437718,1.23
1630937437734,1.22
1630937437750,1.12
1630937437765,1.06
1630937437781,1.13
1630937437796,1.35
1630937437812,1.64
1630937437828,1.84
1630937437843,1.85
1630937437859,1.66
1630937437875,1.4
1630937437890,1.21
1630937437906,1.15
1630937437921,1.22
1630937437937,1.34
1630937437953,1.43
1630937437968,1.47
1630937437984,1.49
1630937438000,1.48
1630937438015,1.39
1630937438031,1.09
1630937438046,0.49
1630937438062,-0.4
1630937438078,-1.41
1630937438093,-2.33
1630937438109,-2.95
1630937438125,-3.24
1630937438140,-3.35
1630937438156,-3.46
1630937438171,-3.73
1630937438187,-4.13
1630937438203,-4.5
1630937438218,-4.65
1630937438234,-4.48
1630937438250,-4.03
1630937438265,-3.47
1630937438281,-3.0
1630937438296,-2.73
1630937438312,-2.64
1630937438328,-2.57
1630937438343,-2.39
1630937438359,-2.02
1630937438375,-1.5
1630937438390,-0.94
1630937438406,-0.47
1630937438421,-0.12
1630937438437,0.16
1630937438453,0.47
1630937438468,0.89
1630937438484,1.44
1630937438500,2.05
1630937438515,2.6
1630937438531,3.0
1630937438546,3.2
1630937438562,3.24
1630937438578,3.16
1630937438593,3.06
1630937438609,3.01
1630937438625,3.06
1630937438640,3.21
1630937438656,3.38
1630937438671,3.5
1630937438687,3.5
1630937438703,3.41
1630937438718,3.31
1630937438734,3.3
1630937438750,3.43
1630937438765,3.7
1630937438781,4.02
1630937438796,4.28
1630937438812,4.42
1630937438828,4.41
1630937438843,4.32
1630937438859,4.17
1630937438875,4.0
1630937438890,3.81
1630937438906,3.6
1630937438921,3.41
1630937438937,3.25
1630937438953,3.13
1630937438968,2.99
1630937438984,2.73
1630937439000,2.22
1630937439015,1.42
1630937439031,0.4
1630937439046,-0.71
1630937439062,-1.76
1630937439078,-2.65
1630937439093,-3.42
1630937439109,-4.14
1630937439125,-4.86
1630937439140,-5.56
1630937439156,-6.11
1630937439171,-6.4
1630937439187,-6.36
1630937439203,-6.01
1630937439218,-5.45
1630937439234,-4.8
1630937439250,-4.13
1630937439265,-3.44
1630937439281,-2.78
1630937439296,-2.19
1630937439312,-1.79
1630937439328,-1.69
1630937439343,-1.92
1630937439359,-2.42
1630937439375,-2.98
1630937439390,-3.38
1630937439406,-3.41
1630937439421,-2.96
1630937439437,-2.1
1630937439453,-1.01
1630937439468,-0.01
1630937439484,0.7
1630937439500,1.0
1630937439515,0.94
1630937439531,0.69
1630937439546,0.45
1630937439562,0.36
1630937439578,0.45
1630937439593,0.74
1630937439609,1.16
1630937439625,1.69
1630937439640,2.26
1630937439656,2.81
1630937439671,3.2
1630937439687,3.33
1630937439703,3.15
1630937439718,2.7
1630937439734,2.11
1630937439750,1.56
1630937439765,1.18
1630937439781,1.04
1630937439796,1.12
1630937439812,1.4
1630937439828,1.78
1630937439843,2.14
1630937439859,2.32
1630937439875,2.22
1630937439890,1.79
1630937439906,1.12
1630937439921,0.37
1630937439937,-0.29
1630937439953,-0.77
1630937439968,-1.06
1630937439984,-1.26
1630937440000,-1.45
1630937440015,-1.64
1630937440031,-1.83
1630937440046,-1.98
1630937440062,-2.13
1630937440078,-2.36
1630937440093,-2.77
1630937440109,-3.36
1630937440125,-4.03
1630937440140,-4.59
1630937440156,-4.83
1630937440171,-4.66
1630937440187,-4.12
1630937440203,-3.38
1630937440218,-2.63
1630937440234,-2.04
1630937440250,-1.62
1630937440265,-1.31
1630937440281,-0.97
1630937440296,-0.55
1630937440312,-0.06
1630937440328,0.4
1630937440343,0.75
1630937440359,0.97
1630937440375,1.13
1630937440390,1.38
1630937440406,1.82
1630937440421,2.47
1630937440437,3.21
1630937440453,3.86
1630937440468,4.24
1630937440484,4.27
1630937440500,3.97
1630937440515,3.46
1630937440531,2.87
1630937440546,2.35
1630937440562,1.96
1630937440578,1.75
1630937440593,1.71
1630937440609,1.82
1630937440625,2.03
1630937440640,2.26
1630937440656,2.44
1630937440671,2.46
1630937440687,2.24
1630937440703,1.75
1630937440718,1.08
1630937440734,0.39
1630937440750,-0.09
1630937440765,-0.22
1630937440781,0.01
1630937440796,0.46
1630937440812,0.89
1630937440828,1.05
1630937440843,0.85
1630937440859,0.35
1630937440875,-0.26
1630937440890,-0.75
1630937440906,-0.99
1630937440921,-0.97
1630937440937,-0.81
1630937440953,-0.67
1630937440968,-0.72
1630937440984,-1.05
1630937441000,-1.69
1630937441015,-2.55
1630937441031,-3.51
1630937441046,-4.39
1630937441062,-5.08
1630937441078,-5.49
1630937441093,-5.64
1630937441109,-5.58
1630937441125,-5.41
1630937441140,-5.26
1630937441156,-5.24
1630937441171,-5.41
1630937441187,-5.75
1630937441203,-6.15
1630937441218,-6.47
1630937441234,-6.56
1630937441250,-6.34
1630937441265,-5.81
1630937441281,-5.02
1630937441296,-4.08
1630937441312,-3.08
1630937441328,-2.14
1630937441343,-1.36
1630937441359,-0.81
1630937441375,-0.53
1630937441390,-0.42
1630937441406,-0.31
1630937441421,0.04
1630937441437,0.8
1630937441453,2.0
1630937441468,3.46
1630937441484,4.86
1630937441500,5.87
1630937441515,6.3
1630937441531,6.17
1630937441546,5.66
1630937441562,5.02
1630937441578,4.44
1630937441593,3.99
1630937441609,3.58
1630937441625,3.11
1630937441640,2.54
1630937441656,1.96
1630937441671,1.56
1630937441687,1.49
1630937441703,1.77
1630937441718,2.23
1630937441734,2.6
1630937441750,2.68
1630937441765,2.43
1630937441781,1.99
1630937441796,1.62
1630937441812,1.5
1630937441828,1.63
1630937441843,1.88
1630937441859,2.03
1630937441875,1.91
1630937441890,1.48
1630937441906,0.79
1630937441921,-0.05
1630937441937,-0.95
1630937441953,-1.84
1630937441968,-2.68
1630937441984,-3.44
1630937442000,-4.11
1630937442015,-4.66
1630937442031,-5.1
1630937442046,-5.48
1630937442062,-5.8
1630937442078,-6.05
1630937442093,-6.23
1630937442109,-6.33
1630937442125,-6.36
1630937442140,-6.31
1630937442156,-6.15
1630937442171,-5.77
1630937442187,-5.09
1630937442203,-4.08
1630937442218,-2.86
1630937442234,-1.67
1630937442250,-0.77
1630937442265,-0.34
1630937442281,-0.37
1630937442296,-0.66
1630937442312,-0.93
1630937442328,-0.95
1630937442343,-0.61
1630937442359,0.05
1630937442375,0.85
1630937442390,1.64
1630937442406,2.27
1630937442421,2.69
1630937442437,2.9
1630937442453,2.96
1630937442468,2.94
1630937442484,2.92
1630937442500,2.99
1630937442515,3.17
1630937442531,3.48
1630937442546,3.88
1630937442562,4.34
1630937442578,4.81
1630937442593,5.24
1630937442609,5.53
1630937442625,5.6
1630937442640,5.43
1630937442656,5.04
1630937442671,4.51
1630937442687,4.0
1630937442703,3.63
1630937442718,3.48
1630937442734,3.54
1630937442750,3.72
1630937442765,3.87
1630937442781,3.83
1630937442796,3.49
1630937442812,2.84
1630937442828,1.96
1630937442843,0.98
1630937442859,0.05
1630937442875,-0.76
1630937442890,-1.42
1630937442906,-1.93
1630937442921,-2.3
1630937442937,-2.56
1630937442953,-2.75
1630937442968,-2.94
1630937442984,-3.25
1630937443000,-3.76
1630937443015,-4.47
1630937443031,-5.28
1630937443046,-6.02
1630937443062,-6.52
1630937443078,-6.7
1630937443093,-6.53
1630937443109,-6.03
1630937443125,-5.24
1630937443140,-4.24
1630937443156,-3.13
1630937443171,-2.1
1630937443187,-1.28
1630937443203,-0.76
1630937443218,-0.52
1630937443234,-0.44
1630937443250,-0.44
1630937443265,-0.47
1630937443281,-0.53
1630937443296,-0.6
1630937443312,-0.57
1630937443328,-0.3
1630937443343,0.32
1630937443359,1.25
1630937443375,2.25
1630937443390,3.02
1630937443406,3.32
1630937443421,3.16
1630937443437,2.73
1630937443453,2.32
1630937443468,2.14
1630937443484,2.22
1630937443500,2.43
1630937443515,2.59
1630937443531,2.59
1630937443546,2.48
1630937443562,2.38
1630937443578,2.41
1630937443593,2.58
1630937443609,2.79
1630937443625,2.9
1630937443640,2.79
1630937443656,2.49
1630937443671,2.1
1630937443687,1.75
1630937443703,1.52
1630937443718,1.44
1630937443734,1.48
1630937443750,1.6
1630937443765,1.75
1630937443781,1.89
1630937443796,1.92
1630937443812,1.77
1630937443828,1.35
1630937443843,0.69
1630937443859,-0.12
1630937443875,-0.92
1630937443890,-1.56
1630937443906,-1.97
1630937443921,-2.2
1630937443937,-2.36
1630937443953,-2.6
1630937443968,-3.0
1630937443984,-3.58
1630937444000,-4.26
1630937444015,-4.92
1630937444031,-5.4
1630937444046,-5.56
1630937444062,-5.29
1630937444078,-4.58
1630937444093,-3.53
1630937444109,-2.3
1630937444125,-1.12
1630937444140,-0.18
1630937444156,0.42
1630937444171,0.67
1630937444187,0.62
1630937444203,0.37
1630937444218,0.02
1630937444234,-0.34
1630937444250,-0.6
1630937444265,-0.66
1630937444281,-0.42
1630937444296,0.15
1630937444312,0.95
1630937444328,1.79
1630937444343,2.42
1630937444359,2.66
1630937444375,2.48
1630937444390,2.02
1630937444406,1.52
1630937444421,1.24
1630937444437,1.32
1630937444453,1.7
1630937444468,2.26
1630937444484,2.79
1630937444500,3.15
1630937444515,3.29
1630937444531,3.27
1630937444546,3.17
1630937444562,3.06
1630937444578,2.98
1630937444593,2.93
1630937444609,2.91
1630937444625,2.91
1630937444640,2.88
1630937444656,2.8
1630937444671,2.59
1630937444687,2.24
1630937444703,1.8
1630937444718,1.35
1630937444734,1.01
1630937444750,0.82
1630937444765,0.76
1630937444781,0.73
1630937444796,0.61
1630937444812,0.28
1630937444828,-0.33
1630937444843,-1.2
1630937444859,-2.27
1630937444875,-3.39
1630937444890,-4.44
1630937444906,-5.31
1630937444921,-6.0
1630937444937,-6.57
1630937444953,-7.08
1630937444968,-7.6
1630937444984,-8.11
1630937445000,-8.53
1630937445015,-8.79
1630937445031,-8.88
1630937445046,-8.83
1630937445062,-8.7
1630937445078,-8.44
1630937445093,-7.92
1630937445109,-7.0
1630937445125,-5.56
1630937445140,-3.67
1630937445156,-1.57
1630937445171,0.46
1630937445187,2.13
1630937445203,3.27
1630937445218,3.83
1630937445234,3.87
1630937445250,3.56
1630937445265,3.14
1630937445281,2.83
1630937445296,2.82
1630937445312,3.19
1630937445328,3.89
1630937445343,4.72
1630937445359,5.5
1630937445375,6.06
1630937445390,6.36
1630937445406,6.43
1630937445421,6.32
1630937445437,6.08
1630937445453,5.72
1630937445468,5.27
1630937445484,4.77
1630937445500,4.32
1630937445515,3.98
1630937445531,3.78
1630937445546,3.67
1630937445562,3.57
1630937445578,3.41
1630937445593,3.18
1630937445609,2.9
1630937445625,2.62
1630937445640,2.34
1630937445656,2.07
1630937445671,1.77
1630937445687,1.45
1630937445703,1.17
1630937445718,0.94
1630937445734,0.73
1630937445750,0.45
1630937445765,-0.07
1630937445781,-0.86
1630937445796,-1.85
1630937445812,-2.81
1630937445828,-3.48
1630937445843,-3.73
1630937445859,-3.63
1630937445875,-3.45
1630937445890,-3.49
1630937445906,-3.96
1630937445921,-4.83
1630937445937,-5.88
1630937445953,-6.81
1630937445968,-7.38
1630937445984,-7.45
1630937446000,-7.01
1630937446015,-6.12
1630937446031,-4.93
1630937446046,-3.62
1630937446062,-2.4
1630937446078,-1.46
1630937446093,-0.93
1630937446109,-0.8
1630937446125,-0.94
1630937446140,-1.1
1630937446156,-1.04
1630937446171,-0.65
1630937446187,0.05
1630937446203,0.85
1630937446218,1.51
1630937446234,1.85
1630937446250,1.87
1630937446265,1.71
1630937446281,1.6
1630937446296,1.72
1630937446312,2.14
1630937446328,2.74
1630937446343,3.35
1630937446359,3.79
1630937446375,3.99
1630937446390,4.02
1630937446406,3.97
1630937446421,3.97
1630937446437,4.05
1630937446453,4.22
1630937446468,4.42
1630937446484,4.62
1630937446500,4.73
1630937446515,4.7
1630937446531,4.49
1630937446546,4.07
1630937446562,3.47
1630937446578,2.76
1630937446593,2.07
1630937446609,1.48
1630937446625,1.05
1630937446640,0.75
1630937446656,0.54
1630937446671,0.34
1630937446687,0.1
1630937446703,-0.22
1630937446718,-0.65
1630937446734,-1.19
1630937446750,-1.82
1630937446765,-2.5
1630937446781,-3.19
1630937446796,-3.85
1630937446812,-4.5
1630937446828,-5.17
1630937446843,-5.91
1630937446859,-6.7
1630937446875,-7.42
1630937446890,-7.9
1630937446906,-7.97
1630937446921,-7.55
1630937446937,-6.71
1630937446953,-5.6
1630937446968,-4.39
1630937446984,-3.23
1630937447000,-2.17
1630937447015,-1.21
1630937447031,-0.32
1630937447046,0.5
1630937447062,1.22
1630937447078,1.84
1630937447093,2.36
1630937447109,2.81
1630937447125,3.25
1630937447140,3.7
1630937447156,4.15
1630937447171,4.57
1630937447187,4.9
1630937447203,5.12
1630937447218,5.24
1630937447234,5.31
1630937447250,5.35
1630937447265,5.4
1630937447281,5.46
1630937447296,5.52
1630937447312,5.56
1630937447328,5.58
1630937447343,5.57
1630937447359,5.52
1630937447375,5.4
1630937447390,5.19
1630937447406,4.87
1630937447421,4.47
1630937447437,4.08
1630937447453,3.75
1630937447468,3.55
1630937447484,3.46
1630937447500,3.43
1630937447515,3.37
1630937447531,3.19
1630937447546,2.83
1630937447562,2.27
1630937447578,1.54
1630937447593,0.77
1630937447609,0.06
1630937447625,-0.49
1630937447640,-0.85
1630937447656,-1.12
1630937447671,-1.45
1630937447687,-1.95
1630937447703,-2.66
1630937447718,-3.48
1630937447734,-4.28
1630937447750,-4.94
1630937447765,-5.45
1630937447781,-5.88
1630937447796,-6.35
1630937447812,-6.9
1630937447828,-7.46
1630937447843,-7.87
1630937447859,-7.98
1630937447875,-7.73
1630937447890,-7.17
1630937447906,-6.44
1630937447921,-5.74
1630937447937,-5.19
1630937447953,-4.81
1630937447968,-4.53
1630937447984,-4.18
1630937448000,-3.62
1630937448015,-2.76
1630937448031,-1.63
1630937448046,-0.36
1630937448062,0.8
1630937448078,1.62
1630937448093,1.98
1630937448109,1.89
1630937448125,1.54
1630937448140,1.2
1630937448156,1.12
1630937448171,1.4
1630937448187,2.0
1630937448203,2.74
1630937448218,3.4
1630937448234,3.82
1630937448250,3.94
1630937448265,3.78
1630937448281,3.46
1630937448296,3.11
1630937448312,2.87
1630937448328,2.85
1630937448343,3.11
1630937448359,3.56
1630937448375,4.07
1630937448390,4.47
1630937448406,4.63
1630937448421,4.5
1630937448437,4.15
1630937448453,3.7
1630937448468,3.29
1630937448484,3.02
1630937448500,2.92
1630937448515,2.94
1630937448531,3.0
1630937448546,2.97
1630937448562,2.75
1630937448578,2.27
1630937448593,1.53
1630937448609,0.59
1630937448625,-0.46
1630937448640,-1.52
1630937448656,-2.51
1630937448671,-3.36
1630937448687,-4.04
1630937448703,-4.53
1630937448718,-4.85
1630937448734,-5.06
1630937448750,-5.25
1630937448765,-5.49
1630937448781,-5.79
1630937448796,-6.16
1630937448812,-6.56
1630937448828,-6.96
1630937448843,-7.33
1630937448859,-7.6
1630937448875,-7.64
1630937448890,-7.29
1630937448906,-6.4
1630937448921,-4.93
1630937448937,-3.02
1630937448953,-0.93
1630937448968,0.99
1630937448984,2.46
1630937449000,3.31
1630937449015,3.58
1630937449031,3.4
1630937449046,2.98
1630937449062,2.54
1630937449078,2.24
1630937449093,2.21
1630937449109,2.49
1630937449125,3.02
1630937449140,3.72
1630937449156,4.44
1630937449171,5.06
1630937449187,5.5
1630937449203,5.74
1630937449218,5.8
1630937449234,5.72
1630937449250,5.54
1630937449265,5.29
1630937449281,5.0
1630937449296,4.73
1630937449312,4.51
1630937449328,4.36
1630937449343,4.27
1630937449359,4.21
1630937449375,4.13
1630937449390,4.0
1630937449406,3.79
1630937449421,3.49
1630937449437,3.06
1630937449453,2.48
1630937449468,1.75
1630937449484,0.94
1630937449500,0.13
1630937449515,-0.55
1630937449531,-1.01
1630937449546,-1.2
1630937449562,-1.16
1630937449578,-0.99
1630937449593,-0.88
1630937449609,-1.01
1630937449625,-1.52
1630937449640,-2.4
1630937449656,-3.51
1630937449671,-4.65
1630937449687,-5.63
1630937449703,-6.37
1630937449718,-6.91
1630937449734,-7.35
1630937449750,-7.7
1630937449765,-7.9
1630937449781,-7.87
1630937449796,-7.52
1630937449812,-6.94
1630937449828,-6.29
1630937449843,-5.75
1630937449859,-5.4
1630937449875,-5.19
1630937449890,-4.95
1630937449906,-4.53
1630937449921,-3.87
1630937449937,-2.97
1630937449953,-1.95
1630937449968,-0.9
1630937449984,0.1
1630937450000,0.96
1630937450015,1.64
1630937450031,2.1
1630937450046,2.34
1630937450062,2.44
1630937450078,2.56
1630937450093,2.8
1630937450109,3.21
1630937450125,3.74
1630937450140,4.25
1630937450156,4.6
1630937450171,4.78
1630937450187,4.84
1630937450203,4.89
1630937450218,4.99
1630937450234,5.16
1630937450250,5.3
1630937450265,5.33
1630937450281,5.2
1630937450296,4.95
1630937450312,4.63
1630937450328,4.33
1630937450343,4.07
1630937450359,3.8
1630937450375,3.49
1630937450390,3.08
1630937450406,2.64
1630937450421,2.23
1630937450437,1.94
1630937450453,1.78
1630937450468,1.7
1630937450484,1.59
1630937450500,1.34
1630937450515,0.9
1630937450531,0.31
1630937450546,-0.37
1630937450562,-1.03
1630937450578,-1.61
1630937450593,-2.07
1630937450609,-2.4
1630937450625,-2.61
1630937450640,-2.73
1630937450656,-2.85
1630937450671,-3.08
1630937450687,-3.54
1630937450703,-4.26
1630937450718,-5.17
1630937450734,-6.08
1630937450750,-6.8
1630937450765,-7.22
1630937450781,-7.31
1630937450796,-7.12
1630937450812,-6.7
1630937450828,-6.04
1630937450843,-5.09
1630937450859,-3.89
1630937450875,-2.56
1630937450890,-1.34
1630937450906,-0.45
1630937450921,-0.0
1630937450937,0.1
1630937450953,0.11
1630937450968,0.35
1630937450984,0.99
1630937451000,2.03
1630937451015,3.24
1630937451031,4.3
1630937451046,4.92
1630937451062,4.95
1630937451078,4.45
1630937451093,3.63
1630937451109,2.74
1630937451125,2.0
1630937451140,1.49
1630937451156,1.22
1630937451171,1.17
1630937451187,1.29
1630937451203,1.58
1630937451218,1.99
1630937451234,2.48
1630937451250,2.94
1630937451265,3.26
1630937451281,3.38
1630937451296,3.3
1630937451312,3.11
1630937451328,2.91
1630937451343,2.78
1630937451359,2.71
1630937451375,2.63
1630937451390,2.43
1630937451406,2.05
1630937451421,1.47
1630937451437,0.78
1630937451453,0.1
1630937451468,-0.42
1630937451484,-0.71
1630937451500,-0.78
1630937451515,-0.74
1630937451531,-0.72
1630937451546,-0.86
1630937451562,-1.21
1630937451578,-1.76
1630937451593,-2.43
1630937451609,-3.12
1630937451625,-3.74
1630937451640,-4.23
1630937451656,-4.55
1630937451671,-4.68
1630937451687,-4.63
1630937451703,-4.48
1630937451718,-4.34
1630937451734,-4.36
1630937451750,-4.61
1630937451765,-5.11
1630937451781,-5.72
1630937451796,-6.26
1630937451812,-6.6
1630937451828,-6.63
1630937451843,-6.38
1630937451859,-5.93
1630937451875,-5.36
1630937451890,-4.71
1630937451906,-3.97
1630937451921,-3.13
1630937451937,-2.2
1630937451953,-1.26
1630937451968,-0.43
1630937451984,0.2
1630937452000,0.59
1630937452015,0.79
1630937452031,0.93
1630937452046,1.17
1630937452062,1.58
1630937452078,2.19
1630937452093,2.91
1630937452109,3.64
1630937452125,4.32
1630937452140,4.98
1630937452156,5.64
1630937452171,6.32
1630937452187,6.96
1630937452203,7.41
1630937452218,7.54
1630937452234,7.32
1630937452250,6.87
1630937452265,6.34
1630937452281,5.91
1630937452296,5.62
1630937452312,5.38
1630937452328,5.04
1630937452343,4.52
1630937452359,3.82
1630937452375,3.06
1630937452390,2.38
1630937452406,1.86
1630937452421,1.46
1630937452437,1.11
1630937452453,0.69
1630937452468,0.15
1630937452484,-0.49
1630937452500,-1.19
1630937452515,-1.91
1630937452531,-2.6
1630937452546,-3.25
1630937452562,-3.8
1630937452578,-4.21
1630937452593,-4.47
1630937452609,-4.64
1630937452625,-4.83
1630937452640,-5.16
1630937452656,-5.66
1630937452671,-6.26
1630937452687,-6.81
1630937452703,-7.14
1630937452718,-7.14
1630937452734,-6.83
1630937452750,-6.25
1630937452765,-5.48
1630937452781,-4.55
1630937452796,-3.48
1630937452812,-2.28
1630937452828,-1.05
1630937452843,0.11
1630937452859,1.08
1630937452875,1.78
1630937452890,2.23
1630937452906,2.48
1630937452921,2.56
1630937452937,2.5
1630937452953,2.35
1630937452968,2.15
1630937452984,2.02
1630937453000,2.06
1630937453015,2.31
1630937453031,2.73
1630937453046,3.17
1630937453062,3.49
1630937453078,3.66
1630937453093,3.74
1630937453109,3.87
1630937453125,4.15
1630937453140,4.58
1630937453156,5.05
1630937453171,5.37
1630937453187,5.45
1630937453203,5.27
1630937453218,4.92
1630937453234,4.45
1630937453250,3.91
1630937453265,3.26
1630937453281,2.5
1630937453296,1.7
1630937453312,0.97
1630937453328,0.44
1630937453343,0.16
1630937453359,0.05
1630937453375,-0.04
1630937453390,-0.23
1630937453406,-0.59
1630937453421,-1.05
1630937453437,-1.55
1630937453453,-2.03
1630937453468,-2.53
1630937453484,-3.14
1630937453500,-3.88
1630937453515,-4.67
1630937453531,-5.37
1630937453546,-5.83
1630937453562,-5.99
1630937453578,-5.98
1630937453593,-6.01
1630937453609,-6.29
1630937453625,-6.85
1630937453640,-7.56
1630937453656,-8.07
1630937453671,-8.06
1630937453687,-7.34
1630937453703,-5.95
1630937453718,-4.16
1630937453734,-2.35
1630937453750,-0.88
1630937453765,0.08
1630937453781,0.53
1630937453796,0.65
1630937453812,0.66
1630937453828,0.75
1630937453843,1.06
1630937453859,1.67
1630937453875,2.55
1630937453890,3.6
1630937453906,4.65
1630937453921,5.45
1630937453937,5.82
1630937453953,5.69
1630937453968,5.13
1630937453984,4.4
1630937454000,3.82
1630937454015,3.62
1630937454031,3.86
1630937454046,4.4
1630937454062,4.98
1630937454078,5.33
1630937454093,5.33
1630937454109,5.05
1630937454125,4.65
1630937454140,4.33
1630937454156,4.17
1630937454171,4.16
1630937454187,4.18
1630937454203,4.13
1630937454218,3.96
1630937454234,3.7
1630937454250,3.4
1630937454265,3.06
1630937454281,2.65
1630937454296,2.11
1630937454312,1.49
1630937454328,0.9
1630937454343,0.48
1630937454359,0.33
1630937454375,0.42
1630937454390,0.55
1630937454406,0.52
1630937454421,0.16
1630937454437,-0.54
1630937454453,-1.47
1630937454468,-2.47
1630937454484,-3.41
1630937454500,-4.25
1630937454515,-5.04
1630937454531,-5.81
1630937454546,-6.54
1630937454562,-7.1
1630937454578,-7.36
1630937454593,-7.25
1630937454609,-6.79
1630937454625,-6.16
1630937454640,-5.49
1630937454656,-4.86
1630937454671,-4.23
1630937454687,-3.5
1630937454703,-2.6
1630937454718,-1.58
1630937454734,-0.63
1630937454750,-0.02
1630937454765,0.07
1630937454781,-0.34
1630937454796,-1.01
1630937454812,-1.55
1630937454828,-1.58
1630937454843,-0.92
1630937454859,0.36
1630937454875,1.9
1630937454890,3.29
1630937454906,4.15
1630937454921,4.37
1630937454937,4.11
1630937454953,3.68
1630937454968,3.43
1630937454984,3.54
1630937455000,3.98
1630937455015,4.56
1630937455031,5.06
1630937455046,5.3
1630937455062,5.27
1630937455078,5.05
1630937455093,4.75
1630937455109,4.41
1630937455125,4.01
1630937455140,3.51
1630937455156,2.88
1630937455171,2.17
1630937455187,1.5
1630937455203,0.96
1630937455218,0.65
1630937455234,0.55
1630937455250,0.61
1630937455265,0.72
1630937455281,0.75
1630937455296,0.63
1630937455312,0.35
1630937455328,-0.01
1630937455343,-0.37
1630937455359,-0.65
1630937455375,-0.82
1630937455390,-0.97
1630937455406,-1.28
1630937455421,-1.92
1630937455437,-2.99
1630937455453,-4.43
1630937455468,-6.01
1630937455484,-7.36
1630937455500,-8.16
1630937455515,-8.22
1630937455531,-7.54
1630937455546,-6.34
1630937455562,-4.91
1630937455578,-3.54
1630937455593,-2.38
1630937455609,-1.47
1630937455625,-0.72
1630937455640,-0.05
1630937455656,0.57
1630937455671,1.11
1630937455687,1.5
1630937455703,1.71
1630937455718,1.76
1630937455734,1.71
1630937455750,1.64
1630937455765,1.61
1630937455781,1.64
1630937455796,1.72
1630937455812,1.82
1630937455828,1.88
1630937455843,1.88
1630937455859,1.78
1630937455875,1.59
1630937455890,1.35
1630937455906,1.14
1630937455921,1.02
1630937455937,1.06
1630937455953,1.28
1630937455968,1.66
1630937455984,2.14
1630937456000,2.6
1630937456015,2.9
1630937456031,2.93
1630937456046,2.64
1630937456062,2.06
1630937456078,1.37
1630937456093,0.75
1630937456109,0.36
1630937456125,0.27
1630937456140,0.4
1630937456156,0.6
1630937456171,0.72
1630937456187,0.66
1630937456203,0.39
1630937456218,-0.09
1630937456234,-0.73
1630937456250,-1.49
1630937456265,-2.3
1630937456281,-3.04
1630937456296,-3.62
1630937456312,-3.94
1630937456328,-4.02
1630937456343,-3.97
1630937456359,-3.96
1630937456375,-4.13
1630937456390,-4.5
1630937456406,-4.97
1630937456421,-5.33
1630937456437,-5.36
1630937456453,-4.97
1630937456468,-4.17
1630937456484,-3.14
1630937456500,-2.09
1630937456515,-1.22
1630937456531,-0.62
1630937456546,-0.27
1630937456562,-0.09
1630937456578,0.04
1630937456593,0.2
1630937456609,0.45
1630937456625,0.79
1630937456640,1.17
1630937456656,1.56
1630937456671,1.9
1630937456687,2.18
1630937456703,2.38
1630937456718,2.51
1630937456734,2.59
1630937456750,2.62
1630937456765,2.62
1630937456781,2.63
1630937456796,2.66
1630937456812,2.77
1630937456828,2.95
1630937456843,3.16
1630937456859,3.33
1630937456875,3.37
1630937456890,3.23
1630937456906,2.93
1630937456921,2.57
1630937456937,2.27
1630937456953,2.15
1630937456968,2.23
1630937456984,2.45
1630937457000,2.69
1630937457015,2.83
1630937457031,2.8
1630937457046,2.62
1630937457062,2.35
1630937457078,2.08
1630937457093,1.84
1630937457109,1.65
1630937457125,1.48
1630937457140,1.26
1630937457156,0.98
1630937457171,0.67
1630937457187,0.37
1630937457203,0.13
1630937457218,-0.05
1630937457234,-0.22
1630937457250,-0.49
1630937457265,-0.9
1630937457281,-1.44
1630937457296,-1.99
1630937457312,-2.41
1630937457328,-2.58
1630937457343,-2.49
1630937457359,-2.23
1630937457375,-1.95
1630937457390,-1.8
1630937457406,-1.86
1630937457421,-2.15
1630937457437,-2.6
1630937457453,-3.12
1630937457468,-3.56
1630937457484,-3.77
1630937457500,-3.67
1630937457515,-3.24
1630937457531,-2.58
1630937457546,-1.85
1630937457562,-1.25
1630937457578,-0.93
1630937457593,-0.94
1630937457609,-1.22
1630937457625,-1.67
1630937457640,-2.15
1630937457656,-2.5
1630937457671,-2.6
1630937457687,-2.41
1630937457703,-1.98
1630937457718,-1.45
1630937457734,-1.01
1630937457750,-0.78
1630937457765,-0.81
1630937457781,-1.02
1630937457796,-1.26
1630937457812,-1.37
1630937457828,-1.26
1630937457843,-0.91
1630937457859,-0.38
1630937457875,0.23
1630937457890,0.81
1630937457906,1.26
1630937457921,1.56
1630937457937,1.73
1630937457953,1.87
1630937457968,2.1
1630937457984,2.52
1630937458000,3.17
1630937458015,3.99
1630937458031,4.86
1630937458046,5.64
1630937458062,6.18
1630937458078,6.36
1630937458093,6.11
1630937458109,5.44
1630937458125,4.5
1630937458140,3.47
1630937458156,2.62
1630937458171,2.14
1630937458187,2.1
1630937458203,2.4
1630937458218,2.83
1630937458234,3.11
1630937458250,3.02
1630937458265,2.47
1630937458281,1.48
1630937458296,0.18
1630937458312,-1.24
1630937458328,-2.54
1630937458343,-3.52
1630937458359,-4.09
1630937458375,-4.26
1630937458390,-4.18
1630937458406,-4.09
1630937458421,-4.26
1630937458437,-4.82
1630937458453,-5.69
1630937458468,-6.59
1630937458484,-7.16
1630937458500,-7.13
1630937458515,-6.43
1630937458531,-5.26
1630937458546,-3.96
1630937458562,-2.86
1630937458578,-2.09
1630937458593,-1.57
1630937458609,-1.13
1630937458625,-0.62
1630937458640,-0.05
1630937458656,0.45
1630937458671,0.7
1630937458687,0.66
1630937458703,0.44
1630937458718,0.26
1630937458734,0.35
1630937458750,0.78
1630937458765,1.44
1630937458781,2.08
1630937458796,2.47
1630937458812,2.44
1630937458828,2.04
1630937458843,1.48
1630937458859,1.05
1630937458875,0.97
1630937458890,1.28
1630937458906,1.83
1630937458921,2.36
1630937458937,2.58
1630937458953,2.37
1630937458968,1.8
1630937458984,1.1
1630937459000,0.54
1630937459015,0.31
1630937459031,0.41
1630937459046,0.68
1630937459062,0.91
1630937459078,0.93
1630937459093,0.71
1630937459109,0.34
1630937459125,-0.03
1630937459140,-0.28
1630937459156,-0.36
1630937459171,-0.33
1630937459187,-0.27
1630937459203,-0.28
1630937459218,-0.38
1630937459234,-0.57
1630937459250,-0.83
1630937459265,-1.14
1630937459281,-1.54
1630937459296,-2.02
1630937459312,-2.55
1630937459328,-2.97
1630937459343,-3.12
1630937459359,-2.94
1630937459375,-2.48
1630937459390,-2.02
1630937459406,-1.84
1630937459421,-2.15
1630937459437,-2.92
1630937459453,-3.83
1630937459468,-4.51
1630937459484,-4.61
1630937459500,-4.08
1630937459515,-3.1
1630937459531,-2.01
1630937459546,-1.1
1630937459562,-0.5
1630937459578,-0.18
1630937459593,0.02
1630937459609,0.22
1630937459625,0.42
1630937459640,0.56
1630937459656,0.54
1630937459671,0.35
1630937459687,0.06
1630937459703,-0.18
1630937459718,-0.22
1630937459734,-0.0
1630937459750,0.45
1630937459765,1.0
1630937459781,1.49
1630937459796,1.81
1630937459812,1.9
1630937459828,1.83
1630937459843,1.73
1630937459859,1.71
1630937459875,1.85
1630937459890,2.11
1630937459906,2.44
1630937459921,2.74
1630937459937,3.0
1630937459953,3.22
1630937459968,3.46
1630937459984,3.73
1630937460000,3.95
1630937460015,4.05
1630937460031,3.96
1630937460046,3.66
1630937460062,3.2
1630937460078,2.63
1630937460093,2.02
1630937460109,1.41
1630937460125,0.84
1630937460140,0.37
1630937460156,0.02
1630937460171,-0.16
1630937460187,-0.22
1630937460203,-0.19
1630937460218,-0.15
1630937460234,-0.16
1630937460250,-0.29
1630937460265,-0.57
1630937460281,-1.04
1630937460296,-1.7
1630937460312,-2.5
1630937460328,-3.32
1630937460343,-4.0
1630937460359,-4.38
1630937460375,-4.39
1630937460390,-4.08
1630937460406,-3.64
1630937460421,-3.25
1630937460437,-3.08
1630937460453,-3.16
1630937460468,-3.38
1630937460484,-3.55
1630937460500,-3.48
1630937460515,-3.08
1630937460531,-2.41
1630937460546,-1.62
1630937460562,-0.87
1630937460578,-0.31
1630937460593,-0.01
1630937460609,0.04
1630937460625,-0.12
1630937460640,-0.42
1630937460656,-0.77
1630937460671,-1.06
1630937460687,-1.16
1630937460703,-1.0
1630937460718,-0.61
1630937460734,-0.12
1630937460750,0.27
1630937460765,0.41
1630937460781,0.28
1630937460796,0.04
1630937460812,-0.09
1630937460828,0.11
1630937460843,0.76
1630937460859,1.78
1630937460875,2.93
1630937460890,3.92
1630937460906,4.52
1630937460921,4.59
1630937460937,4.16
1630937460953,3.38
1630937460968,2.47
1630937460984,1.66
1630937461000,1.11
1630937461015,0.92
1630937461031,1.07
1630937461046,1.47
1630937461062,1.95
1630937461078,2.36
1630937461093,2.54
1630937461109,2.39
1630937461125,1.89
1630937461140,1.12
1630937461156,0.24
1630937461171,-0.54
1630937461187,-1.06
1630937461203,-1.22
1630937461218,-1.03
1630937461234,-0.62
1630937461250,-0.23
1630937461265,-0.08
1630937461281,-0.33
1630937461296,-1.02
1630937461312,-2.05
1630937461328,-3.24
1630937461343,-4.35
1630937461359,-5.19
1630937461375,-5.66
1630937461390,-5.78
1630937461406,-5.68
1630937461421,-5.51
1630937461437,-5.4
1630937461453,-5.39
1630937461468,-5.44
1630937461484,-5.48
1630937461500,-5.42
1630937461515,-5.18
1630937461531,-4.71
1630937461546,-3.96
1630937461562,-2.93
1630937461578,-1.69
1630937461593,-0.37
1630937461609,0.83
1630937461625,1.72
1630937461640,2.18
1630937461656,2.19
1630937461671,1.86
1630937461687,1.39
1630937461703,1.03
1630937461718,0.97
1630937461734,1.29
1630937461750,1.94
1630937461765,2.74
1630937461781,3.46
1630937461796,3.94
1630937461812,4.1
1630937461828,4.0
1630937461843,3.75
1630937461859,3.46
1630937461875,3.23
1630937461890,3.09
1630937461906,3.0
1630937461921,2.93
1630937461937,2.83
1630937461953,2.68
1630937461968,2.48
1630937461984,2.26
1630937462000,2.05
1630937462015,1.91
1630937462031,1.84
1630937462046,1.83
1630937462062,1.81
1630937462078,1.75
1630937462093,1.62
1630937462109,1.48
1630937462125,1.38
1630937462140,1.31
1630937462156,1.2
1630937462171,0.92
1630937462187,0.37
1630937462203,-0.47
1630937462218,-1.48
1630937462234,-2.48
1630937462250,-3.29
1630937462265,-3.82
1630937462281,-4.12
1630937462296,-4.31
1630937462312,-4.5
1630937462328,-4.72
1630937462343,-4.89
1630937462359,-4.88
1630937462375,-4.64
1630937462390,-4.15
1630937462406,-3.54
1630937462421,-2.93
1630937462437,-2.41
1630937462453,-1.99
1630937462468,-1.6
1630937462484,-1.17
1630937462500,-0.64
1630937462515,-0.07
1630937462531,0.48
1630937462546,0.87
1630937462562,1.04
1630937462578,0.97
1630937462593,0.78
1630937462609,0.61
1630937462625,0.64
1630937462640,0.89
1630937462656,1.31
1630937462671,1.72
1630937462687,1.98
1630937462703,2.09
1630937462718,2.14
1630937462734,2.31
1630937462750,2.65
1630937462765,3.12
1630937462781,3.54
1630937462796,3.73
1630937462812,3.62
1630937462828,3.3
1630937462843,2.96
1630937462859,2.76
1630937462875,2.72
1630937462890,2.73
1630937462906,2.62
1630937462921,2.28
1630937462937,1.74
1630937462953,1.15
1630937462968,0.74
1630937462984,0.62
1630937463000,0.81
1630937463015,1.22
1630937463031,1.66
1630937463046,1.98
1630937463062,2.12
1630937463078,2.03
1630937463093,1.74
1630937463109,1.25
1630937463125,0.59
1630937463140,-0.2
1630937463156,-1.0
1630937463171,-1.64
1630937463187,-2.04
1630937463203,-2.15
1630937463218,-2.1
1630937463234,-2.02
1630937463250,-2.1
1630937463265,-2.39
1630937463281,-2.87
1630937463296,-3.41
1630937463312,-3.87
1630937463328,-4.14
1630937463343,-4.16
1630937463359,-3.92
1630937463375,-3.48
1630937463390,-2.92
1630937463406,-2.35
1630937463421,-1.85
1630937463437,-1.48
1630937463453,-1.26
1630937463468,-1.17
1630937463484,-1.17
1630937463500,-1.23
1630937463515,-1.32
1630937463531,-1.4
1630937463546,-1.43
1630937463562,-1.36
1630937463578,-1.15
1630937463593,-0.8
1630937463609,-0.36
1630937463625,0.07
1630937463640,0.42
1630937463656,0.64
1630937463671,0.78
1630937463687,0.9
1630937463703,1.08
1630937463718,1.33
1630937463734,1.6
1630937463750,1.83
1630937463765,1.99
1630937463781,2.06
1630937463796,2.11
1630937463812,2.17
1630937463828,2.28
1630937463843,2.42
1630937463859,2.56
1630937463875,2.7
1630937463890,2.83
1630937463906,2.93
1630937463921,2.92
1630937463937,2.7
1630937463953,2.22
1630937463968,1.53
1630937463984,0.79
1630937464000,0.21
1630937464015,-0.04
1630937464031,0.1
1630937464046,0.52
1630937464062,1.03
1630937464078,1.43
1630937464093,1.54
1630937464109,1.29
1630937464125,0.67
1630937464140,-0.22
1630937464156,-1.23
1630937464171,-2.2
1630937464187,-3.0
1630937464203,-3.56
1630937464218,-3.93
1630937464234,-4.2
1630937464250,-4.45
1630937464265,-4.69
1630937464281,-4.88
1630937464296,-4.95
1630937464312,-4.9
1630937464328,-4.74
1630937464343,-4.53
1630937464359,-4.24
1630937464375,-3.84
1630937464390,-3.24
1630937464406,-2.43
1630937464421,-1.54
1630937464437,-0.76
1630937464453,-0.28
1630937464468,-0.17
1630937464484,-0.32
1630937464500,-0.52
1630937464515,-0.57
1630937464531,-0.36
1630937464546,0.1
1630937464562,0.7
1630937464578,1.32
1630937464593,1.91
1630937464609,2.44
1630937464625,2.9
1630937464640,3.27
1630937464656,3.51
1630937464671,3.58
1630937464687,3.52
1630937464703,3.4
1630937464718,3.32
1630937464734,3.36
1630937464750,3.5
1630937464765,3.67
1630937464781,3.79
1630937464796,3.78
1630937464812,3.65
1630937464828,3.46
1630937464843,3.28
1630937464859,3.18
1630937464875,3.17
1630937464890,3.18
1630937464906,3.15
1630937464921,3.0
1630937464937,2.7
1630937464953,2.27
1630937464968,1.75
1630937464984,1.21
1630937465000,0.67
1630937465015,0.11
1630937465031,-0.47
1630937465046,-1.06
1630937465062,-1.6
1630937465078,-2.01
1630937465093,-2.23
1630937465109,-2.27
1630937465125,-2.2
1630937465140,-2.15
1630937465156,-2.23
1630937465171,-2.45
1630937465187,-2.77
1630937465203,-3.01
1630937465218,-3.06
1630937465234,-2.81
1630937465250,-2.33
1630937465265,-1.72
1630937465281,-1.17
1630937465296,-0.8
1630937465312,-0.65
1630937465328,-0.67
1630937465343,-0.77
1630937465359,-0.88
1630937465375,-0.98
1630937465390,-1.1
1630937465406,-1.26
1630937465421,-1.49
1630937465437,-1.7
1630937465453,-1.77
1630937465468,-1.58
1630937465484,-1.11
1630937465500,-0.42
1630937465515,0.33
1630937465531,1.03
1630937465546,1.6
1630937465562,2.07
1630937465578,2.49
1630937465593,2.87
1630937465609,3.18
1630937465625,3.37
1630937465640,3.37
1630937465656,3.21
1630937465671,2.96
1630937465687,2.76
1630937465703,2.71
1630937465718,2.84
1630937465734,3.08
1630937465750,3.31
1630937465765,3.38
1630937465781,3.19
1630937465796,2.72
1630937465812,2.03
1630937465828,1.28
1630937465843,0.62
1630937465859,0.2
1630937465875,0.08
1630937465890,0.2
1630937465906,0.41
1630937465921,0.55
1630937465937,0.49
1630937465953,0.21
1630937465968,-0.25
1630937465984,-0.79
1630937466000,-1.35
1630937466015,-1.89
1630937466031,-2.43
1630937466046,-2.96
1630937466062,-3.44
1630937466078,-3.8
1630937466093,-3.99
1630937466109,-4.03
1630937466125,-4.03
1630937466140,-4.12
1630937466156,-4.35
1630937466171,-4.67
1630937466187,-4.88
1630937466203,-4.78
1630937466218,-4.25
1630937466234,-3.31
1630937466250,-2.19
1630937466265,-1.15
1630937466281,-0.42
1630937466296,-0.06
1630937466312,0.02
1630937466328,-0.03
1630937466343,-0.08
1630937466359,-0.07
1630937466375,-0.07
1630937466390,-0.12
1630937466406,-0.24
1630937466421,-0.34
1630937466437,-0.3
1630937466453,-0.02
1630937466468,0.5
1630937466484,1.17
1630937466500,1.84
1630937466515,2.34
1630937466531,2.63
1630937466546,2.73
1630937466562,2.72
1630937466578,2.7
1630937466593,2.74
1630937466609,2.87
1630937466625,3.11
1630937466640,3.42
1630937466656,3.76
1630937466671,4.06
1630937466687,4.23
1630937466703,4.22
1630937466718,4.01
1630937466734,3.64
1630937466750,3.21
1630937466765,2.84
1630937466781,2.61
1630937466796,2.56
1630937466812,2.66
1630937466828,2.85
1630937466843,3.03
1630937466859,3.11
1630937466875,3.03
1630937466890,2.76
1630937466906,2.27
1630937466921,1.58
1630937466937,0.73
1630937466953,-0.21
1630937466968,-1.12
1630937466984,-1.92
1630937467000,-2.5
1630937467015,-2.86
1630937467031,-3.04
1630937467046,-3.13
1630937467062,-3.21
1630937467078,-3.34
1630937467093,-3.52
1630937467109,-3.75
1630937467125,-4.02
1630937467140,-4.33
1630937467156,-4.68
1630937467171,-5.02
1630937467187,-5.28
1630937467203,-5.3
1630937467218,-4.98
1630937467234,-4.26
1630937467250,-3.2
1630937467265,-2.0
1630937467281,-0.89
1630937467296,-0.11
1630937467312,0.2
1630937467328,0.06
1630937467343,-0.36
1630937467359,-0.8
1630937467375,-1.04
1630937467390,-0.93
1630937467406,-0.48
1630937467421,0.15
1630937467437,0.76
1630937467453,1.15
1630937467468,1.24
1630937467484,1.06
1630937467500,0.77
1630937467515,0.56
1630937467531,0.54
1630937467546,0.75
1630937467562,1.16
1630937467578,1.68
1630937467593,2.21
1630937467609,2.67
1630937467625,2.96
1630937467640,2.96
1630937467656,2.58
1630937467671,1.81
1630937467687,0.77
1630937467703,-0.26
1630937467718,-0.98
1630937467734,-1.15
1630937467750,-0.73
1630937467765,0.09
1630937467781,1.02
1630937467796,1.78
1630937467812,2.22
1630937467828,2.35
1630937467843,2.29
1630937467859,2.14
1630937467875,1.99
1630937467890,1.87
1630937467906,1.82
1630937467921,1.82
1630937467937,1.86
1630937467953,1.85
1630937467968,1.7
1630937467984,1.3
1630937468000,0.65
1630937468015,-0.16
1630937468031,-0.95
1630937468046,-1.56
1630937468062,-1.95
1630937468078,-2.15
1630937468093,-2.29
1630937468109,-2.45
1630937468125,-2.63
1630937468140,-2.77
1630937468156,-2.82
1630937468171,-2.77
1630937468187,-2.64
1630937468203,-2.44
1630937468218,-2.1
1630937468234,-1.54
1630937468250,-0.77
1630937468265,0.09
1630937468281,0.76
1630937468296,0.96
1630937468312,0.55
1630937468328,-0.38
1630937468343,-1.53
1630937468359,-2.54
1630937468375,-3.14
1630937468390,-3.24
1630937468406,-2.92
1630937468421,-2.34
1630937468437,-1.61
1630937468453,-0.82
1630937468468,-0.05
1630937468484,0.63
1630937468500,1.12
1630937468515,1.4
1630937468531,1.48
1630937468546,1.5
1630937468562,1.55
1630937468578,1.72
1630937468593,1.97
1630937468609,2.22
1630937468625,2.39
1630937468640,2.43
1630937468656,2.39
1630937468671,2.34
1630937468687,2.3
1630937468703,2.24
1630937468718,2.11
1630937468734,1.88
1630937468750,1.61
1630937468765,1.36
1630937468781,1.15
1630937468796,0.93
1630937468812,0.61
1630937468828,0.11
1630937468843,-0.49
1630937468859,-1.02
1630937468875,-1.3
1630937468890,-1.24
1630937468906,-0.93
1630937468921,-0.6
1630937468937,-0.49
1630937468953,-0.7
1630937468968,-1.18
1630937468984,-1.75
1630937469000,-2.23
1630937469015,-2.51
1630937469031,-2.6
1630937469046,-2.53
1630937469062,-2.34
1630937469078,-2.05
1630937469093,-1.7
1630937469109,-1.36
1630937469125,-1.12
1630937469140,-1.07
1630937469156,-1.28
1630937469171,-1.67
1630937469187,-2.1
1630937469203,-2.37
1630937469218,-2.32
1630937469234,-1.9
1630937469250,-1.19
1630937469265,-0.38
1630937469281,0.38
1630937469296,0.95
1630937469312,1.33
1630937469328,1.59
1630937469343,1.8
1630937469359,2.02
1630937469375,2.2
1630937469390,2.25
1630937469406,2.11
1630937469421,1.78
1630937469437,1.33
1630937469453,0.92
1630937469468,0.66
1630937469484,0.66
1630937469500,0.9
1630937469515,1.3
1630937469531,1.71
1630937469546,1.96
1630937469562,1.98
1630937469578,1.74
1630937469593,1.35
1630937469609,0.97
1630937469625,0.76
1630937469640,0.8
1630937469656,1.04
1630937469671,1.38
1630937469687,1.67
1630937469703,1.81
1630937469718,1.78
1630937469734,1.65
1630937469750,1.49
1630937469765,1.37
1630937469781,1.33
1630937469796,1.38
1630937469812,1.49
1630937469828,1.65
1630937469843,1.84
1630937469859,2.01
1630937469875,2.08
1630937469890,1.94
1630937469906,1.53
1630937469921,0.85
1630937469937,-0.02
1630937469953,-0.91
1630937469968,-1.63
1630937469984,-2.07
1630937470000,-2.26
1630937470015,-2.34
1630937470031,-2.48
1630937470046,-2.81
1630937470062,-3.31
1630937470078,-3.81
1630937470093,-4.08
1630937470109,-3.97
1630937470125,-3.54
1630937470140,-2.98
1630937470156,-2.6
1630937470171,-2.57
1630937470187,-2.9
1630937470203,-3.4
1630937470218,-3.81
1630937470234,-3.92
1630937470250,-3.64
1630937470265,-3.07
1630937470281,-2.36
1630937470296,-1.67
1630937470312,-1.06
1630937470328,-0.56
1630937470343,-0.13
1630937470359,0.24
1630937470375,0.51
1630937470390,0.66
1630937470406,0.63
1630937470421,0.48
1630937470437,0.33
1630937470453,0.34
1630937470468,0.64
1630937470484,1.26
1630937470500,2.09
1630937470515,2.94
1630937470531,3.57
1630937470546,3.84
1630937470562,3.7
1630937470578,3.25
1630937470593,2.7
1630937470609,2.22
1630937470625,1.94
1630937470640,1.83
1630937470656,1.82
1630937470671,1.81
1630937470687,1.73
1630937470703,1.58
1630937470718,1.39
1630937470734,1.23
1630937470750,1.1
1630937470765,1.0
1630937470781,0.88
1630937470796,0.7
1630937470812,0.48
1630937470828,0.25
1630937470843,0.06
1630937470859,-0.08
1630937470875,-0.2
1630937470890,-0.37
1630937470906,-0.65
1630937470921,-1.07
1630937470937,-1.61
1630937470953,-2.17
1630937470968,-2.68
1630937470984,-3.06
1630937471000,-3.3
1630937471015,-3.44
1630937471031,-3.54
1630937471046,-3.65
1630937471062,-3.77
1630937471078,-3.85
1630937471093,-3.83
1630937471109,-3.62
1630937471125,-3.15
1630937471140,-2.45
1630937471156,-1.55
1630937471171,-0.59
1630937471187,0.33
1630937471203,1.09
1630937471218,1.62
1630937471234,1.9
1630937471250,1.95
1630937471265,1.79
1630937471281,1.48
1630937471296,1.05
1630937471312,0.58
1630937471328,0.13
1630937471343,-0.18
1630937471359,-0.26
1630937471375,-0.03
1630937471390,0.5
1630937471406,1.21
1630937471421,1.95
1630937471437,2.56
1630937471453,2.95
1630937471468,3.11
1630937471484,3.11
1630937471500,3.02
1630937471515,2.88
1630937471531,2.73
1630937471546,2.59
1630937471562,2.5
1630937471578,2.5
1630937471593,2.6
1630937471609,2.76
1630937471625,2.89
1630937471640,2.9
1630937471656,2.74
1630937471671,2.46
1630937471687,2.11
1630937471703,1.76
1630937471718,1.46
1630937471734,1.19
1630937471750,0.97
1630937471765,0.81
1630937471781,0.76
1630937471796,0.81
1630937471812,0.92
1630937471828,0.96
1630937471843,0.86
1630937471859,0.55
1630937471875,0.12
1630937471890,-0.35
1630937471906,-0.76
1630937471921,-1.1
1630937471937,-1.4
1630937471953,-1.72
1630937471968,-2.06
1630937471984,-2.37
1630937472000,-2.62
1630937472015,-2.83
1630937472031,-3.1
1630937472046,-3.51
1630937472062,-4.1
1630937472078,-4.75
1630937472093,-5.26
1630937472109,-5.43
1630937472125,-5.18
1630937472140,-4.6
1630937472156,-3.85
1630937472171,-3.13
1630937472187,-2.55
1630937472203,-2.17
1630937472218,-1.99
1630937472234,-1.96
1630937472250,-2.04
1630937472265,-2.13
1630937472281,-2.12
1630937472296,-1.9
1630937472312,-1.43
1630937472328,-0.77
1630937472343,-0.04
1630937472359,0.61
1630937472375,1.03
1630937472390,1.14
1630937472406,0.96
1630937472421,0.61
1630937472437,0.25
1630937472453,0.07
1630937472468,0.19
1630937472484,0.61
1630937472500,1.22
1630937472515,1.85
1630937472531,2.35
1630937472546,2.66
1630937472562,2.79
1630937472578,2.8
1630937472593,2.76
1630937472609,2.69
1630937472625,2.61
1630937472640,2.52
1630937472656,2.44
1630937472671,2.38
1630937472687,2.32
1630937472703,2.23
1630937472718,2.1
1630937472734,1.93
1630937472750,1.74
1630937472765,1.57
1630937472781,1.45
1630937472796,1.36
1630937472812,1.29
1630937472828,1.21
1630937472843,1.11
1630937472859,0.97
1630937472875,0.77
1630937472890,0.47
1630937472906,0.08
1630937472921,-0.39
1630937472937,-0.87
1630937472953,-1.3
1630937472968,-1.66
1630937472984,-1.92
1630937473000,-2.07
1630937473015,-2.11
1630937473031,-2.02
1630937473046,-1.83
1630937473062,-1.65
1630937473078,-1.61
1630937473093,-1.79
1630937473109,-2.18
1630937473125,-2.61
1630937473140,-2.85
1630937473156,-2.76
1630937473171,-2.35
1630937473187,-1.79
1630937473203,-1.33
1630937473218,-1.11
1630937473234,-1.11
1630937473250,-1.19
1630937473265,-1.2
1630937473281,-1.05
1630937473296,-0.77
1630937473312,-0.45
1630937473328,-0.17
1630937473343,0.06
1630937473359,0.31
1630937473375,0.64
1630937473390,1.04
1630937473406,1.4
1630937473421,1.61
1630937473437,1.58
1630937473453,1.34
1630937473468,1.03
1630937473484,0.79
1630937473500,0.71
1630937473515,0.76
1630937473531,0.81
1630937473546,0.77
1630937473562,0.6
1630937473578,0.38
1630937473593,0.22
1630937473609,0.21
1630937473625,0.34
1630937473640,0.56
1630937473656,0.76
1630937473671,0.92
1630937473687,1.04
1630937473703,1.17
1630937473718,1.33
1630937473734,1.49
1630937473750,1.58
1630937473765,1.54
1630937473781,1.37
1630937473796,1.09
1630937473812,0.75
1630937473828,0.44
1630937473843,0.21
1630937473859,0.07
1630937473875,-0.01
1630937473890,-0.09
1630937473906,-0.25
1630937473921,-0.5
1630937473937,-0.8
1630937473953,-1.1
1630937473968,-1.32
1630937473984,-1.46
1630937474000,-1.57
1630937474015,-1.71
1630937474031,-1.91
1630937474046,-2.16
1630937474062,-2.38
1630937474078,-2.54
1630937474093,-2.68
1630937474109,-2.84
1630937474125,-3.07
1630937474140,-3.34
1630937474156,-3.57
1630937474171,-3.69
1630937474187,-3.71
1630937474203,-3.69
1630937474218,-3.71
1630937474234,-3.75
1630937474250,-3.73
1630937474265,-3.5
1630937474281,-2.96
1630937474296,-2.15
1630937474312,-1.23
1630937474328,-0.41
1630937474343,0.17
1630937474359,0.48
1630937474375,0.61
1630937474390,0.69
1630937474406,0.79
1630937474421,0.97
1630937474437,1.21
1630937474453,1.53
1630937474468,1.95
1630937474484,2.48
1630937474500,3.12
1630937474515,3.8
1630937474531,4.39
1630937474546,4.76
1630937474562,4.83
1630937474578,4.53
1630937474593,3.87
1630937474609,2.95
1630937474625,1.94
1630937474640,1.08
1630937474656,0.6
1630937474671,0.63
1630937474687,1.15
1630937474703,2.0
1630937474718,2.93
1630937474734,3.68
1630937474750,4.1
1630937474765,4.16
1630937474781,3.93
1630937474796,3.51
1630937474812,2.99
1630937474828,2.41
1630937474843,1.81
1630937474859,1.25
1630937474875,0.84
1630937474890,0.63
1630937474906,0.63
1630937474921,0.75
1630937474937,0.8
1630937474953,0.62
1630937474968,0.08
1630937474984,-0.81
1630937475000,-1.94
1630937475015,-3.13
1630937475031,-4.18
1630937475046,-4.97
1630937475062,-5.42
1630937475078,-5.58
1630937475093,-5.5
1630937475109,-5.31
1630937475125,-5.1
1630937475140,-4.94
1630937475156,-4.85
1630937475171,-4.83
1630937475187,-4.82
1630937475203,-4.76
1630937475218,-4.55
1630937475234,-4.11
1630937475250,-3.38
1630937475265,-2.38
1630937475281,-1.26
1630937475296,-0.22
1630937475312,0.53
1630937475328,0.87
1630937475343,0.83
1630937475359,0.61
1630937475375,0.44
1630937475390,0.51
1630937475406,0.88
1630937475421,1.47
1630937475437,2.13
1630937475453,2.69
1630937475468,3.06
1630937475484,3.2
1630937475500,3.13
1630937475515,2.91
1630937475531,2.63
1630937475546,2.37
1630937475562,2.21
1630937475578,2.2
1630937475593,2.33
1630937475609,2.56
1630937475625,2.82
1630937475640,3.08
1630937475656,3.31
1630937475671,3.53
1630937475687,3.72
1630937475703,3.86
1630937475718,3.88
1630937475734,3.71
1630937475750,3.29
1630937475765,2.66
1630937475781,1.93
1630937475796,1.25
1630937475812,0.77
1630937475828,0.56
1630937475843,0.59
1630937475859,0.75
1630937475875,0.91
1630937475890,0.93
1630937475906,0.75
1630937475921,0.37
1630937475937,-0.21
1630937475953,-0.89
1630937475968,-1.59
1630937475984,-2.19
1630937476000,-2.61
1630937476015,-2.85
1630937476031,-2.95
1630937476046,-3.02
1630937476062,-3.15
1630937476078,-3.38
1630937476093,-3.72
1630937476109,-4.11
1630937476125,-4.53
1630937476140,-4.93
1630937476156,-5.22
1630937476171,-5.31
1630937476187,-5.08
1630937476203,-4.49
1630937476218,-3.59
1630937476234,-2.57
1630937476250,-1.63
1630937476265,-0.92
1630937476281,-0.51
1630937476296,-0.34
1630937476312,-0.32
1630937476328,-0.34
1630937476343,-0.32
1630937476359,-0.19
1630937476375,0.1
1630937476390,0.57
1630937476406,1.23
1630937476421,1.99
1630937476437,2.72
1630937476453,3.31
1630937476468,3.7
1630937476484,3.88
1630937476500,3.85
1630937476515,3.66
1630937476531,3.31
1630937476546,2.86
1630937476562,2.35
1630937476578,1.87
1630937476593,1.48
1630937476609,1.21
1630937476625,1.03
1630937476640,0.91
1630937476656,0.85
1630937476671,0.89
1630937476687,1.07
1630937476703,1.37
1630937476718,1.72
1630937476734,1.98
1630937476750,2.04
1630937476765,1.91
1630937476781,1.68
1630937476796,1.51
1630937476812,1.5
1630937476828,1.62
1630937476843,1.75
1630937476859,1.72
1630937476875,1.43
1630937476890,0.94
1630937476906,0.41
1630937476921,0.02
1630937476937,-0.15
1630937476953,-0.17
1630937476968,-0.2
1630937476984,-0.41
1630937477000,-0.88
1630937477015,-1.54
1630937477031,-2.26
1630937477046,-2.91
1630937477062,-3.42
1630937477078,-3.8
1630937477093,-4.09
1630937477109,-4.32
1630937477125,-4.48
1630937477140,-4.57
1630937477156,-4.61
1630937477171,-4.7
1630937477187,-4.93
1630937477203,-5.35
1630937477218,-5.9
1630937477234,-6.44
1630937477250,-6.76
1630937477265,-6.7
1630937477281,-6.22
1630937477296,-5.39
1630937477312,-4.37
1630937477328,-3.28
1630937477343,-2.21
1630937477359,-1.18
1630937477375,-0.23
1630937477390,0.59
1630937477406,1.16
1630937477421,1.4
1630937477437,1.33
1630937477453,1.09
1630937477468,0.94
1630937477484,1.1
1630937477500,1.65
1630937477515,2.5
1630937477531,3.4
1630937477546,4.1
1630937477562,4.45
1630937477578,4.45
1630937477593,4.22
1630937477609,3.94
1630937477625,3.73
1630937477640,3.63
1630937477656,3.63
1630937477671,3.73
1630937477687,3.9
1630937477703,4.15
1630937477718,4.42
1630937477734,4.62
1630937477750,4.66
1630937477765,4.5
1630937477781,4.18
1630937477796,3.8
1630937477812,3.47
1630937477828,3.27
1630937477843,3.17
1630937477859,3.13
1630937477875,3.06
1630937477890,2.94
1630937477906,2.74
1630937477921,2.45
1630937477937,2.04
1630937477953,1.5
1630937477968,0.83
1630937477984,0.08
1630937478000,-0.68
1630937478015,-1.37
1630937478031,-1.92
1630937478046,-2.33
1630937478062,-2.65
1630937478078,-2.93
1630937478093,-3.22
1630937478109,-3.59
1630937478125,-4.06
1630937478140,-4.66
1630937478156,-5.31
1630937478171,-5.93
1630937478187,-6.35
1630937478203,-6.47
1630937478218,-6.19
1630937478234,-5.52
1630937478250,-4.53
1630937478265,-3.37
1630937478281,-2.19
1630937478296,-1.15
1630937478312,-0.33
1630937478328,0.23
1630937478343,0.62
1630937478359,0.94
1630937478375,1.31
1630937478390,1.78
1630937478406,2.29
1630937478421,2.75
1630937478437,3.04
1630937478453,3.13
1630937478468,3.04
1630937478484,2.89
1630937478500,2.8
1630937478515,2.81
1630937478531,2.93
1630937478546,3.14
1630937478562,3.39
1630937478578,3.65
1630937478593,3.91
1630937478609,4.15
1630937478625,4.34
1630937478640,4.5
1630937478656,4.63
1630937478671,4.74
1630937478687,4.82
1630937478703,4.83
1630937478718,4.74
1630937478734,4.53
1630937478750,4.25
1630937478765,3.96
1630937478781,3.69
1630937478796,3.42
1630937478812,3.05
1630937478828,2.53
1630937478843,1.84
1630937478859,1.09
1630937478875,0.43
1630937478890,0.02
1630937478906,-0.12
1630937478921,-0.07
1630937478937,-0.02
1630937478953,-0.17
1630937478968,-0.65
1630937478984,-1.52
1630937479000,-2.7
1630937479015,-4.03
1630937479031,-5.29
1630937479046,-6.27
1630937479062,-6.83
1630937479078,-6.96
1630937479093,-6.76
1630937479109,-6.4
1630937479125,-6.02
1630937479140,-5.69
1630937479156,-5.39
1630937479171,-5.05
1630937479187,-4.61
1630937479203,-4.06
1630937479218,-3.42
1630937479234,-2.71
1630937479250,-1.93
1630937479265,-1.07
1630937479281,-0.16
1630937479296,0.7
1630937479312,1.29
1630937479328,1.45
1630937479343,1.09
1630937479359,0.34
1630937479375,-0.53
1630937479390,-1.2
1630937479406,-1.45
1630937479421,-1.22
1630937479437,-0.67
1630937479453,-0.03
1630937479468,0.49
1630937479484,0.79
1630937479500,0.93
1630937479515,1.01
1630937479531,1.15
1630937479546,1.39
1630937479562,1.71
1630937479578,2.01
1630937479593,2.23
1630937479609,2.32
1630937479625,2.27
1630937479640,2.1
1630937479656,1.85
1630937479671,1.56
1630937479687,1.3
1630937479703,1.12
1630937479718,1.1
1630937479734,1.25
1630937479750,1.58
1630937479765,2.01
1630937479781,2.43
1630937479796,2.71
1630937479812,2.78
1630937479828,2.59
1630937479843,2.2
1630937479859,1.72
1630937479875,1.28
1630937479890,0.98
1630937479906,0.85
1630937479921,0.89
1630937479937,0.99
1630937479953,1.04
1630937479968,0.93
1630937479984,0.57
1630937480000,-0.06
1630937480015,-0.89
1630937480031,-1.85
1630937480046,-2.81
1630937480062,-3.7
1630937480078,-4.49
1630937480093,-5.15
1630937480109,-5.67
1630937480125,-5.98
1630937480140,-6.01
1630937480156,-5.71
1630937480171,-5.1
1630937480187,-4.3
1630937480203,-3.47
1630937480218,-2.79
1630937480234,-2.36
1630937480250,-2.15
1630937480265,-2.05
1630937480281,-1.92
1630937480296,-1.64
1630937480312,-1.18
1630937480328,-0.55
1630937480343,0.15
1630937480359,0.82
1630937480375,1.37
1630937480390,1.74
1630937480406,1.88
1630937480421,1.87
1630937480437,1.81
1630937480453,1.87
1630937480468,2.16
1630937480484,2.74
1630937480500,3.52
1630937480515,4.37
1630937480531,5.13
1630937480546,5.7
1630937480562,6.02
1630937480578,6.03
1630937480593,5.72
1630937480609,5.08
1630937480625,4.16
1630937480640,3.11
1630937480656,2.17
1630937480671,1.57
1630937480687,1.44
1630937480703,1.7
1630937480718,2.14
1630937480734,2.44
1630937480750,2.38
1630937480765,1.9
1630937480781,1.12
1630937480796,0.27
1630937480812,-0.43
1630937480828,-0.84
1630937480843,-0.93
1630937480859,-0.79
1630937480875,-0.56
1630937480890,-0.39
1630937480906,-0.39
1630937480921,-0.63
1630937480937,-1.09
1630937480953,-1.69
1630937480968,-2.33
1630937480984,-2.93
1630937481000,-3.48
1630937481015,-4.05
1630937481031,-4.68
1630937481046,-5.36
1630937481062,-5.99
1630937481078,-6.42
1630937481093,-6.58
1630937481109,-6.51
1630937481125,-6.38
1630937481140,-6.38
1630937481156,-6.56
1630937481171,-6.76
1630937481187,-6.72
1630937481203,-6.13
1630937481218,-4.88
1630937481234,-3.1
1630937481250,-1.07
1630937481265,0.85
1630937481281,2.39
1630937481296,3.45
1630937481312,4.05
1630937481328,4.31
1630937481343,4.31
1630937481359,4.15
1630937481375,3.88
1630937481390,3.56
1630937481406,3.24
1630937481421,2.95
1630937481437,2.76
1630937481453,2.69
1630937481468,2.76
1630937481484,2.95
1630937481500,3.22
1630937481515,3.52
1630937481531,3.86
1630937481546,4.23
1630937481562,4.66
1630937481578,5.17
1630937481593,5.7
1630937481609,6.18
1630937481625,6.51
1630937481640,6.57
1630937481656,6.3
1630937481671,5.68
1630937481687,4.77
1630937481703,3.66
1630937481718,2.52
1630937481734,1.52
1630937481750,0.81
1630937481765,0.48
1630937481781,0.49
1630937481796,0.73
1630937481812,0.97
1630937481828,1.03
1630937481843,0.78
1630937481859,0.21
1630937481875,-0.61
1630937481890,-1.52
1630937481906,-2.36
1630937481921,-3.02
1630937481937,-3.42
1630937481953,-3.56
1630937481968,-3.49
1630937481984,-3.33
1630937482000,-3.23
1630937482015,-3.34
1630937482031,-3.74
1630937482046,-4.4
1630937482062,-5.16
1630937482078,-5.76
1630937482093,-5.97
1630937482109,-5.67
1630937482125,-4.91
1630937482140,-3.89
1630937482156,-2.84
1630937482171,-1.98
1630937482187,-1.42
1630937482203,-1.14
1630937482218,-1.07
1630937482234,-1.09
1630937482250,-1.07
1630937482265,-0.91
1630937482281,-0.57
1630937482296,-0.04
1630937482312,0.63
1630937482328,1.35
1630937482343,2.04
1630937482359,2.6
1630937482375,2.95
1630937482390,3.1
1630937482406,3.07
1630937482421,2.92
1630937482437,2.75
1630937482453,2.65
1630937482468,2.66
1630937482484,2.82
1630937482500,3.12
1630937482515,3.55
1630937482531,4.05
1630937482546,4.58
1630937482562,5.08
1630937482578,5.52
1630937482593,5.87
1630937482609,6.08
1630937482625,6.15
1630937482640,6.04
1630937482656,5.72
1630937482671,5.19
1630937482687,4.45
1630937482703,3.54
1630937482718,2.56
1630937482734,1.58
1630937482750,0.7
1630937482765,-0.03
1630937482781,-0.64
1630937482796,-1.15
1630937482812,-1.61
1630937482828,-2.1
1630937482843,-2.63
1630937482859,-3.23
1630937482875,-3.86
1630937482890,-4.47
1630937482906,-4.98
1630937482921,-5.34
1630937482937,-5.5
1630937482953,-5.45
1630937482968,-5.25
1630937482984,-5.01
1630937483000,-4.85
1630937483015,-4.9
1630937483031,-5.19
1630937483046,-5.68
1630937483062,-6.26
1630937483078,-6.76
1630937483093,-7.04
1630937483109,-7.0
1630937483125,-6.6
1630937483140,-5.9
1630937483156,-5.0
1630937483171,-4.0
1630937483187,-3.02
1630937483203,-2.13
1630937483218,-1.34
1630937483234,-0.67
1630937483250,-0.13
1630937483265,0.29
1630937483281,0.57
1630937483296,0.74
1630937483312,0.86
1630937483328,1.04
1630937483343,1.38
1630937483359,1.93
1630937483375,2.65
1630937483390,3.39
1630937483406,3.97
1630937483421,4.28
1630937483437,4.27
1630937483453,3.97
1630937483468,3.49
1630937483484,2.93
1630937483500,2.36
1630937483515,1.85
1630937483531,1.46
1630937483546,1.23
1630937483562,1.17
1630937483578,1.27
1630937483593,1.46
1630937483609,1.66
1630937483625,1.84
1630937483640,2.05
1630937483656,2.33
1630937483671,2.69
1630937483687,3.11
1630937483703,3.46
1630937483718,3.61
1630937483734,3.5
1630937483750,3.16
1630937483765,2.7
1630937483781,2.25
1630937483796,1.91
1630937483812,1.64
1630937483828,1.33
1630937483843,0.83
1630937483859,0.09
1630937483875,-0.84
1630937483890,-1.77
1630937483906,-2.5
1630937483921,-2.92
1630937483937,-3.04
1630937483953,-3.0
1630937483968,-2.96
1630937483984,-3.04
1630937484000,-3.24
1630937484015,-3.48
1630937484031,-3.68
1630937484046,-3.82
1630937484062,-3.94
1630937484078,-4.08
1630937484093,-4.21
1630937484109,-4.22
1630937484125,-3.95
1630937484140,-3.29
1630937484156,-2.27
1630937484171,-1.05
1630937484187,0.1
1630937484203,0.93
1630937484218,1.29
1630937484234,1.19
1630937484250,0.8
1630937484265,0.37
1630937484281,0.15
1630937484296,0.26
1630937484312,0.75
1630937484328,1.54
1630937484343,2.49
1630937484359,3.49
1630937484375,4.39
1630937484390,5.08
1630937484406,5.49
1630937484421,5.58
1630937484437,5.39
1630937484453,5.05
1630937484468,4.69
1630937484484,4.45
1630937484500,4.35
1630937484515,4.35
1630937484531,4.31
1630937484546,4.12
1630937484562,3.71
1630937484578,3.1
1630937484593,2.4
1630937484609,1.74
1630937484625,1.21
1630937484640,0.85
1630937484656,0.64
1630937484671,0.49
1630937484687,0.32
1630937484703,0.06
1630937484718,-0.28
1630937484734,-0.65
1630937484750,-0.98
1630937484765,-1.24
1630937484781,-1.46
1630937484796,-1.71
1630937484812,-2.09
1630937484828,-2.64
1630937484843,-3.37
1630937484859,-4.19
1630937484875,-4.98
1630937484890,-5.63
1630937484906,-6.05
1630937484921,-6.2
1630937484937,-6.13
1630937484953,-5.91
1630937484968,-5.64
1630937484984,-5.35
1630937485000,-5.05
1630937485015,-4.69
1630937485031,-4.2
1630937485046,-3.55
1630937485062,-2.81
1630937485078,-2.08
1630937485093,-1.47
1630937485109,-1.01
1630937485125,-0.68
1630937485140,-0.39
1630937485156,-0.08
1630937485171,0.25
1630937485187,0.59
1630937485203,0.9
1630937485218,1.19
1630937485234,1.51
1630937485250,1.9
1630937485265,2.37
1630937485281,2.86
1630937485296,3.32
1630937485312,3.66
1630937485328,3.84
1630937485343,3.86
1630937485359,3.75
1630937485375,3.62
1630937485390,3.55
1630937485406,3.62
1630937485421,3.79
1630937485437,3.97
1630937485453,3.98
1630937485468,3.74
1630937485484,3.27
1630937485500,2.69
1630937485515,2.17
1630937485531,1.83
1630937485546,1.64
1630937485562,1.52
1630937485578,1.36
1630937485593,1.13
1630937485609,0.92
1630937485625,0.8
1630937485640,0.82
1630937485656,0.9
1630937485671,0.93
1630937485687,0.76
1630937485703,0.36
1630937485718,-0.23
1630937485734,-0.92
1630937485750,-1.61
1630937485765,-2.24
1630937485781,-2.75
1630937485796,-3.14
1630937485812,-3.42
1630937485828,-3.61
1630937485843,-3.8
1630937485859,-4.1
1630937485875,-4.58
1630937485890,-5.23
1630937485906,-5.93
1630937485921,-6.5
1630937485937,-6.74
1630937485953,-6.54
1630937485968,-5.96
1630937485984,-5.12
1630937486000,-4.18
1630937486015,-3.26
1630937486031,-2.38
1630937486046,-1.55
1630937486062,-0.76
1630937486078,-0.03
1630937486093,0.58
1630937486109,1.04
1630937486125,1.37
1630937486140,1.68
1630937486156,2.06
1630937486171,2.6
1630937486187,3.25
1630937486203,3.9
1630937486218,4.38
1630937486234,4.58
1630937486250,4.47
1630937486265,4.13
1630937486281,3.73
1630937486296,3.41
1630937486312,3.25
1630937486328,3.23
1630937486343,3.29
1630937486359,3.33
1630937486375,3.32
1630937486390,3.24
1630937486406,3.12
1630937486421,2.98
1630937486437,2.79
1630937486453,2.56
1630937486468,2.25
1630937486484,1.89
1630937486500,1.55
1630937486515,1.27
1630937486531,1.1
1630937486546,1.04
1630937486562,1.04
1630937486578,1.03
1630937486593,0.96
1630937486609,0.78
1630937486625,0.49
1630937486640,0.11
1630937486656,-0.37
1630937486671,-0.92
1630937486687,-1.52
1630937486703,-2.19
1630937486718,-2.87
1630937486734,-3.51
1630937486750,-4.01
1630937486765,-4.29
1630937486781,-4.33
1630937486796,-4.22
1630937486812,-4.08
1630937486828,-4.05
1630937486843,-4.2
1630937486859,-4.48
1630937486875,-4.77
1630937486890,-4.94
1630937486906,-4.9
1630937486921,-4.69
1630937486937,-4.38
1630937486953,-4.1
1630937486968,-3.9
1630937486984,-3.71
1630937487000,-3.44
1630937487015,-2.95
1630937487031,-2.23
1630937487046,-1.31
1630937487062,-0.33
1630937487078,0.56
1630937487093,1.22
1630937487109,1.6
1630937487125,1.74
1630937487140,1.74
1630937487156,1.73
1630937487171,1.8
1630937487187,1.98
1630937487203,2.23
1630937487218,2.49
1630937487234,2.7
1630937487250,2.82
1630937487265,2.89
1630937487281,2.94
1630937487296,3.0
1630937487312,3.05
1630937487328,3.02
1630937487343,2.89
1630937487359,2.65
1630937487375,2.4
1630937487390,2.26
1630937487406,2.32
1630937487421,2.56
1630937487437,2.85
1630937487453,3.01
1630937487468,2.9
1630937487484,2.51
1630937487500,1.95
1630937487515,1.41
1630937487531,1.08
1630937487546,1.02
1630937487562,1.17
1630937487578,1.41
1630937487593,1.55
1630937487609,1.47
1630937487625,1.14
1630937487640,0.58
1630937487656,-0.14
1630937487671,-0.92
1630937487687,-1.67
1630937487703,-2.31
1630937487718,-2.79
1630937487734,-3.11
1630937487750,-3.31
1630937487765,-3.45
1630937487781,-3.63
1630937487796,-3.9
1630937487812,-4.25
1630937487828,-4.62
1630937487843,-4.92
1630937487859,-5.06
1630937487875,-4.98
1630937487890,-4.67
1630937487906,-4.14
1630937487921,-3.42
1630937487937,-2.52
1630937487953,-1.54
1630937487968,-0.61
1630937487984,0.1
1630937488000,0.51
1630937488015,0.62
1630937488031,0.6
1630937488046,0.65
1630937488062,0.93
1630937488078,1.45
1630937488093,2.09
1630937488109,2.7
1630937488125,3.17
1630937488140,3.54
1630937488156,3.91
1630937488171,4.35
1630937488187,4.86
1630937488203,5.29
1630937488218,5.49
1630937488234,5.36
1630937488250,4.95
1630937488265,4.41
1630937488281,3.9
1630937488296,3.52
1630937488312,3.3
1630937488328,3.18
1630937488343,3.07
1630937488359,2.92
1630937488375,2.71
1630937488390,2.5
1630937488406,2.3
1630937488421,2.15
1630937488437,2.0
1630937488453,1.8
1630937488468,1.48
1630937488484,1.03
1630937488500,0.45
1630937488515,-0.17
1630937488531,-0.73
1630937488546,-1.19
1630937488562,-1.53
1630937488578,-1.81
1630937488593,-2.14
1630937488609,-2.58
1630937488625,-3.14
1630937488640,-3.8
1630937488656,-4.48
1630937488671,-5.1
1630937488687,-5.59
1630937488703,-5.87
1630937488718,-5.92
1630937488734,-5.74
1630937488750,-5.42
1630937488765,-5.07
1630937488781,-4.78
1630937488796,-4.59
1630937488812,-4.41
1630937488828,-4.07
1630937488843,-3.47
1630937488859,-2.56
1630937488875,-1.52
1630937488890,-0.57
1630937488906,0.07
1630937488921,0.31
1630937488937,0.21
1630937488953,-0.02
1630937488968,-0.14
1630937488984,0.0
1630937489000,0.42
1630937489015,1.03
1630937489031,1.66
1630937489046,2.18
1630937489062,2.52
1630937489078,2.69
1630937489093,2.77
1630937489109,2.8
1630937489125,2.83
1630937489140,2.86
1630937489156,2.89
1630937489171,2.92
1630937489187,3.0
1630937489203,3.14
1630937489218,3.33
1630937489234,3.5
1630937489250,3.53
1630937489265,3.32
1630937489281,2.86
1630937489296,2.23
1630937489312,1.62
1630937489328,1.19
1630937489343,1.07
1630937489359,1.22
1630937489375,1.53
1630937489390,1.82
1630937489406,1.96
1630937489421,1.88
1630937489437,1.62
1630937489453,1.26
1630937489468,0.87
1630937489484,0.47
1630937489500,0.06
1630937489515,-0.38
1630937489531,-0.87
1630937489546,-1.35
1630937489562,-1.75
1630937489578,-2.03
1630937489593,-2.21
1630937489609,-2.39
1630937489625,-2.69
1630937489640,-3.17
1630937489656,-3.82
1630937489671,-4.56
1630937489687,-5.27
1630937489703,-5.82
1630937489718,-6.14
1630937489734,-6.16
1630937489750,-5.85
1630937489765,-5.22
1630937489781,-4.29
1630937489796,-3.14
1630937489812,-1.9
1630937489828,-0.72
1630937489843,0.24
1630937489859,0.87
1630937489875,1.14
1630937489890,1.13
1630937489906,0.99
1630937489921,0.91
1630937489937,1.02
1630937489953,1.41
1630937489968,2.02
1630937489984,2.68
1630937490000,3.21
1630937490015,3.46
1630937490031,3.36
1630937490046,2.97
1630937490062,2.45
1630937490078,1.98
1630937490093,1.72
1630937490109,1.71
1630937490125,1.89
1630937490140,2.13
1630937490156,2.29
1630937490171,2.31
1630937490187,2.24
1630937490203,2.16
1630937490218,2.15
1630937490234,2.18
1630937490250,2.15
1630937490265,1.98
1630937490281,1.62
1630937490296,1.18
1630937490312,0.78
1630937490328,0.53
1630937490343,0.46
1630937490359,0.48
1630937490375,0.46
1630937490390,0.34
1630937490406,0.14
1630937490421,-0.02
1630937490437,-0.01
1630937490453,0.19
1630937490468,0.52
1630937490484,0.78
1630937490500,0.78
1630937490515,0.42
1630937490531,-0.28
1630937490546,-1.16
1630937490562,-1.96
1630937490578,-2.51
1630937490593,-2.72
1630937490609,-2.7
1630937490625,-2.61
1630937490640,-2.6
1630937490656,-2.75
1630937490671,-3.03
1630937490687,-3.34
1630937490703,-3.6
1630937490718,-3.77
1630937490734,-3.86
1630937490750,-3.93
1630937490765,-4.0
1630937490781,-4.04
1630937490796,-3.98
1630937490812,-3.74
1630937490828,-3.3
1630937490843,-2.71
1630937490859,-2.09
1630937490875,-1.59
1630937490890,-1.3
1630937490906,-1.19
1630937490921,-1.18
1630937490937,-1.15
1630937490953,-1.0
1630937490968,-0.72
1630937490984,-0.36
1630937491000,-0.01
1630937491015,0.28
1630937491031,0.48
1630937491046,0.62
1630937491062,0.78
1630937491078,1.03
1630937491093,1.42
1630937491109,1.96
1630937491125,2.59
1630937491140,3.2
1630937491156,3.65
1630937491171,3.86
1630937491187,3.8
1630937491203,3.58
1630937491218,3.34
1630937491234,3.21
1630937491250,3.24
1630937491265,3.35
1630937491281,3.38
1630937491296,3.21
1630937491312,2.82
1630937491328,2.3
1630937491343,1.8
1630937491359,1.42
1630937491375,1.18
1630937491390,1.04
1630937491406,0.94
1630937491421,0.87
1630937491437,0.84
1630937491453,0.85
1630937491468,0.84
1630937491484,0.72
1630937491500,0.41
1630937491515,-0.12
1630937491531,-0.79
1630937491546,-1.52
1630937491562,-2.21
1630937491578,-2.84
1630937491593,-3.39
1630937491609,-3.85
1630937491625,-4.17
1630937491640,-4.29
1630937491656,-4.19
1630937491671,-3.91
1630937491687,-3.56
1630937491703,-3.25
1630937491718,-3.06
1630937491734,-3.03
1630937491750,-3.11
1630937491765,-3.16
1630937491781,-3.03
1630937491796,-2.59
1630937491812,-1.81
1630937491828,-0.78
1630937491843,0.28
1630937491859,1.13
1630937491875,1.57
1630937491890,1.55
1630937491906,1.17
1630937491921,0.61
1630937491937,0.08
1630937491953,-0.27
1630937491968,-0.33
1630937491984,-0.09
1630937492000,0.42
1630937492015,1.08
1630937492031,1.76
1630937492046,2.34
1630937492062,2.71
1630937492078,2.85
1630937492093,2.79
1630937492109,2.6
1630937492125,2.33
1630937492140,2.06
1630937492156,1.84
1630937492171,1.74
1630937492187,1.83
1630937492203,2.09
1630937492218,2.5
1630937492234,2.95
1630937492250,3.3
1630937492265,3.43
1630937492281,3.33
1630937492296,3.04
1630937492312,2.71
1630937492328,2.48
1630937492343,2.46
1630937492359,2.59
1630937492375,2.76
1630937492390,2.83
1630937492406,2.68
1630937492421,2.32
1630937492437,1.81
1630937492453,1.23
1630937492468,0.62
1630937492484,-0.04
1630937492500,-0.77
1630937492515,-1.55
1630937492531,-2.32
1630937492546,-2.96
1630937492562,-3.4
1630937492578,-3.65
1630937492593,-3.82
1630937492609,-4.02
1630937492625,-4.31
1630937492640,-4.68
1630937492656,-5.01
1630937492671,-5.18
1630937492687,-5.13
1630937492703,-4.86
1630937492718,-4.44
1630937492734,-3.95
1630937492750,-3.43
1630937492765,-2.9
1630937492781,-2.4
1630937492796,-1.97
1630937492812,-1.64
1630937492828,-1.46
1630937492843,-1.38
1630937492859,-1.31
1630937492875,-1.13
1630937492890,-0.74
1630937492906,-0.14
1630937492921,0.56
1630937492937,1.19
1630937492953,1.57
1630937492968,1.62
1630937492984,1.38
1630937493000,1.02
1630937493015,0.77
1630937493031,0.8
1630937493046,1.18
1630937493062,1.81
1630937493078,2.45
1630937493093,2.91
1630937493109,3.06
1630937493125,2.91
1630937493140,2.59
1630937493156,2.28
1630937493171,2.1
1630937493187,2.09
1630937493203,2.19
1630937493218,2.31
1630937493234,2.32
1630937493250,2.16
1630937493265,1.8
1630937493281,1.3
1630937493296,0.74
1630937493312,0.25
1630937493328,-0.09
1630937493343,-0.26
1630937493359,-0.28
1630937493375,-0.24
1630937493390,-0.2
1630937493406,-0.18
1630937493421,-0.17
1630937493437,-0.13
1630937493453,-0.09
1630937493468,-0.11
1630937493484,-0.28
1630937493500,-0.64
1630937493515,-1.17
1630937493531,-1.74
1630937493546,-2.21
1630937493562,-2.47
1630937493578,-2.53
1630937493593,-2.49
1630937493609,-2.51
1630937493625,-2.7
1630937493640,-3.09
1630937493656,-3.55
1630937493671,-3.94
1630937493687,-4.09
1630937493703,-3.93
1630937493718,-3.49
1630937493734,-2.9
1630937493750,-2.28
1630937493765,-1.75
1630937493781,-1.31
1630937493796,-0.95
1630937493812,-0.6
1630937493828,-0.23
1630937493843,0.15
1630937493859,0.48
1630937493875,0.68
1630937493890,0.7
1630937493906,0.58
1630937493921,0.42
1630937493937,0.37
1630937493953,0.5
1630937493968,0.78
1630937493984,1.08
1630937494000,1.25
1630937494015,1.23
1630937494031,1.1
1630937494046,1.03
1630937494062,1.19
1630937494078,1.59
1630937494093,2.08
1630937494109,2.43
1630937494125,2.45
1630937494140,2.1
1630937494156,1.5
1630937494171,0.89
1630937494187,0.47
1630937494203,0.3
1630937494218,0.35
1630937494234,0.5
1630937494250,0.66
1630937494265,0.77
1630937494281,0.82
1630937494296,0.82
1630937494312,0.75
1630937494328,0.62
1630937494343,0.42
1630937494359,0.15
1630937494375,-0.19
1630937494390,-0.57
1630937494406,-0.95
1630937494421,-1.23
1630937494437,-1.36
1630937494453,-1.27
1630937494468,-1.04
1630937494484,-0.81
1630937494500,-0.79
1630937494515,-1.12
1630937494531,-1.78
1630937494546,-2.61
1630937494562,-3.35
1630937494578,-3.81
1630937494593,-3.93
1630937494609,-3.81
1630937494625,-3.63
1630937494640,-3.53
1630937494656,-3.54
1630937494671,-3.58
1630937494687,-3.56
1630937494703,-3.4
1630937494718,-3.13
1630937494734,-2.84
1630937494750,-2.62
1630937494765,-2.48
1630937494781,-2.37
1630937494796,-2.18
1630937494812,-1.86
1630937494828,-1.42
1630937494843,-0.94
1630937494859,-0.52
1630937494875,-0.22
1630937494890,-0.06
1630937494906,0.02
1630937494921,0.07
1630937494937,0.11
1630937494953,0.15
1630937494968,0.22
1630937494984,0.38
1630937495000,0.7
1630937495015,1.23
1630937495031,1.92
1630937495046,2.66
1630937495062,3.29
1630937495078,3.69
1630937495093,3.81
1630937495109,3.69
1630937495125,3.41
1630937495140,3.09
1630937495156,2.84
1630937495171,2.71
1630937495187,2.72
1630937495203,2.86
1630937495218,3.06
1630937495234,3.22
1630937495250,3.24
1630937495265,3.06
1630937495281,2.68
1630937495296,2.15
1630937495312,1.59
1630937495328,1.12
1630937495343,0.84
1630937495359,0.81
1630937495375,0.99
1630937495390,1.27
1630937495406,1.46
1630937495421,1.37
1630937495437,0.9
1630937495453,0.07
1630937495468,-0.97
1630937495484,-1.99
1630937495500,-2.8
1630937495515,-3.29
1630937495531,-3.47
1630937495546,-3.46
1630937495562,-3.39
1630937495578,-3.35
1630937495593,-3.38
1630937495609,-3.49
1630937495625,-3.62
1630937495640,-3.72
1630937495656,-3.71
1630937495671,-3.49
1630937495687,-3.02
1630937495703,-2.27
1630937495718,-1.28
1630937495734,-0.17
1630937495750,0.89
1630937495765,1.75
1630937495781,2.29
1630937495796,2.47
1630937495812,2.38
1630937495828,2.12
1630937495843,1.85
1630937495859,1.68
1630937495875,1.7
1630937495890,1.88
1630937495906,2.18
1630937495921,2.5
1630937495937,2.75
1630937495953,2.89
1630937495968,2.92
1630937495984,2.87
1630937496000,2.77
1630937496015,2.69
1630937496031,2.66
1630937496046,2.71
1630937496062,2.82
1630937496078,2.96
1630937496093,3.07
1630937496109,3.06
1630937496125,2.92
1630937496140,2.66
1630937496156,2.36
1630937496171,2.07
1630937496187,1.83
1630937496203,1.6
1630937496218,1.37
1630937496234,1.1
1630937496250,0.83
1630937496265,0.6
1630937496281,0.44
1630937496296,0.33
1630937496312,0.18
1630937496328,-0.11
1630937496343,-0.58
1630937496359,-1.2
1630937496375,-1.89
1630937496390,-2.55
1630937496406,-3.1
1630937496421,-3.54
1630937496437,-3.88
1630937496453,-4.16
1630937496468,-4.39
1630937496484,-4.57
1630937496500,-4.69
1630937496515,-4.72
1630937496531,-4.65
1630937496546,-4.47
1630937496562,-4.19
1630937496578,-3.8
1630937496593,-3.33
1630937496609,-2.78
1630937496625,-2.15
1630937496640,-1.46
1630937496656,-0.7
1630937496671,0.06
1630937496687,0.74
1630937496703,1.19
1630937496718,1.3
1630937496734,1.05
1630937496750,0.55
1630937496765,0.03
1630937496781,-0.29
1630937496796,-0.26
1630937496812,0.15
1630937496828,0.84
1630937496843,1.65
1630937496859,2.47
1630937496875,3.22
1630937496890,3.83
1630937496906,4.27
1630937496921,4.47
1630937496937,4.41
1630937496953,4.12
1630937496968,3.69
1630937496984,3.26
1630937497000,2.93
1630937497015,2.72
1630937497031,2.64
1630937497046,2.61
1630937497062,2.63
1630937497078,2.67
1630937497093,2.73
1630937497109,2.76
1630937497125,2.67
1630937497140,2.41
1630937497156,1.97
1630937497171,1.42
1630937497187,0.9
1630937497203,0.52
1630937497218,0.32
1630937497234,0.26
1630937497250,0.25
1630937497265,0.18
1630937497281,-0.0
1630937497296,-0.3
1630937497312,-0.7
1630937497328,-1.15
1630937497343,-1.69
1630937497359,-2.37
1630937497375,-3.23
1630937497390,-4.24
1630937497406,-5.28
1630937497421,-6.15
1630937497437,-6.67
1630937497453,-6.71
1630937497468,-6.29
1630937497484,-5.55
1630937497500,-4.65
1630937497515,-3.75
1630937497531,-2.92
1630937497546,-2.16
1630937497562,-1.41
1630937497578,-0.68
1630937497593,-0.0
1630937497609,0.54
1630937497625,0.86
1630937497640,0.93
1630937497656,0.83
1630937497671,0.67
1630937497687,0.59
1630937497703,0.66
1630937497718,0.9
1630937497734,1.22
1630937497750,1.53
1630937497765,1.75
1630937497781,1.92
1630937497796,2.11
1630937497812,2.4
1630937497828,2.83
1630937497843,3.35
1630937497859,3.83
1630937497875,4.13
1630937497890,4.19
1630937497906,4.02
1630937497921,3.7
1630937497937,3.37
1630937497953,3.13
1630937497968,3.06
1630937497984,3.07
1630937498000,3.08
1630937498015,2.95
1630937498031,2.64
1630937498046,2.21
1630937498062,1.8
1630937498078,1.55
1630937498093,1.52
1630937498109,1.62
1630937498125,1.69
1630937498140,1.6
1630937498156,1.29
1630937498171,0.86
1630937498187,0.46
1630937498203,0.21
1630937498218,0.16
1630937498234,0.22
1630937498250,0.28
1630937498265,0.25
1630937498281,0.09
1630937498296,-0.19
1630937498312,-0.55
1630937498328,-0.98
1630937498343,-1.47
1630937498359,-1.98
1630937498375,-2.45
1630937498390,-2.81
1630937498406,-2.98
1630937498421,-3.0
1630937498437,-2.96
1630937498453,-3.02
1630937498468,-3.28
1630937498484,-3.78
1630937498500,-4.44
1630937498515,-5.09
1630937498531,-5.53
1630937498546,-5.59
1630937498562,-5.18
1630937498578,-4.35
1630937498593,-3.26
1630937498609,-2.16
1630937498625,-1.29
1630937498640,-0.83
1630937498656,-0.76
1630937498671,-0.97
1630937498687,-1.21
1630937498703,-1.27
1630937498718,-1.03
1630937498734,-0.48
1630937498750,0.3
1630937498765,1.17
1630937498781,2.04
1630937498796,2.82
1630937498812,3.38
1630937498828,3.62
1630937498843,3.47
1630937498859,2.96
1630937498875,2.24
1630937498890,1.56
1630937498906,1.16
1630937498921,1.2
1630937498937,1.66
1630937498953,2.39
1630937498968,3.19
1630937498984,3.89
1630937499000,4.39
1630937499015,4.66
1630937499031,4.73
1630937499046,4.62
1630937499062,4.35
1630937499078,3.97
1630937499093,3.58
1630937499109,3.23
1630937499125,2.99
1630937499140,2.81
1630937499156,2.62
1630937499171,2.33
1630937499187,1.92
1630937499203,1.48
1630937499218,1.12
1630937499234,0.97
1630937499250,1.05
1630937499265,1.29
1630937499281,1.54
1630937499296,1.66
1630937499312,1.56
1630937499328,1.19
1630937499343,0.6
1630937499359,-0.14
1630937499375,-0.92
1630937499390,-1.68
1630937499406,-2.34
1630937499421,-2.88
1630937499437,-3.28
1630937499453,-3.57
1630937499468,-3.76
1630937499484,-3.89
1630937499500,-3.99
1630937499515,-4.13
1630937499531,-4.39
1630937499546,-4.8
1630937499562,-5.32
1630937499578,-5.79
1630937499593,-6.0
1630937499609,-5.83
1630937499625,-5.31
1630937499640,-4.62
1630937499656,-4.0
1630937499671,-3.6
1630937499687,-3.43
1630937499703,-3.33
1630937499718,-3.13
1630937499734,-2.73
1630937499750,-2.18
1630937499765,-1.6
1630937499781,-1.12
1630937499796,-0.76
1630937499812,-0.46
1630937499828,-0.12
1630937499843,0.29
1630937499859,0.76
1630937499875,1.2
1630937499890,1.55
1630937499906,1.8
1630937499921,1.98
1630937499937,2.15
1630937499953,2.33
1630937499968,2.49
1630937499984,2.6
1630937500000,2.63
1630937500015,2.58
1630937500031,2.5
1630937500046,2.46
1630937500062,2.5
1630937500078,2.63
1630937500093,2.82
1630937500109,3.05
1630937500125,3.28
1630937500140,3.46
1630937500156,3.54
1630937500171,3.5
1630937500187,3.31
1630937500203,3.02
1630937500218,2.71
1630937500234,2.47
1630937500250,2.33
1630937500265,2.31
1630937500281,2.32
1630937500296,2.26
1630937500312,2.04
1630937500328,1.63
1630937500343,1.06
1630937500359,0.42
1630937500375,-0.2
1630937500390,-0.73
1630937500406,-1.14
1630937500421,-1.46
1630937500437,-1.76
1630937500453,-2.1
1630937500468,-2.52
1630937500484,-3.02
1630937500500,-3.51
1630937500515,-3.92
1630937500531,-4.17
1630937500546,-4.25
1630937500562,-4.22
1630937500578,-4.15
1630937500593,-4.12
1630937500609,-4.14
1630937500625,-4.15
1630937500640,-4.09
1630937500656,-3.88
1630937500671,-3.47
1630937500687,-2.88
1630937500703,-2.11
1630937500718,-1.21
1630937500734,-0.26
1630937500750,0.65
1630937500765,1.39
1630937500781,1.84
1630937500796,1.93
1630937500812,1.71
1630937500828,1.3
1630937500843,0.9
1630937500859,0.66
1630937500875,0.71
1630937500890,1.05
1630937500906,1.6
1630937500921,2.25
1630937500937,2.84
1630937500953,3.27
1630937500968,3.49
1630937500984,3.48
1630937501000,3.3
1630937501015,3.04
1630937501031,2.79
1630937501046,2.57
1630937501062,2.4
1630937501078,2.19
1630937501093,1.93
1630937501109,1.6
1630937501125,1.27
1630937501140,1.01
1630937501156,0.91
1630937501171,0.96
1630937501187,1.12
1630937501203,1.33
1630937501218,1.52
1630937501234,1.68
1630937501250,1.82
1630937501265,1.92
1630937501281,1.93
1630937501296,1.81
1630937501312,1.51
1630937501328,1.04
1630937501343,0.42
1630937501359,-0.3
1630937501375,-1.1
1630937501390,-1.94
1630937501406,-2.8
1630937501421,-3.63
1630937501437,-4.36
1630937501453,-4.93
1630937501468,-5.28
1630937501484,-5.44
1630937501500,-5.45
1630937501515,-5.35
1630937501531,-5.19
1630937501546,-4.95
1630937501562,-4.66
1630937501578,-4.35
1630937501593,-4.09
1630937501609,-3.91
1630937501625,-3.79
1630937501640,-3.6
1630937501656,-3.22
1630937501671,-2.54
1630937501687,-1.59
1630937501703,-0.52
1630937501718,0.47
1630937501734,1.23
1630937501750,1.68
1630937501765,1.83
1630937501781,1.8
1630937501796,1.7
1630937501812,1.64
1630937501828,1.7
1630937501843,1.92
1630937501859,2.31
1630937501875,2.85
1630937501890,3.43
1630937501906,3.99
1630937501921,4.44
1630937501937,4.73
1630937501953,4.86
1630937501968,4.8
1630937501984,4.56
1630937502000,4.14
1630937502015,3.61
1630937502031,3.08
1630937502046,2.66
1630937502062,2.45
1630937502078,2.44
1630937502093,2.53
1630937502109,2.61
1630937502125,2.55
1630937502140,2.3
1630937502156,1.89
1630937502171,1.44
1630937502187,1.09
1630937502203,0.96
1630937502218,1.05
1630937502234,1.28
1630937502250,1.46
1630937502265,1.39
1630937502281,0.97
1630937502296,0.21
1630937502312,-0.74
1630937502328,-1.69
1630937502343,-2.48
1630937502359,-3.05
1630937502375,-3.42
1630937502390,-3.65
1630937502406,-3.77
1630937502421,-3.8
1630937502437,-3.78
1630937502453,-3.82
1630937502468,-4.06
1630937502484,-4.57
1630937502500,-5.32
1630937502515,-6.14
1630937502531,-6.75
1630937502546,-6.92
1630937502562,-6.58
1630937502578,-5.82
1630937502593,-4.88
1630937502609,-3.99
1630937502625,-3.3
1630937502640,-2.81
1630937502656,-2.41
1630937502671,-1.93
1630937502687,-1.26
1630937502703,-0.38
1630937502718,0.58
1630937502734,1.46
1630937502750,2.06
1630937502765,2.28
1630937502781,2.14
1630937502796,1.79
1630937502812,1.43
1630937502828,1.26
1630937502843,1.42
1630937502859,1.9
1630937502875,2.6
1630937502890,3.31
1630937502906,3.85
1630937502921,4.09
1630937502937,4.02
1630937502953,3.72
1630937502968,3.34
1630937502984,3.02
1630937503000,2.81
1630937503015,2.71
1630937503031,2.65
1630937503046,2.6
1630937503062,2.59
1630937503078,2.65
1630937503093,2.82
1630937503109,3.03
1630937503125,3.12
1630937503140,2.95
1630937503156,2.46
1630937503171,1.74
1630937503187,1.02
1630937503203,0.53
1630937503218,0.39
1630937503234,0.56
1630937503250,0.83
1630937503265,0.98
1630937503281,0.84
1630937503296,0.41
1630937503312,-0.17
1630937503328,-0.75
1630937503343,-1.24
1630937503359,-1.64
1630937503375,-2.04
1630937503390,-2.5
1630937503406,-3.01
1630937503421,-3.5
1630937503437,-3.9
1630937503453,-4.17
1630937503468,-4.36
1630937503484,-4.54
1630937503500,-4.78
1630937503515,-5.05
1630937503531,-5.21
1630937503546,-5.1
1630937503562,-4.63
1630937503578,-3.83
1630937503593,-2.84
1630937503609,-1.86
1630937503625,-1.03
1630937503640,-0.43
1630937503656,-0.05
1630937503671,0.17
1630937503687,0.29
1630937503703,0.39
1630937503718,0.55
1630937503734,0.84
1630937503750,1.25
1630937503765,1.73
1630937503781,2.16
1630937503796,2.43
1630937503812,2.49
1630937503828,2.43
1630937503843,2.36
1630937503859,2.4
1630937503875,2.61
1630937503890,2.95
1630937503906,3.35
1630937503921,3.72
1630937503937,4.01
1630937503953,4.19
1630937503968,4.25
1630937503984,4.18
1630937504000,3.97
1630937504015,3.67
1630937504031,3.33
1630937504046,2.99
1630937504062,2.65
1630937504078,2.26
1630937504093,1.81
1630937504109,1.28
1630937504125,0.75
1630937504140,0.31
1630937504156,0.02
1630937504171,-0.12
1630937504187,-0.13
1630937504203,-0.09
1630937504218,-0.02
1630937504234,0.08
1630937504250,0.19
1630937504265,0.28
1630937504281,0.26
1630937504296,0.03
1630937504312,-0.46
1630937504328,-1.16
1630937504343,-1.9
1630937504359,-2.49
1630937504375,-2.79
1630937504390,-2.82
1630937504406,-2.69
1630937504421,-2.61
1630937504437,-2.72
1630937504453,-3.11
1630937504468,-3.76
1630937504484,-4.59
1630937504500,-5.52
1630937504515,-6.46
1630937504531,-7.3
1630937504546,-7.88
1630937504562,-8.03
1630937504578,-7.61
1630937504593,-6.62
1630937504609,-5.24
1630937504625,-3.76
1630937504640,-2.5
1630937504656,-1.64
1630937504671,-1.23
1630937504687,-1.12
1630937504703,-1.1
1630937504718,-1.0
1630937504734,-0.74
1630937504750,-0.35
1630937504765,0.1
1630937504781,0.52
1630937504796,0.87
1630937504812,1.14
1630937504828,1.35
1630937504843,1.53
1630937504859,1.72
1630937504875,1.95
1630937504890,2.24
1630937504906,2.6
1630937504921,3.0
1630937504937,3.39
1630937504953,3.72
1630937504968,3.94
1630937504984,3.99
1630937505000,3.87
1630937505015,3.56
1630937505031,3.09
1630937505046,2.53
1630937505062,1.96
1630937505078,1.5
1630937505093,1.2
1630937505109,1.1
1630937505125,1.19
1630937505140,1.38
1630937505156,1.6
1630937505171,1.77
1630937505187,1.84
1630937505203,1.8
1630937505218,1.68
1630937505234,1.48
1630937505250,1.24
1630937505265,0.95
1630937505281,0.6
1630937505296,0.21
1630937505312,-0.22
1630937505328,-0.63
1630937505343,-0.98
1630937505359,-1.25
1630937505375,-1.45
1630937505390,-1.62
1630937505406,-1.83
1630937505421,-2.1
1630937505437,-2.43
1630937505453,-2.77
1630937505468,-3.12
1630937505484,-3.48
1630937505500,-3.87
1630937505515,-4.28
1630937505531,-4.61
1630937505546,-4.74
1630937505562,-4.55
1630937505578,-3.97
1630937505593,-3.01
1630937505609,-1.78
1630937505625,-0.42
1630937505640,0.88
1630937505656,1.93
1630937505671,2.59
1630937505687,2.76
1630937505703,2.48
1630937505718,1.9
1630937505734,1.28
1630937505750,0.91
1630937505765,0.97
1630937505781,1.47
1630937505796,2.29
1630937505812,3.15
1630937505828,3.82
1630937505843,4.11
1630937505859,3.98
1630937505875,3.53
1630937505890,2.95
1630937505906,2.44
1630937505921,2.14
1630937505937,2.08
1630937505953,2.18
1630937505968,2.37
1630937505984,2.55
1630937506000,2.69
1630937506015,2.78
1630937506031,2.77
1630937506046,2.62
1630937506062,2.27
1630937506078,1.76
1630937506093,1.19
1630937506109,0.78
1630937506125,0.67
1630937506140,0.92
1630937506156,1.38
1630937506171,1.82
1630937506187,1.99
1630937506203,1.76
1630937506218,1.13
1630937506234,0.21
1630937506250,-0.84
1630937506265,-1.87
1630937506281,-2.83
1630937506296,-3.66
1630937506312,-4.35
1630937506328,-4.86
1630937506343,-5.17
1630937506359,-5.28
1630937506375,-5.23
1630937506390,-5.12
1630937506406,-5.01
1630937506421,-4.94
1630937506437,-4.86
1630937506453,-4.72
1630937506468,-4.43
1630937506484,-3.94
1630937506500,-3.27
1630937506515,-2.47
1630937506531,-1.62
1630937506546,-0.81
1630937506562,-0.1
1630937506578,0.49
1630937506593,0.93
1630937506609,1.25
1630937506625,1.45
1630937506640,1.57
1630937506656,1.64
1630937506671,1.7
1630937506687,1.8
1630937506703,1.98
1630937506718,2.24
1630937506734,2.53
1630937506750,2.8
1630937506765,2.97
1630937506781,3.02
1630937506796,3.03
1630937506812,3.07
1630937506828,3.21
1630937506843,3.42
1630937506859,3.63
1630937506875,3.73
1630937506890,3.65
1630937506906,3.47
1630937506921,3.27
1630937506937,3.17
1630937506953,3.2
1630937506968,3.26
1630937506984,3.24
1630937507000,3.05
1630937507015,2.71
1630937507031,2.29
1630937507046,1.89
1630937507062,1.56
1630937507078,1.26
1630937507093,0.94
1630937507109,0.55
1630937507125,0.08
1630937507140,-0.45
1630937507156,-1.01
1630937507171,-1.55
1630937507187,-2.06
1630937507203,-2.51
1630937507218,-2.86
1630937507234,-3.14
1630937507250,-3.41
1630937507265,-3.78
1630937507281,-4.34
1630937507296,-5.13
1630937507312,-6.03
1630937507328,-6.82
1630937507343,-7.26
1630937507359,-7.17
1630937507375,-6.54
1630937507390,-5.55
1630937507406,-4.46
1630937507421,-3.52
1630937507437,-2.88
1630937507453,-2.52
1630937507468,-2.29
1630937507484,-2.06
1630937507500,-1.7
1630937507515,-1.21
1630937507531,-0.64
1630937507546,-0.09
1630937507562,0.41
1630937507578,0.9
1630937507593,1.45
1630937507609,2.08
1630937507625,2.78
1630937507640,3.43
1630937507656,3.89
1630937507671,4.09
1630937507687,4.01
1630937507703,3.74
1630937507718,3.4
1630937507734,3.07
1630937507750,2.83
1630937507765,2.69
1630937507781,2.64
1630937507796,2.72
1630937507812,2.96
1630937507828,3.37
1630937507843,3.89
1630937507859,4.39
1630937507875,4.73
1630937507890,4.77
1630937507906,4.46
1630937507921,3.87
1630937507937,3.11
1630937507953,2.37
1630937507968,1.77
1630937507984,1.41
1630937508000,1.28
1630937508015,1.33
1630937508031,1.5
1630937508046,1.69
1630937508062,1.82
1630937508078,1.82
1630937508093,1.64
1630937508109,1.26
1630937508125,0.67
1630937508140,-0.1
1630937508156,-0.95
1630937508171,-1.79
1630937508187,-2.47
1630937508203,-2.93
1630937508218,-3.13
1630937508234,-3.15
1630937508250,-3.13
1630937508265,-3.29
1630937508281,-3.77
1630937508296,-4.64
1630937508312,-5.8
1630937508328,-7.01
1630937508343,-8.01
1630937508359,-8.54
1630937508375,-8.45
1630937508390,-7.78
1630937508406,-6.68
1630937508421,-5.37
1630937508437,-4.13
1630937508453,-3.13
1630937508468,-2.45
1630937508484,-2.08
1630937508500,-1.93
1630937508515,-1.85
1630937508531,-1.73
1630937508546,-1.48
1630937508562,-1.07
1630937508578,-0.57
1630937508593,-0.0
1630937508609,0.55
1630937508625,1.05
1630937508640,1.45
1630937508656,1.78
1630937508671,2.07
1630937508687,2.38
1630937508703,2.75
1630937508718,3.18
1630937508734,3.62
1630937508750,3.98
1630937508765,4.2
1630937508781,4.24
1630937508796,4.19
1630937508812,4.14
1630937508828,4.18
1630937508843,4.34
1630937508859,4.5
1630937508875,4.51
1630937508890,4.27
1630937508906,3.76
1630937508921,3.11
1630937508937,2.48
1630937508953,2.03
1630937508968,1.79
1630937508984,1.73
1630937509000,1.75
1630937509015,1.73
1630937509031,1.63
1630937509046,1.44
1630937509062,1.18
1630937509078,0.85
1630937509093,0.42
1630937509109,-0.16
1630937509125,-0.92
1630937509140,-1.8
1630937509156,-2.69
1630937509171,-3.43
1630937509187,-3.94
1630937509203,-4.19
1630937509218,-4.26
1630937509234,-4.25
1630937509250,-4.27
1630937509265,-4.35
1630937509281,-4.47
1630937509296,-4.58
1630937509312,-4.66
1630937509328,-4.66
1630937509343,-4.53
1630937509359,-4.19
1630937509375,-3.53
1630937509390,-2.52
1630937509406,-1.25
1630937509421,0.07
1630937509437,1.21
1630937509453,2.01
1630937509468,2.43
1630937509484,2.57
1630937509500,2.58
1630937509515,2.54
1630937509531,2.48
1630937509546,2.38
1630937509562,2.23
1630937509578,2.08
1630937509593,2.01
1630937509609,2.1
1630937509625,2.38
1630937509640,2.79
1630937509656,3.22
1630937509671,3.59
1630937509687,3.85
1630937509703,4.02
1630937509718,4.12
1630937509734,4.19
1630937509750,4.22
1630937509765,4.18
1630937509781,4.02
1630937509796,3.76
1630937509812,3.45
1630937509828,3.16
1630937509843,2.96
1630937509859,2.84
1630937509875,2.75
1630937509890,2.57
1630937509906,2.25
1630937509921,1.8
1630937509937,1.31
1630937509953,0.89
1630937509968,0.59
1630937509984,0.4
1630937510000,0.23
1630937510015,-0.0
1630937510031,-0.33
1630937510046,-0.7
1630937510062,-1.05
1630937510078,-1.36
1630937510093,-1.66
1630937510109,-1.99
1630937510125,-2.41
1630937510140,-2.94
1630937510156,-3.55
1630937510171,-4.24
1630937510187,-4.99
1630937510203,-5.75
1630937510218,-6.42
1630937510234,-6.87
1630937510250,-6.98
1630937510265,-6.74
1630937510281,-6.24
1630937510296,-5.67
1630937510312,-5.19
1630937510328,-4.82
1630937510343,-4.43
1630937510359,-3.87
1630937510375,-3.05
1630937510390,-2.05
1630937510406,-1.05
1630937510421,-0.27
1630937510437,0.21
1630937510453,0.43
1630937510468,0.54
1630937510484,0.71
1630937510500,1.01
1630937510515,1.38
1630937510531,1.74
1630937510546,2.03
1630937510562,2.25
1630937510578,2.5
1630937510593,2.84
1630937510609,3.3
1630937510625,3.79
1630937510640,4.16
1630937510656,4.3
1630937510671,4.16
1630937510687,3.83
1630937510703,3.47
1630937510718,3.25
1630937510734,3.22
1630937510750,3.33
1630937510765,3.44
1630937510781,3.41
1630937510796,3.21
1630937510812,2.9
1630937510828,2.58
1630937510843,2.37
1630937510859,2.28
1630937510875,2.24
1630937510890,2.18
1630937510906,2.02
1630937510921,1.78
1630937510937,1.52
1630937510953,1.3
1630937510968,1.14
1630937510984,0.99
1630937511000,0.73
1630937511015,0.3
1630937511031,-0.33
1630937511046,-1.1
1630937511062,-1.89
1630937511078,-2.62
1630937511093,-3.23
1630937511109,-3.71
1630937511125,-4.12
1630937511140,-4.53
1630937511156,-5.0
1630937511171,-5.57
1630937511187,-6.19
1630937511203,-6.8
1630937511218,-7.25
1630937511234,-7.42
1630937511250,-7.21
1630937511265,-6.6
1630937511281,-5.66
1630937511296,-4.52
1630937511312,-3.31
1630937511328,-2.16
1630937511343,-1.18
1630937511359,-0.42
1630937511375,0.09
1630937511390,0.4
1630937511406,0.6
1630937511421,0.79
1630937511437,1.05
1630937511453,1.42
1630937511468,1.86
1630937511484,2.34
1630937511500,2.81
1630937511515,3.19
1630937511531,3.44
1630937511546,3.51
1630937511562,3.37
1630937511578,3.03
1630937511593,2.62
1630937511609,2.31
1630937511625,2.26
1630937511640,2.51
1630937511656,2.94
1630937511671,3.32
1630937511687,3.43
1630937511703,3.19
1630937511718,2.66
1630937511734,2.04
1630937511750,1.53
1630937511765,1.26
1630937511781,1.24
1630937511796,1.37
1630937511812,1.56
1630937511828,1.7
1630937511843,1.77
1630937511859,1.73
1630937511875,1.6
1630937511890,1.42
1630937511906,1.2
1630937511921,0.99
1630937511937,0.8
1630937511953,0.62
1630937511968,0.4
1630937511984,0.09
1630937512000,-0.3
1630937512015,-0.76
1630937512031,-1.27
1630937512046,-1.8
1630937512062,-2.35
1630937512078,-2.89
1630937512093,-3.38
1630937512109,-3.76
1630937512125,-3.96
1630937512140,-4.0
1630937512156,-3.95
1630937512171,-3.95
1630937512187,-4.15
1630937512203,-4.61
1630937512218,-5.26
1630937512234,-5.93
1630937512250,-6.4
1630937512265,-6.49
1630937512281,-6.15
1630937512296,-5.46
1630937512312,-4.6
1630937512328,-3.76
1630937512343,-3.02
1630937512359,-2.35
1630937512375,-1.67
1630937512390,-0.96
1630937512406,-0.26
1630937512421,0.27
1630937512437,0.53
1630937512453,0.53
1630937512468,0.43
1630937512484,0.46
1630937512500,0.81
1630937512515,1.5
1630937512531,2.4
1630937512546,3.29
1630937512562,3.97
1630937512578,4.42
1630937512593,4.71
1630937512609,4.98
1630937512625,5.31
1630937512640,5.71
1630937512656,6.11
1630937512671,6.37
1630937512687,6.42
1630937512703,6.23
1630937512718,5.8
1630937512734,5.22
1630937512750,4.56
1630937512765,3.94
1630937512781,3.41
1630937512796,3.05
1630937512812,2.86
1630937512828,2.82
1630937512843,2.84
1630937512859,2.82
1630937512875,2.64
1630937512890,2.28
1630937512906,1.76
1630937512921,1.16
1630937512937,0.56
1630937512953,-0.02
1630937512968,-0.59
1630937512984,-1.2
1630937513000,-1.87
1630937513015,-2.57
1630937513031,-3.22
1630937513046,-3.73
1630937513062,-4.07
1630937513078,-4.28
1630937513093,-4.47
1630937513109,-4.75
1630937513125,-5.14
1630937513140,-5.63
1630937513156,-6.13
1630937513171,-6.55
1630937513187,-6.82
1630937513203,-6.89
1630937513218,-6.72
1630937513234,-6.31
1630937513250,-5.61
1630937513265,-4.61
1630937513281,-3.34
1630937513296,-1.91
1630937513312,-0.5
1630937513328,0.67
1630937513343,1.41
1630937513359,1.67
1630937513375,1.55
1630937513390,1.3
1630937513406,1.17
1630937513421,1.34
1630937513437,1.83
1630937513453,2.48
1630937513468,3.12
1630937513484,3.58
1630937513500,3.83
1630937513515,3.93
1630937513531,3.95
1630937513546,3.92
1630937513562,3.84
1630937513578,3.67
1630937513593,3.41
1630937513609,3.13
1630937513625,2.95
1630937513640,2.94
1630937513656,3.11
1630937513671,3.39
1630937513687,3.67
1630937513703,3.85
1630937513718,3.89
1630937513734,3.79
1630937513750,3.62
1630937513765,3.39
1630937513781,3.13
1630937513796,2.84
1630937513812,2.52
1630937513828,2.15
1630937513843,1.77
1630937513859,1.4
1630937513875,1.07
1630937513890,0.78
1630937513906,0.51
1630937513921,0.21
1630937513937,-0.17
1630937513953,-0.69
1630937513968,-1.38
1630937513984,-2.23
1630937514000,-3.17
1630937514015,-4.08
1630937514031,-4.85
1630937514046,-5.4
1630937514062,-5.73
1630937514078,-5.95
1630937514093,-6.17
1630937514109,-6.42
1630937514125,-6.68
1630937514140,-6.81
1630937514156,-6.68
1630937514171,-6.25
1630937514187,-5.58
1630937514203,-4.78
1630937514218,-3.97
1630937514234,-3.18
1630937514250,-2.41
1630937514265,-1.61
1630937514281,-0.82
1630937514296,-0.09
1630937514312,0.47
1630937514328,0.79
1630937514343,0.89
1630937514359,0.82
1630937514375,0.73
1630937514390,0.71
1630937514406,0.86
1630937514421,1.21
1630937514437,1.74
1630937514453,2.36
1630937514468,2.98
1630937514484,3.49
1630937514500,3.84
1630937514515,4.04
1630937514531,4.15
1630937514546,4.23
1630937514562,4.3
1630937514578,4.34
1630937514593,4.28
1630937514609,4.09
1630937514625,3.82
1630937514640,3.51
1630937514656,3.23
1630937514671,3.01
1630937514687,2.81
1630937514703,2.57
1630937514718,2.26
1630937514734,1.88
1630937514750,1.49
1630937514765,1.18
1630937514781,1.02
1630937514796,1.01
1630937514812,1.11
1630937514828,1.25
1630937514843,1.4
1630937514859,1.51
1630937514875,1.57
1630937514890,1.54
1630937514906,1.35
1630937514921,0.95
1630937514937,0.34
1630937514953,-0.43
1630937514968,-1.26
1630937514984,-2.02
1630937515000,-2.68
1630937515015,-3.28
1630937515031,-3.94
1630937515046,-4.76
1630937515062,-5.75
1630937515078,-6.78
1630937515093,-7.65
1630937515109,-8.13
1630937515125,-8.11
1630937515140,-7.66
1630937515156,-6.94
1630937515171,-6.15
1630937515187,-5.42
1630937515203,-4.79
1630937515218,-4.18
1630937515234,-3.54
1630937515250,-2.81
1630937515265,-2.07
1630937515281,-1.38
1630937515296,-0.81
1630937515312,-0.38
1630937515328,-0.06
1630937515343,0.2
1630937515359,0.45
1630937515375,0.69
1630937515390,0.95
1630937515406,1.22
1630937515421,1.5
1630937515437,1.79
1630937515453,2.08
1630937515468,2.35
1630937515484,2.61
1630937515500,2.9
1630937515515,3.23
1630937515531,3.6
1630937515546,3.99
1630937515562,4.32
1630937515578,4.55
1630937515593,4.65
1630937515609,4.61
1630937515625,4.45
1630937515640,4.2
1630937515656,3.91
1630937515671,3.64
1630937515687,3.45
1630937515703,3.38
1630937515718,3.39
1630937515734,3.43
1630937515750,3.41
1630937515765,3.23
1630937515781,2.87
1630937515796,2.33
1630937515812,1.67
1630937515828,0.97
1630937515843,0.31
1630937515859,-0.24
1630937515875,-0.67
1630937515890,-1.01
1630937515906,-1.35
1630937515921,-1.78
1630937515937,-2.33
1630937515953,-2.95
1630937515968,-3.49
1630937515984,-3.82
1630937516000,-3.88
1630937516015,-3.77
1630937516031,-3.66
1630937516046,-3.73
1630937516062,-4.06
1630937516078,-4.56
1630937516093,-5.04
1630937516109,-5.32
1630937516125,-5.28
1630937516140,-4.91
1630937516156,-4.27
1630937516171,-3.42
1630937516187,-2.4
1630937516203,-1.2
1630937516218,0.12
