timestamp,bvp
1631192845203,2.63
1631192845218,2.39
1631192845234,2.13
1631192845250,1.79
1631192845265,1.34
1631192845281,0.76
1631192845296,0.06
1631192845312,-0.72
1631192845328,-1.51
1631192845343,-2.21
1631192845359,-2.74
1631192845375,-3.06
1631192845390,-3.21
1631192845406,-3.3
1631192845421,-3.46
1631192845437,-3.77
1631192845453,-4.22
1631192845468,-4.79
1631192845484,-5.38
1631192845500,-5.93
1631192845515,-6.4
1631192845531,-6.78
1631192845546,-7.1
1631192845562,-7.43
1631192845578,-7.91
1631192845593,-8.61
1631192845609,-9.58
1631192845625,-10.68
1631192845640,-11.61
1631192845656,-12.01
1631192845671,-11.62
1631192845687,-10.35
1631192845703,-8.43
1631192845718,-6.22
1631192845734,-4.1
1631192845750,-2.28
1631192845765,-0.77
1631192845781,0.58
1631192845796,1.9
1631192845812,3.2
1631192845828,4.33
1631192845843,5.15
1631192845859,5.57
1631192845875,5.66
1631192845890,5.59
1631192845906,5.55
1631192845921,5.65
1631192845937,5.87
1631192845953,6.12
1631192845968,6.29
1631192845984,6.29
1631192846000,6.09
1631192846015,5.68
1631192846031,5.14
1631192846046,4.59
1631192846062,4.19
1631192846078,4.04
1631192846093,4.21
1631192846109,4.58
1631192846125,4.97
1631192846140,5.18
1631192846156,5.1
1631192846171,4.71
1631192846187,4.09
1631192846203,3.39
1631192846218,2.69
1631192846234,2.05
1631192846250,1.5
1631192846265,1.0
1631192846281,0.57
1631192846296,0.19
1631192846312,-0.12
1631192846328,-0.37
1631192846343,-0.58
1631192846359,-0.8
1631192846375,-1.1
1631192846390,-1.55
1631192846406,-2.14
1631192846421,-2.82
1631192846437,-3.46
1631192846453,-3.95
1631192846468,-4.23
1631192846484,-4.33
1631192846500,-4.35
1631192846515,-4.38
1631192846531,-4.48
1631192846546,-4.66
1631192846562,-4.93
1631192846578,-5.33
1631192846593,-5.95
1631192846609,-6.86
1631192846625,-8.07
1631192846640,-9.43
1631192846656,-10.67
1631192846671,-11.42
1631192846687,-11.4
1631192846703,-10.53
1631192846718,-8.98
1631192846734,-7.09
1631192846750,-5.23
1631192846765,-3.67
1631192846781,-2.45
1631192846796,-1.45
1631192846812,-0.47
1631192846828,0.62
1631192846843,1.83
1631192846859,3.07
1631192846875,4.21
1631192846890,5.14
1631192846906,5.79
1631192846921,6.12
1631192846937,6.13
1631192846953,5.88
1631192846968,5.47
1631192846984,5.07
1631192847000,4.83
1631192847015,4.78
1631192847031,4.86
1631192847046,4.91
1631192847062,4.83
1631192847078,4.58
1631192847093,4.25
1631192847109,3.95
1631192847125,3.78
1631192847140,3.7
1631192847156,3.66
1631192847171,3.58
1631192847187,3.45
1631192847203,3.3
1631192847218,3.16
1631192847234,3.05
1631192847250,2.91
1631192847265,2.7
1631192847281,2.37
1631192847296,1.95
1631192847312,1.47
1631192847328,0.96
1631192847343,0.41
1631192847359,-0.2
1631192847375,-0.88
1631192847390,-1.64
1631192847406,-2.42
1631192847421,-3.15
1631192847437,-3.74
1631192847453,-4.16
1631192847468,-4.43
1631192847484,-4.61
1631192847500,-4.85
1631192847515,-5.29
1631192847531,-5.98
1631192847546,-6.88
1631192847562,-7.87
1631192847578,-8.74
1631192847593,-9.36
1631192847609,-9.67
1631192847625,-9.75
1631192847640,-9.72
1631192847656,-9.72
1631192847671,-9.79
1631192847687,-9.89
1631192847703,-9.91
1631192847718,-9.71
1631192847734,-9.2
1631192847750,-8.33
1631192847765,-7.16
1631192847781,-5.77
1631192847796,-4.29
1631192847812,-2.82
1631192847828,-1.39
1631192847843,0.04
1631192847859,1.52
1631192847875,3.04
1631192847890,4.49
1631192847906,5.66
1631192847921,6.36
1631192847937,6.46
1631192847953,6.02
1631192847968,5.22
1631192847984,4.34
1631192848000,3.58
1631192848015,3.06
1631192848031,2.8
1631192848046,2.74
1631192848062,2.85
1631192848078,3.07
1631192848093,3.4
1631192848109,3.76
1631192848125,4.01
1631192848140,4.0
1631192848156,3.63
1631192848171,2.93
1631192848187,2.04
1631192848203,1.19
1631192848218,0.59
1631192848234,0.34
1631192848250,0.41
1631192848265,0.67
1631192848281,0.94
1631192848296,1.09
1631192848312,1.07
1631192848328,0.9
1631192848343,0.65
1631192848359,0.38
1631192848375,0.18
1631192848390,0.09
1631192848406,0.1
1631192848421,0.18
1631192848437,0.19
1631192848453,-0.02
1631192848468,-0.54
1631192848484,-1.31
1631192848500,-2.17
1631192848515,-2.89
1631192848531,-3.29
1631192848546,-3.35
1631192848562,-3.16
1631192848578,-2.92
1631192848593,-2.84
1631192848609,-3.06
1631192848625,-3.59
1631192848640,-4.33
1631192848656,-5.09
1631192848671,-5.64
1631192848687,-5.79
1631192848703,-5.45
1631192848718,-4.64
1631192848734,-3.53
1631192848750,-2.38
1631192848765,-1.45
1631192848781,-0.89
1631192848796,-0.68
1631192848812,-0.63
1631192848828,-0.46
1631192848843,0.08
1631192848859,1.04
1631192848875,2.3
1631192848890,3.54
1631192848906,4.42
1631192848921,4.71
1631192848937,4.43
1631192848953,3.85
1631192848968,3.33
1631192848984,3.2
1631192849000,3.54
1631192849015,4.2
1631192849031,4.86
1631192849046,5.24
1631192849062,5.17
1631192849078,4.74
1631192849093,4.14
1631192849109,3.61
1631192849125,3.29
1631192849140,3.21
1631192849156,3.26
1631192849171,3.32
1631192849187,3.29
1631192849203,3.14
1631192849218,2.92
1631192849234,2.68
1631192849250,2.48
1631192849265,2.32
1631192849281,2.18
1631192849296,1.99
1631192849312,1.75
1631192849328,1.45
1631192849343,1.14
1631192849359,0.85
1631192849375,0.54
1631192849390,0.14
1631192849406,-0.42
1631192849421,-1.14
1631192849437,-1.9
1631192849453,-2.53
1631192849468,-2.88
1631192849484,-2.94
1631192849500,-2.87
1631192849515,-2.96
1631192849531,-3.42
1631192849546,-4.31
1631192849562,-5.49
1631192849578,-6.62
1631192849593,-7.34
1631192849609,-7.43
1631192849625,-6.82
1631192849640,-5.66
1631192849656,-4.19
1631192849671,-2.66
1631192849687,-1.21
1631192849703,0.11
1631192849718,1.35
1631192849734,2.61
1631192849750,3.92
1631192849765,5.26
1631192849781,6.49
1631192849796,7.48
1631192849812,8.15
1631192849828,8.53
1631192849843,8.79
1631192849859,9.05
1631192849875,9.38
1631192849890,9.69
1631192849906,9.83
1631192849921,9.65
1631192849937,9.13
1631192849953,8.4
1631192849968,7.67
1631192849984,7.19
1631192850000,7.06
1631192850015,7.28
1631192850031,7.71
1631192850046,8.21
1631192850062,8.69
1631192850078,9.09
1631192850093,9.41
1631192850109,9.65
1631192850125,9.76
1631192850140,9.67
1631192850156,9.31
1631192850171,8.7
1631192850187,7.97
1631192850203,7.36
1631192850218,7.12
1631192850234,7.36
1631192850250,8.0
1631192850265,8.79
1631192850281,9.37
1631192850296,9.5
1631192850312,9.08
1631192850328,8.2
1631192850343,6.99
1631192850359,5.64
1631192850375,4.29
1631192850390,3.06
1631192850406,2.1
1631192850421,1.42
1631192850437,0.82
1631192850453,-0.27
1631192850468,-2.72
1631192850484,-7.49
1631192850500,-15.18
1631192850515,-25.65
1631192850531,-37.88
1631192850546,-50.18
1631192850562,-60.8
1631192850578,-68.41
1631192850593,-72.44
1631192850609,-73.03
1631192850625,-70.76
1631192850640,-66.34
1631192850656,-60.42
1631192850671,-53.56
1631192850687,-46.24
1631192850703,-38.8
1631192850718,-31.37
1631192850734,-23.91
1631192850750,-16.36
1631192850765,-8.88
1631192850781,-2.13
1631192850796,2.75
1631192850812,4.63
1631192850828,3.0
1631192850843,-1.45
1631192850859,-6.85
1631192850875,-10.55
1631192850890,-9.97
1631192850906,-3.27
1631192850921,10.0
1631192850937,28.82
1631192850953,50.91
1631192850968,73.27
1631192850984,92.84
1631192851000,107.15
1631192851015,114.81
1631192851031,115.69
1631192851046,110.76
1631192851062,101.61
1631192851078,89.89
1631192851093,76.79
1631192851109,62.94
1631192851125,48.61
1631192851140,34.05
1631192851156,19.84
1631192851171,6.85
1631192851187,-4.08
1631192851203,-12.51
1631192851218,-18.55
1631192851234,-22.77
1631192851250,-25.85
1631192851265,-28.18
1631192851281,-29.75
1631192851296,-30.25
1631192851312,-29.49
1631192851328,-27.64
1631192851343,-25.35
1631192851359,-23.4
1631192851375,-22.47
1631192851390,-22.76
1631192851406,-23.96
1631192851421,-25.47
1631192851437,-26.64
1631192851453,-27.05
1631192851468,-26.57
1631192851484,-25.35
1631192851500,-23.67
1631192851515,-21.84
1631192851531,-20.03
1631192851546,-18.24
1631192851562,-16.33
1631192851578,-14.15
1631192851593,-11.61
1631192851609,-8.8
1631192851625,-5.95
1631192851640,-3.37
1631192851656,-1.35
1631192851671,0.01
1631192851687,0.74
1631192851703,1.06
1631192851718,1.26
1631192851734,1.58
1631192851750,2.2
1631192851765,3.16
1631192851781,4.35
1631192851796,5.56
1631192851812,6.55
1631192851828,7.2
1631192851843,7.46
1631192851859,7.46
1631192851875,7.35
1631192851890,7.25
1631192851906,7.21
1631192851921,7.16
1631192851937,7.02
1631192851953,6.7
1631192851968,6.19
1631192851984,5.54
1631192852000,4.84
1631192852015,4.13
1631192852031,3.44
1631192852046,2.72
1631192852062,1.91
1631192852078,1.0
1631192852093,0.01
1631192852109,-0.94
1631192852125,-1.75
1631192852140,-2.35
1631192852156,-2.79
1631192852171,-3.21
1631192852187,-3.76
1631192852203,-4.54
1631192852218,-5.51
1631192852234,-6.54
1631192852250,-7.52
1631192852265,-8.39
1631192852281,-9.24
1631192852296,-10.16
1631192852312,-11.15
1631192852328,-12.11
1631192852343,-12.79
1631192852359,-12.95
1631192852375,-12.46
1631192852390,-11.32
1631192852406,-9.69
1631192852421,-7.76
1631192852437,-5.67
1631192852453,-3.45
1631192852468,-1.08
1631192852484,1.48
1631192852500,4.18
1631192852515,6.87
1631192852531,9.32
1631192852546,11.3
1631192852562,12.61
1631192852578,13.16
1631192852593,12.96
1631192852609,12.11
1631192852625,10.85
1631192852640,9.44
1631192852656,8.15
1631192852671,7.14
1631192852687,6.44
1631192852703,5.98
1631192852718,5.62
1631192852734,5.32
1631192852750,5.08
1631192852765,4.97
1631192852781,5.02
1631192852796,5.15
1631192852812,5.19
1631192852828,5.0
1631192852843,4.53
1631192852859,3.88
1631192852875,3.2
1631192852890,2.65
1631192852906,2.22
1631192852921,1.82
1631192852937,1.31
1631192852953,0.58
1631192852968,-0.37
1631192852984,-1.42
1631192853000,-2.46
1631192853015,-3.39
1631192853031,-4.18
1631192853046,-4.84
1631192853062,-5.4
1631192853078,-5.86
1631192853093,-6.23
1631192853109,-6.54
1631192853125,-6.88
1631192853140,-7.35
1631192853156,-8.09
1631192853171,-9.14
1631192853187,-10.39
1631192853203,-11.58
1631192853218,-12.32
1631192853234,-12.32
1631192853250,-11.47
1631192853265,-9.92
1631192853281,-7.99
1631192853296,-5.97
1631192853312,-3.99
1631192853328,-1.97
1631192853343,0.23
1631192853359,2.7
1631192853375,5.27
1631192853390,7.63
1631192853406,9.38
1631192853421,10.27
1631192853437,10.29
1631192853453,9.68
1631192853468,8.78
1631192853484,7.94
1631192853500,7.35
1631192853515,7.06
1631192853531,6.99
1631192853546,6.98
1631192853562,6.89
1631192853578,6.62
1631192853593,6.2
1631192853609,5.69
1631192853625,5.22
1631192853640,4.87
1631192853656,4.67
1631192853671,4.63
1631192853687,4.66
1631192853703,4.68
1631192853718,4.56
1631192853734,4.2
1631192853750,3.55
1631192853765,2.65
1631192853781,1.64
1631192853796,0.66
1631192853812,-0.17
1631192853828,-0.84
1631192853843,-1.42
1631192853859,-2.04
1631192853875,-2.76
1631192853890,-3.57
1631192853906,-4.39
1631192853921,-5.14
1631192853937,-5.82
1631192853953,-6.43
1631192853968,-7.0
1631192853984,-7.54
1631192854000,-8.02
1631192854015,-8.44
1631192854031,-8.89
1631192854046,-9.5
1631192854062,-10.38
1631192854078,-11.46
1631192854093,-12.52
1631192854109,-13.14
1631192854125,-12.98
1631192854140,-11.88
1631192854156,-9.96
1631192854171,-7.54
1631192854187,-4.98
1631192854203,-2.53
1631192854218,-0.24
1631192854234,1.92
1631192854250,3.99
1631192854265,5.86
1631192854281,7.39
1631192854296,8.42
1631192854312,8.94
1631192854328,9.07
1631192854343,9.04
1631192854359,9.01
1631192854375,9.04
1631192854390,9.02
1631192854406,8.82
1631192854421,8.34
1631192854437,7.62
1631192854453,6.78
1631192854468,6.0
1631192854484,5.42
1631192854500,5.1
1631192854515,5.03
1631192854531,5.15
1631192854546,5.35
1631192854562,5.54
1631192854578,5.62
1631192854593,5.55
1631192854609,5.29
1631192854625,4.86
1631192854640,4.33
1631192854656,3.75
1631192854671,3.18
1631192854687,2.63
1631192854703,2.08
1631192854718,1.51
1631192854734,0.87
1631192854750,0.17
1631192854765,-0.56
1631192854781,-1.31
1631192854796,-2.05
1631192854812,-2.74
1631192854828,-3.39
1631192854843,-4.0
1631192854859,-4.56
1631192854875,-5.1
1631192854890,-5.63
1631192854906,-6.14
1631192854921,-6.62
1631192854937,-7.04
1631192854953,-7.42
1631192854968,-7.84
1631192854984,-8.43
1631192855000,-9.32
1631192855015,-10.57
1631192855031,-12.05
1631192855046,-13.46
1631192855062,-14.37
1631192855078,-14.4
1631192855093,-13.39
1631192855109,-11.47
1631192855125,-9.01
1631192855140,-6.41
1631192855156,-3.98
1631192855171,-1.75
1631192855187,0.37
1631192855203,2.53
1631192855218,4.7
1631192855234,6.7
1631192855250,8.22
1631192855265,9.06
1631192855281,9.22
1631192855296,8.89
1631192855312,8.38
1631192855328,7.93
1631192855343,7.67
1631192855359,7.56
1631192855375,7.51
1631192855390,7.41
1631192855406,7.18
1631192855421,6.81
1631192855437,6.33
1631192855453,5.85
1631192855468,5.49
1631192855484,5.39
1631192855500,5.58
1631192855515,6.01
1631192855531,6.49
1631192855546,6.8
1631192855562,6.79
1631192855578,6.4
1631192855593,5.71
1631192855609,4.83
1631192855625,3.91
1631192855640,3.07
1631192855656,2.37
1631192855671,1.83
1631192855687,1.41
1631192855703,1.05
1631192855718,0.66
1631192855734,0.17
1631192855750,-0.42
1631192855765,-1.04
1631192855781,-1.59
1631192855796,-2.01
1631192855812,-2.32
1631192855828,-2.65
1631192855843,-3.1
1631192855859,-3.68
1631192855875,-4.31
1631192855890,-4.83
1631192855906,-5.15
1631192855921,-5.29
1631192855937,-5.43
1631192855953,-5.78
1631192855968,-6.46
1631192855984,-7.43
1631192856000,-8.52
1631192856015,-9.51
1631192856031,-10.27
1631192856046,-10.82
1631192856062,-11.27
1631192856078,-11.72
1631192856093,-12.15
1631192856109,-12.4
1631192856125,-12.23
1631192856140,-11.45
1631192856156,-10.07
1631192856171,-8.23
1631192856187,-6.21
1631192856203,-4.21
1631192856218,-2.31
1631192856234,-0.42
1631192856250,1.57
1631192856265,3.65
1631192856281,5.63
1631192856296,7.28
1631192856312,8.36
1631192856328,8.83
1631192856343,8.81
1631192856359,8.56
1631192856375,8.25
1631192856390,8.0
1631192856406,7.77
1631192856421,7.52
1631192856437,7.24
1631192856453,6.98
1631192856468,6.8
1631192856484,6.76
1631192856500,6.82
1631192856515,6.9
1631192856531,6.88
1631192856546,6.65
1631192856562,6.17
1631192856578,5.48
1631192856593,4.7
1631192856609,3.99
1631192856625,3.5
1631192856640,3.27
1631192856656,3.27
1631192856671,3.35
1631192856687,3.38
1631192856703,3.24
1631192856718,2.86
1631192856734,2.25
1631192856750,1.43
1631192856765,0.48
1631192856781,-0.46
1631192856796,-1.24
1631192856812,-1.73
1631192856828,-1.89
1631192856843,-1.8
1631192856859,-1.65
1631192856875,-1.65
1631192856890,-1.96
1631192856906,-2.63
1631192856921,-3.56
1631192856937,-4.59
1631192856953,-5.53
1631192856968,-6.22
1631192856984,-6.57
1631192857000,-6.61
1631192857015,-6.49
1631192857031,-6.41
1631192857046,-6.6
1631192857062,-7.25
1631192857078,-8.4
1631192857093,-9.96
1631192857109,-11.67
1631192857125,-13.19
1631192857140,-14.15
1631192857156,-14.28
1631192857171,-13.5
1631192857187,-11.93
1631192857203,-9.85
1631192857218,-7.57
1631192857234,-5.32
1631192857250,-3.16
1631192857265,-1.06
1631192857281,1.05
1631192857296,3.16
1631192857312,5.14
1631192857328,6.81
1631192857343,8.02
1631192857359,8.7
1631192857375,8.91
1631192857390,8.74
1631192857406,8.31
1631192857421,7.75
1631192857437,7.21
1631192857453,6.79
1631192857468,6.53
1631192857484,6.42
1631192857500,6.35
1631192857515,6.22
1631192857531,6.02
1631192857546,5.79
1631192857562,5.63
1631192857578,5.61
1631192857593,5.68
1631192857609,5.72
1631192857625,5.61
1631192857640,5.29
1631192857656,4.79
1631192857671,4.24
1631192857687,3.75
1631192857703,3.39
1631192857718,3.13
1631192857734,2.9
1631192857750,2.61
1631192857765,2.18
1631192857781,1.59
1631192857796,0.87
1631192857812,0.13
1631192857828,-0.5
1631192857843,-0.87
1631192857859,-0.96
1631192857875,-0.89
1631192857890,-0.88
1631192857906,-1.17
1631192857921,-1.89
1631192857937,-3.01
1631192857953,-4.32
1631192857968,-5.53
1631192857984,-6.4
1631192858000,-6.79
1631192858015,-6.77
1631192858031,-6.53
1631192858046,-6.34
1631192858062,-6.46
1631192858078,-7.07
1631192858093,-8.2
1631192858109,-9.76
1631192858125,-11.51
1631192858140,-13.17
1631192858156,-14.42
1631192858171,-14.96
1631192858187,-14.62
1631192858203,-13.36
1631192858218,-11.35
1631192858234,-8.89
1631192858250,-6.33
1631192858265,-3.95
1631192858281,-1.81
1631192858296,0.16
1631192858312,2.11
1631192858328,4.16
1631192858343,6.26
1631192858359,8.22
1631192858375,9.82
1631192858390,10.9
1631192858406,11.4
1631192858421,11.4
1631192858437,11.03
1631192858453,10.43
1631192858468,9.69
1631192858484,8.87
1631192858500,8.02
1631192858515,7.18
1631192858531,6.4
1631192858546,5.72
1631192858562,5.15
1631192858578,4.65
1631192858593,4.16
1631192858609,3.67
1631192858625,3.22
1631192858640,2.85
1631192858656,2.64
1631192858671,2.56
1631192858687,2.54
1631192858703,2.45
1631192858718,2.22
1631192858734,1.87
1631192858750,1.52
1631192858765,1.3
1631192858781,1.25
1631192858796,1.33
1631192858812,1.37
1631192858828,1.26
1631192858843,0.98
1631192858859,0.61
1631192858875,0.31
1631192858890,0.14
1631192858906,0.06
1631192858921,-0.08
1631192858937,-0.44
1631192858953,-1.07
1631192858968,-1.88
1631192858984,-2.68
1631192859000,-3.32
1631192859015,-3.74
1631192859031,-3.96
1631192859046,-4.12
1631192859062,-4.38
1631192859078,-4.84
1631192859093,-5.59
1631192859109,-6.64
1631192859125,-7.99
1631192859140,-9.59
1631192859156,-11.28
1631192859171,-12.81
1631192859187,-13.88
1631192859203,-14.24
1631192859218,-13.74
1631192859234,-12.46
1631192859250,-10.6
1631192859265,-8.47
1631192859281,-6.39
1631192859296,-4.49
1631192859312,-2.78
1631192859328,-1.16
1631192859343,0.52
1631192859359,2.31
1631192859375,4.12
1631192859390,5.78
1631192859406,7.06
1631192859421,7.84
1631192859437,8.06
1631192859453,7.84
1631192859468,7.35
1631192859484,6.78
1631192859500,6.31
1631192859515,6.03
1631192859531,5.96
1631192859546,6.05
1631192859562,6.17
1631192859578,6.22
1631192859593,6.15
1631192859609,5.98
1631192859625,5.81
1631192859640,5.74
1631192859656,5.79
1631192859671,5.87
1631192859687,5.84
1631192859703,5.57
1631192859718,5.05
1631192859734,4.38
1631192859750,3.72
1631192859765,3.2
1631192859781,2.83
1631192859796,2.47
1631192859812,1.96
1631192859828,1.15
1631192859843,0.04
1631192859859,-1.23
1631192859875,-2.42
1631192859890,-3.29
1631192859906,-3.72
1631192859921,-3.75
1631192859937,-3.56
1631192859953,-3.38
1631192859968,-3.43
1631192859984,-3.8
1631192860000,-4.45
1631192860015,-5.25
1631192860031,-6.02
1631192860046,-6.65
1631192860062,-7.12
1631192860078,-7.45
1631192860093,-7.7
1631192860109,-7.93
1631192860125,-8.21
1631192860140,-8.64
1631192860156,-9.3
1631192860171,-10.26
1631192860187,-11.45
1631192860203,-12.68
1631192860218,-13.62
1631192860234,-13.94
1631192860250,-13.43
1631192860265,-12.09
1631192860281,-10.09
1631192860296,-7.77
1631192860312,-5.45
1631192860328,-3.34
1631192860343,-1.52
1631192860359,0.01
1631192860375,1.31
1631192860390,2.44
1631192860406,3.4
1631192860421,4.17
1631192860437,4.69
1631192860453,4.91
1631192860468,4.83
1631192860484,4.51
1631192860500,4.09
1631192860515,3.76
1631192860531,3.69
1631192860546,3.92
1631192860562,4.4
1631192860578,5.0
1631192860593,5.52
1631192860609,5.82
1631192860625,5.81
1631192860640,5.5
1631192860656,4.99
1631192860671,4.45
1631192860687,4.03
1631192860703,3.87
1631192860718,3.98
1631192860734,4.27
1631192860750,4.56
1631192860765,4.65
1631192860781,4.42
1631192860796,3.86
1631192860812,3.06
1631192860828,2.19
1631192860843,1.42
1631192860859,0.9
1631192860875,0.68
1631192860890,0.69
1631192860906,0.76
1631192860921,0.62
1631192860937,0.06
1631192860953,-1.01
1631192860968,-2.43
1631192860984,-3.82
1631192861000,-4.75
1631192861015,-4.88
1631192861031,-4.1
1631192861046,-2.59
1631192861062,-0.79
1631192861078,0.75
1631192861093,1.51
1631192861109,1.22
1631192861125,-0.13
1631192861140,-2.25
1631192861156,-4.64
1631192861171,-6.74
1631192861187,-8.13
1631192861203,-8.62
1631192861218,-8.27
1631192861234,-7.3
1631192861250,-5.96
1631192861265,-4.4
1631192861281,-2.68
1631192861296,-0.8
1631192861312,1.18
1631192861328,3.08
1631192861343,4.72
1631192861359,5.97
1631192861375,6.8
1631192861390,7.3
1631192861406,7.61
1631192861421,7.86
1631192861437,8.06
1631192861453,8.18
1631192861468,8.15
1631192861484,7.95
1631192861500,7.6
1631192861515,7.16
1631192861531,6.74
1631192861546,6.43
1631192861562,6.33
1631192861578,6.46
1631192861593,6.82
1631192861609,7.28
1631192861625,7.66
1631192861640,7.77
1631192861656,7.49
1631192861671,6.84
1631192861687,5.97
1631192861703,5.07
1631192861718,4.34
1631192861734,3.9
1631192861750,3.73
1631192861765,3.68
1631192861781,3.57
1631192861796,3.24
1631192861812,2.63
1631192861828,1.78
1631192861843,0.77
1631192861859,-0.28
1631192861875,-1.29
1631192861890,-2.24
1631192861906,-3.15
1631192861921,-4.09
1631192861937,-5.14
1631192861953,-6.33
1631192861968,-7.67
1631192861984,-9.06
1631192862000,-10.36
1631192862015,-11.43
1631192862031,-12.13
1631192862046,-12.41
1631192862062,-12.24
1631192862078,-11.6
1631192862093,-10.5
1631192862109,-8.92
1631192862125,-6.89
1631192862140,-4.5
1631192862156,-1.86
1631192862171,0.87
1631192862187,3.54
1631192862203,6.01
1631192862218,8.12
1631192862234,9.77
1631192862250,10.86
1631192862265,11.4
1631192862281,11.44
1631192862296,11.1
1631192862312,10.45
1631192862328,9.59
1631192862343,8.56
1631192862359,7.45
1631192862375,6.38
1631192862390,5.53
1631192862406,5.04
1631192862421,4.97
1631192862437,5.28
1631192862453,5.8
1631192862468,6.3
1631192862484,6.56
1631192862500,6.42
1631192862515,5.89
1631192862531,5.09
1631192862546,4.2
1631192862562,3.39
1631192862578,2.7
1631192862593,2.04
1631192862609,1.34
1631192862625,0.54
1631192862640,-0.27
1631192862656,-0.95
1631192862671,-1.4
1631192862687,-1.64
1631192862703,-1.84
1631192862718,-2.2
1631192862734,-2.85
1631192862750,-3.77
1631192862765,-4.82
1631192862781,-5.83
1631192862796,-6.64
1631192862812,-7.22
1631192862828,-7.62
1631192862843,-7.96
1631192862859,-8.33
1631192862875,-8.86
1631192862890,-9.59
1631192862906,-10.59
1631192862921,-11.86
1631192862937,-13.33
1631192862953,-14.84
1631192862968,-16.08
1631192862984,-16.68
1631192863000,-16.34
1631192863015,-14.87
1631192863031,-12.39
1631192863046,-9.22
1631192863062,-5.85
1631192863078,-2.67
1631192863093,0.13
1631192863109,2.61
1631192863125,4.94
1631192863140,7.24
1631192863156,9.49
1631192863171,11.46
1631192863187,12.88
1631192863203,13.54
1631192863218,13.43
1631192863234,12.72
1631192863250,11.67
1631192863265,10.58
1631192863281,9.64
1631192863296,8.97
1631192863312,8.58
1631192863328,8.43
1631192863343,8.43
1631192863359,8.48
1631192863375,8.5
1631192863390,8.46
1631192863406,8.35
1631192863421,8.19
1631192863437,7.98
1631192863453,7.69
1631192863468,7.28
1631192863484,6.74
1631192863500,6.1
1631192863515,5.47
1631192863531,4.93
1631192863546,4.55
1631192863562,4.31
1631192863578,4.1
1631192863593,3.75
1631192863609,3.16
1631192863625,2.3
1631192863640,1.25
1631192863656,0.2
1631192863671,-0.66
1631192863687,-1.22
1631192863703,-1.5
1631192863718,-1.59
1631192863734,-1.63
1631192863750,-1.73
1631192863765,-1.94
1631192863781,-2.26
1631192863796,-2.7
1631192863812,-3.26
1631192863828,-3.93
1631192863843,-4.65
1631192863859,-5.34
1631192863875,-5.93
1631192863890,-6.41
1631192863906,-6.85
1631192863921,-7.34
1631192863937,-7.92
1631192863953,-8.59
1631192863968,-9.25
1631192863984,-9.83
1631192864000,-10.33
1631192864015,-10.86
1631192864031,-11.58
1631192864046,-12.59
1631192864062,-13.9
1631192864078,-15.29
1631192864093,-16.47
1631192864109,-17.06
1631192864125,-16.8
1631192864140,-15.62
1631192864156,-13.67
1631192864171,-11.21
1631192864187,-8.55
1631192864203,-5.87
1631192864218,-3.21
1631192864234,-0.5
1631192864250,2.28
1631192864265,5.05
1631192864281,7.6
1631192864296,9.67
1631192864312,11.11
1631192864328,11.91
1631192864343,12.22
1631192864359,12.19
1631192864375,11.97
1631192864390,11.59
1631192864406,11.09
1631192864421,10.52
1631192864437,9.95
1631192864453,9.49
1631192864468,9.21
1631192864484,9.07
1631192864500,9.01
1631192864515,8.93
1631192864531,8.75
1631192864546,8.48
1631192864562,8.15
1631192864578,7.81
1631192864593,7.48
1631192864609,7.17
1631192864625,6.83
1631192864640,6.42
1631192864656,5.91
1631192864671,5.32
1631192864687,4.7
1631192864703,4.13
1631192864718,3.62
1631192864734,3.16
1631192864750,2.68
1631192864765,2.14
1631192864781,1.51
1631192864796,0.84
1631192864812,0.2
1631192864828,-0.41
1631192864843,-1.01
1631192864859,-1.64
1631192864875,-2.31
1631192864890,-2.93
1631192864906,-3.37
1631192864921,-3.59
1631192864937,-3.65
1631192864953,-3.72
1631192864968,-3.99
1631192864984,-4.53
1631192865000,-5.29
1631192865015,-6.12
1631192865031,-6.86
1631192865046,-7.47
1631192865062,-7.98
1631192865078,-8.53
1631192865093,-9.22
1631192865109,-10.1
1631192865125,-11.13
1631192865140,-12.3
1631192865156,-13.58
1631192865171,-14.98
1631192865187,-16.47
1631192865203,-17.93
1631192865218,-19.09
1631192865234,-19.62
1631192865250,-19.25
1631192865265,-17.88
1631192865281,-15.7
1631192865296,-13.1
1631192865312,-10.46
1631192865328,-8.03
1631192865343,-5.8
1631192865359,-3.6
1631192865375,-1.25
1631192865390,1.22
1631192865406,3.62
1631192865421,5.61
1631192865437,6.91
1631192865453,7.39
1631192865468,7.1
1631192865484,6.24
1631192865500,5.06
1631192865515,3.87
1631192865531,3.03
1631192865546,2.9
1631192865562,3.81
1631192865578,5.93
1631192865593,9.24
1631192865609,13.47
1631192865625,18.19
1631192865640,22.88
1631192865656,27.01
1631192865671,30.15
1631192865687,32.04
1631192865703,32.62
1631192865718,31.94
1631192865734,30.07
1631192865750,27.08
1631192865765,22.97
1631192865781,17.82
1631192865796,11.88
1631192865812,5.6
1631192865828,-0.44
1631192865843,-5.65
1631192865859,-9.65
1631192865875,-12.34
1631192865890,-13.87
1631192865906,-14.49
1631192865921,-14.47
1631192865937,-13.96
1631192865953,-13.11
1631192865968,-12.04
1631192865984,-10.94
1631192866000,-10.01
1631192866015,-9.43
1631192866031,-9.22
1631192866046,-9.32
1631192866062,-9.56
1631192866078,-9.76
1631192866093,-9.85
1631192866109,-9.83
1631192866125,-9.77
1631192866140,-9.73
1631192866156,-9.76
1631192866171,-9.88
1631192866187,-10.14
1631192866203,-10.61
1631192866218,-11.31
1631192866234,-12.19
1631192866250,-13.06
1631192866265,-13.66
1631192866281,-13.74
1631192866296,-13.18
1631192866312,-12.05
1631192866328,-10.53
1631192866343,-8.78
1631192866359,-6.9
1631192866375,-4.82
1631192866390,-2.48
1631192866406,0.11
1631192866421,2.78
1631192866437,5.21
1631192866453,7.09
1631192866468,8.2
1631192866484,8.57
1631192866500,8.39
1631192866515,7.92
1631192866531,7.41
1631192866546,6.99
1631192866562,6.69
1631192866578,6.44
1631192866593,6.14
1631192866609,5.71
1631192866625,5.13
1631192866640,4.41
1631192866656,3.66
1631192866671,3.14
1631192866687,3.14
1631192866703,3.95
1631192866718,5.66
1631192866734,8.09
1631192866750,10.78
1631192866765,13.15
1631192866781,14.63
1631192866796,14.82
1631192866812,13.56
1631192866828,10.89
1631192866843,7.02
1631192866859,2.3
1631192866875,-2.81
1631192866890,-7.75
1631192866906,-11.99
1631192866921,-15.09
1631192866937,-16.86
1631192866953,-17.41
1631192866968,-17.09
1631192866984,-16.3
1631192867000,-15.36
1631192867015,-14.41
1631192867031,-13.48
1631192867046,-12.54
1631192867062,-11.61
1631192867078,-10.74
1631192867093,-9.95
1631192867109,-9.18
1631192867125,-8.35
1631192867140,-7.41
1631192867156,-6.45
1631192867171,-5.68
1631192867187,-5.31
1631192867203,-5.39
1631192867218,-5.71
1631192867234,-5.81
1631192867250,-5.25
1631192867265,-3.77
1631192867281,-1.42
1631192867296,1.56
1631192867312,4.95
1631192867328,8.63
1631192867343,12.61
1631192867359,16.9
1631192867375,21.41
1631192867390,25.96
1631192867406,30.36
1631192867421,34.48
1631192867437,38.28
1631192867453,41.75
1631192867468,44.87
1631192867484,47.57
1631192867500,49.78
1631192867515,51.53
1631192867531,52.95
1631192867546,54.21
1631192867562,55.4
1631192867578,56.37
1631192867593,56.72
1631192867609,55.85
1631192867625,53.13
1631192867640,48.0
1631192867656,40.17
1631192867671,29.74
1631192867687,17.29
1631192867703,3.84
1631192867718,-9.31
1631192867734,-20.91
1631192867750,-30.16
1631192867765,-36.84
1631192867781,-41.27
1631192867796,-44.04
1631192867812,-45.64
1631192867828,-46.32
1631192867843,-46.02
1631192867859,-44.63
1631192867875,-42.13
1631192867890,-38.77
1631192867906,-35.0
1631192867921,-31.28
1631192867937,-27.97
1631192867953,-25.2
1631192867968,-22.93
1631192867984,-21.06
1631192868000,-19.47
1631192868015,-18.11
1631192868031,-17.01
1631192868046,-16.2
1631192868062,-15.69
1631192868078,-15.44
1631192868093,-15.33
1631192868109,-15.22
1631192868125,-14.96
1631192868140,-14.49
1631192868156,-13.79
1631192868171,-12.9
1631192868187,-11.83
1631192868203,-10.6
1631192868218,-9.15
1631192868234,-7.45
1631192868250,-5.44
1631192868265,-3.13
1631192868281,-0.6
1631192868296,2.0
1631192868312,4.45
1631192868328,6.52
1631192868343,8.04
1631192868359,8.96
1631192868375,9.35
1631192868390,9.43
1631192868406,9.41
1631192868421,9.41
1631192868437,9.44
1631192868453,9.43
1631192868468,9.31
1631192868484,9.08
1631192868500,8.78
1631192868515,8.52
1631192868531,8.33
1631192868546,8.19
1631192868562,8.0
1631192868578,7.69
1631192868593,7.22
1631192868609,6.63
1631192868625,6.03
1631192868640,5.46
1631192868656,4.95
1631192868671,4.48
1631192868687,4.03
1631192868703,3.59
1631192868718,3.15
1631192868734,2.72
1631192868750,2.24
1631192868765,1.7
1631192868781,1.08
1631192868796,0.41
1631192868812,-0.25
1631192868828,-0.9
1631192868843,-1.56
1631192868859,-2.27
1631192868875,-3.02
1631192868890,-3.78
1631192868906,-4.43
1631192868921,-4.93
1631192868937,-5.31
1631192868953,-5.72
1631192868968,-6.33
1631192868984,-7.2
1631192869000,-8.22
1631192869015,-9.17
1631192869031,-9.85
1631192869046,-10.18
1631192869062,-10.3
1631192869078,-10.44
1631192869093,-10.81
1631192869109,-11.49
1631192869125,-12.34
1631192869140,-13.12
1631192869156,-13.57
1631192869171,-13.47
1631192869187,-12.75
1631192869203,-11.44
1631192869218,-9.67
1631192869234,-7.64
1631192869250,-5.53
1631192869265,-3.47
1631192869281,-1.53
1631192869296,0.27
1631192869312,1.93
1631192869328,3.4
1631192869343,4.6
1631192869359,5.46
1631192869375,5.93
1631192869390,6.08
1631192869406,6.01
1631192869421,5.83
1631192869437,5.65
1631192869453,5.52
1631192869468,5.5
1631192869484,5.58
1631192869500,5.74
1631192869515,5.94
1631192869531,6.06
1631192869546,5.98
1631192869562,5.65
1631192869578,5.07
1631192869593,4.4
1631192869609,3.77
1631192869625,3.32
1631192869640,3.09
1631192869656,3.01
1631192869671,2.98
1631192869687,2.9
1631192869703,2.75
1631192869718,2.51
1631192869734,2.21
1631192869750,1.86
1631192869765,1.47
1631192869781,1.07
1631192869796,0.72
1631192869812,0.47
1631192869828,0.34
1631192869843,0.31
1631192869859,0.3
1631192869875,0.24
1631192869890,0.09
1631192869906,-0.18
1631192869921,-0.57
1631192869937,-1.12
1631192869953,-1.86
1631192869968,-2.76
1631192869984,-3.71
1631192870000,-4.49
1631192870015,-4.92
1631192870031,-4.88
1631192870046,-4.47
1631192870062,-3.95
1631192870078,-3.68
1631192870093,-3.89
1631192870109,-4.68
1631192870125,-5.89
1631192870140,-7.26
1631192870156,-8.45
1631192870171,-9.23
1631192870187,-9.48
1631192870203,-9.18
1631192870218,-8.42
1631192870234,-7.35
1631192870250,-6.07
1631192870265,-4.69
1631192870281,-3.23
1631192870296,-1.71
1631192870312,-0.12
1631192870328,1.52
1631192870343,3.18
1631192870359,4.81
1631192870375,6.31
1631192870390,7.62
1631192870406,8.66
1631192870421,9.36
1631192870437,9.68
1631192870453,9.62
1631192870468,9.21
1631192870484,8.56
1631192870500,7.83
1631192870515,7.19
1631192870531,6.77
1631192870546,6.61
1631192870562,6.62
1631192870578,6.63
1631192870593,6.5
1631192870609,6.19
1631192870625,5.75
1631192870640,5.3
1631192870656,4.93
1631192870671,4.68
1631192870687,4.48
1631192870703,4.28
1631192870718,4.04
1631192870734,3.82
1631192870750,3.64
1631192870765,3.53
1631192870781,3.41
1631192870796,3.22
1631192870812,2.88
1631192870828,2.4
1631192870843,1.84
1631192870859,1.26
1631192870875,0.69
1631192870890,0.12
1631192870906,-0.48
1631192870921,-1.09
1631192870937,-1.67
1631192870953,-2.15
1631192870968,-2.49
1631192870984,-2.72
1631192871000,-2.94
1631192871015,-3.25
1631192871031,-3.71
1631192871046,-4.33
1631192871062,-5.0
1631192871078,-5.6
1631192871093,-6.05
1631192871109,-6.36
1631192871125,-6.63
1631192871140,-7.04
1631192871156,-7.66
1631192871171,-8.52
1631192871187,-9.47
1631192871203,-10.29
1631192871218,-10.77
1631192871234,-10.77
1631192871250,-10.27
1631192871265,-9.37
1631192871281,-8.23
1631192871296,-6.99
1631192871312,-5.71
1631192871328,-4.33
1631192871343,-2.74
1631192871359,-0.85
1631192871375,1.29
1631192871390,3.5
1631192871406,5.51
1631192871421,7.07
1631192871437,8.04
1631192871453,8.47
1631192871468,8.49
1631192871484,8.27
1631192871500,7.95
1631192871515,7.58
1631192871531,7.25
1631192871546,7.01
1631192871562,6.9
1631192871578,6.92
1631192871593,6.97
1631192871609,6.91
1631192871625,6.66
1631192871640,6.2
1631192871656,5.62
1631192871671,5.06
1631192871687,4.63
1631192871703,4.32
1631192871718,4.11
1631192871734,3.9
1631192871750,3.69
1631192871765,3.51
1631192871781,3.41
1631192871796,3.39
1631192871812,3.39
1631192871828,3.29
1631192871843,2.97
1631192871859,2.37
1631192871875,1.52
1631192871890,0.57
1631192871906,-0.28
1631192871921,-0.88
1631192871937,-1.21
1631192871953,-1.34
1631192871968,-1.41
1631192871984,-1.54
1631192872000,-1.75
1631192872015,-1.99
1631192872031,-2.17
1631192872046,-2.28
1631192872062,-2.38
1631192872078,-2.59
1631192872093,-3.0
1631192872109,-3.6
1631192872125,-4.3
1631192872140,-4.96
1631192872156,-5.49
1631192872171,-5.86
1631192872187,-6.14
1631192872203,-6.36
1631192872218,-6.59
1631192872234,-6.85
1631192872250,-7.17
1631192872265,-7.62
1631192872281,-8.28
1631192872296,-9.16
1631192872312,-10.21
1631192872328,-11.26
1631192872343,-12.08
1631192872359,-12.46
1631192872375,-12.24
1631192872390,-11.44
1631192872406,-10.16
1631192872421,-8.59
1631192872437,-6.94
1631192872453,-5.33
1631192872468,-3.75
1631192872484,-2.14
1631192872500,-0.42
1631192872515,1.41
1631192872531,3.25
1631192872546,4.9
1631192872562,6.19
1631192872578,7.01
1631192872593,7.37
1631192872609,7.4
1631192872625,7.23
1631192872640,6.97
1631192872656,6.68
1631192872671,6.4
1631192872687,6.14
1631192872703,5.96
1631192872718,5.91
1631192872734,5.96
1631192872750,6.09
1631192872765,6.21
1631192872781,6.23
1631192872796,6.08
1631192872812,5.71
1631192872828,5.15
1631192872843,4.46
1631192872859,3.76
1631192872875,3.21
1631192872890,2.94
1631192872906,3.0
1631192872921,3.32
1631192872937,3.73
1631192872953,4.0
1631192872968,3.95
1631192872984,3.53
1631192873000,2.84
1631192873015,2.02
1631192873031,1.29
1631192873046,0.75
1631192873062,0.44
1631192873078,0.27
1631192873093,0.16
1631192873109,-0.02
1631192873125,-0.35
1631192873140,-0.84
1631192873156,-1.45
1631192873171,-2.08
1631192873187,-2.65
1631192873203,-3.09
1631192873218,-3.36
1631192873234,-3.52
1631192873250,-3.65
1631192873265,-3.87
1631192873281,-4.27
1631192873296,-4.88
1631192873312,-5.62
1631192873328,-6.37
1631192873343,-6.99
1631192873359,-7.41
1631192873375,-7.69
1631192873390,-7.95
1631192873406,-8.34
1631192873421,-8.94
1631192873437,-9.75
1631192873453,-10.68
1631192873468,-11.56
1631192873484,-12.23
1631192873500,-12.48
1631192873515,-12.2
1631192873531,-11.33
1631192873546,-9.92
1631192873562,-8.16
1631192873578,-6.27
1631192873593,-4.4
1631192873609,-2.59
1631192873625,-0.77
1631192873640,1.13
1631192873656,3.09
1631192873671,4.92
1631192873687,6.35
1631192873703,7.22
1631192873718,7.5
1631192873734,7.37
1631192873750,7.06
1631192873765,6.73
1631192873781,6.43
1631192873796,6.15
1631192873812,5.88
1631192873828,5.66
1631192873843,5.6
1631192873859,5.73
1631192873875,6.0
1631192873890,6.3
1631192873906,6.51
1631192873921,6.56
1631192873937,6.45
1631192873953,6.24
1631192873968,5.95
1631192873984,5.59
1631192874000,5.17
1631192874015,4.7
1631192874031,4.27
1631192874046,3.96
1631192874062,3.84
1631192874078,3.91
1631192874093,4.1
1631192874109,4.26
1631192874125,4.26
1631192874140,4.01
1631192874156,3.49
1631192874171,2.8
1631192874187,2.08
1631192874203,1.49
1631192874218,1.1
1631192874234,0.87
1631192874250,0.73
1631192874265,0.54
1631192874281,0.27
1631192874296,-0.07
1631192874312,-0.45
1631192874328,-0.87
1631192874343,-1.38
1631192874359,-2.08
1631192874375,-2.98
1631192874390,-4.01
1631192874406,-4.97
1631192874421,-5.66
1631192874437,-5.98
1631192874453,-5.99
1631192874468,-5.93
1631192874484,-6.05
1631192874500,-6.5
1631192874515,-7.32
1631192874531,-8.42
1631192874546,-9.61
1631192874562,-10.75
1631192874578,-11.7
1631192874593,-12.34
1631192874609,-12.55
1631192874625,-12.2
1631192874640,-11.25
1631192874656,-9.75
1631192874671,-7.9
1631192874687,-5.94
1631192874703,-4.08
1631192874718,-2.4
1631192874734,-0.86
1631192874750,0.67
1631192874765,2.25
1631192874781,3.89
1631192874796,5.46
1631192874812,6.8
1631192874828,7.78
1631192874843,8.33
1631192874859,8.51
1631192874875,8.42
1631192874890,8.14
1631192874906,7.77
1631192874921,7.35
1631192874937,6.94
1631192874953,6.59
1631192874968,6.37
1631192874984,6.31
1631192875000,6.42
1631192875015,6.65
1631192875031,6.88
1631192875046,6.99
1631192875062,6.91
1631192875078,6.63
1631192875093,6.26
1631192875109,5.91
1631192875125,5.68
1631192875140,5.52
1631192875156,5.33
1631192875171,4.98
1631192875187,4.43
1631192875203,3.79
1631192875218,3.18
1631192875234,2.76
1631192875250,2.52
1631192875265,2.36
1631192875281,2.08
1631192875296,1.59
1631192875312,0.87
1631192875328,0.07
1631192875343,-0.65
1631192875359,-1.19
1631192875375,-1.54
1631192875390,-1.78
1631192875406,-1.99
1631192875421,-2.25
1631192875437,-2.58
1631192875453,-2.97
1631192875468,-3.4
1631192875484,-3.85
1631192875500,-4.31
1631192875515,-4.77
1631192875531,-5.23
1631192875546,-5.69
1631192875562,-6.2
1631192875578,-6.77
1631192875593,-7.42
1631192875609,-8.17
1631192875625,-9.01
1631192875640,-9.96
1631192875656,-10.96
1631192875671,-11.92
1631192875687,-12.67
1631192875703,-12.99
1631192875718,-12.72
1631192875734,-11.83
1631192875750,-10.46
1631192875765,-8.84
1631192875781,-7.13
1631192875796,-5.38
1631192875812,-3.5
1631192875828,-1.34
1631192875843,1.13
1631192875859,3.76
1631192875875,6.25
1631192875890,8.26
1631192875906,9.57
1631192875921,10.19
1631192875937,10.28
1631192875953,10.05
1631192875968,9.68
1631192875984,9.3
1631192876000,8.97
1631192876015,8.73
1631192876031,8.62
1631192876046,8.63
1631192876062,8.68
1631192876078,8.64
1631192876093,8.41
1631192876109,7.96
1631192876125,7.35
1631192876140,6.74
1631192876156,6.3
1631192876171,6.11
1631192876187,6.2
1631192876203,6.46
1631192876218,6.77
1631192876234,6.97
1631192876250,6.96
1631192876265,6.64
1631192876281,6.02
1631192876296,5.14
1631192876312,4.15
1631192876328,3.2
1631192876343,2.37
1631192876359,1.61
1631192876375,0.74
1631192876390,-0.5
1631192876406,-2.27
1631192876421,-4.49
1631192876437,-6.8
1631192876453,-8.58
1631192876468,-9.22
1631192876484,-8.31
1631192876500,-5.87
1631192876515,-2.46
1631192876531,0.88
1631192876546,2.85
1631192876562,2.19
1631192876578,-1.81
1631192876593,-8.97
1631192876609,-18.12
1631192876625,-27.31
1631192876640,-34.46
1631192876656,-38.01
1631192876671,-37.38
1631192876687,-33.01
1631192876703,-26.0
1631192876718,-17.69
1631192876734,-9.22
1631192876750,-1.45
1631192876765,4.92
1631192876781,9.32
1631192876796,11.26
1631192876812,10.47
1631192876828,7.0
1631192876843,1.38
1631192876859,-5.39
1631192876875,-11.95
1631192876890,-16.85
1631192876906,-18.91
1631192876921,-17.53
1631192876937,-12.96
1631192876953,-6.19
1631192876968,1.35
1631192876984,8.29
1631192877000,13.78
1631192877015,17.69
1631192877031,20.44
1631192877046,22.71
1631192877062,25.01
1631192877078,27.54
1631192877093,30.18
1631192877109,32.66
1631192877125,34.73
1631192877140,36.3
1631192877156,37.42
1631192877171,38.25
1631192877187,38.81
1631192877203,38.91
1631192877218,38.06
1631192877234,35.71
1631192877250,31.49
1631192877265,25.54
1631192877281,18.5
1631192877296,11.33
1631192877312,4.89
1631192877328,-0.44
1631192877343,-4.82
1631192877359,-8.79
1631192877375,-12.89
1631192877390,-17.35
1631192877406,-21.96
1631192877421,-26.26
1631192877437,-29.81
1631192877453,-32.41
1631192877468,-34.04
1631192877484,-34.75
1631192877500,-34.48
1631192877515,-33.06
1631192877531,-30.43
1631192877546,-26.85
1631192877562,-22.91
1631192877578,-19.47
1631192877593,-17.27
1631192877609,-16.62
1631192877625,-17.31
1631192877640,-18.7
1631192877656,-19.99
1631192877671,-20.58
1631192877687,-20.19
1631192877703,-18.83
1631192877718,-16.69
1631192877734,-13.9
1631192877750,-10.54
1631192877765,-6.74
1631192877781,-2.79
1631192877796,0.78
1631192877812,3.4
1631192877828,4.69
1631192877843,4.7
1631192877859,4.07
1631192877875,3.64
1631192877890,4.18
1631192877906,5.9
1631192877921,8.49
1631192877937,11.22
1631192877953,13.44
1631192877968,14.82
1631192877984,15.44
1631192878000,15.53
1631192878015,15.23
1631192878031,14.39
1631192878046,12.64
1631192878062,9.71
1631192878078,5.64
1631192878093,0.96
1631192878109,-3.5
1631192878125,-6.91
1631192878140,-8.76
1631192878156,-9.04
1631192878171,-8.21
1631192878187,-6.93
1631192878203,-5.77
1631192878218,-4.97
1631192878234,-4.5
1631192878250,-4.16
1631192878265,-3.8
1631192878281,-3.39
1631192878296,-2.95
1631192878312,-2.48
1631192878328,-1.88
1631192878343,-1.01
1631192878359,0.22
1631192878375,1.75
1631192878390,3.37
1631192878406,4.89
1631192878421,6.22
1631192878437,7.41
1631192878453,8.62
1631192878468,9.96
1631192878484,11.4
1631192878500,12.72
1631192878515,13.69
1631192878531,14.13
1631192878546,14.02
1631192878562,13.44
1631192878578,12.54
1631192878593,11.45
1631192878609,10.26
1631192878625,9.02
1631192878640,7.82
1631192878656,6.81
1631192878671,6.21
1631192878687,6.21
1631192878703,6.88
1631192878718,8.02
1631192878734,9.2
1631192878750,9.89
1631192878765,9.68
1631192878781,8.5
1631192878796,6.72
1631192878812,4.97
1631192878828,3.9
1631192878843,3.82
1631192878859,4.57
1631192878875,5.56
1631192878890,6.07
1631192878906,5.55
1631192878921,3.9
1631192878937,1.4
1631192878953,-1.45
1631192878968,-4.2
1631192878984,-6.66
1631192879000,-8.93
1631192879015,-11.2
1631192879031,-13.55
1631192879046,-15.84
1631192879062,-17.82
1631192879078,-19.2
1631192879093,-19.9
1631192879109,-20.06
1631192879125,-19.95
1631192879140,-19.76
1631192879156,-19.46
1631192879171,-18.82
1631192879187,-17.53
1631192879203,-15.43
1631192879218,-12.64
1631192879234,-9.55
1631192879250,-6.65
1631192879265,-4.31
1631192879281,-2.69
1631192879296,-1.78
1631192879312,-1.45
1631192879328,-1.62
1631192879343,-2.27
1631192879359,-3.39
1631192879375,-4.88
1631192879390,-6.46
1631192879406,-7.78
1631192879421,-8.5
1631192879437,-8.43
1631192879453,-7.57
1631192879468,-6.08
1631192879484,-4.16
1631192879500,-1.99
1631192879515,0.36
1631192879531,2.9
1631192879546,5.73
1631192879562,9.01
1631192879578,12.94
1631192879593,17.7
1631192879609,23.36
1631192879625,29.81
1631192879640,36.67
1631192879656,43.34
1631192879671,49.09
1631192879687,53.19
1631192879703,54.97
1631192879718,54.02
1631192879734,50.31
1631192879750,44.35
1631192879765,37.11
1631192879781,29.71
1631192879796,22.95
1631192879812,17.01
1631192879828,11.48
1631192879843,5.77
1631192879859,-0.33
1631192879875,-6.36
1631192879890,-11.24
1631192879906,-13.9
1631192879921,-13.83
1631192879937,-11.36
1631192879953,-7.43
1631192879968,-3.1
1631192879984,0.98
1631192880000,4.62
1631192880015,7.88
1631192880031,10.71
1631192880046,12.76
1631192880062,13.56
1631192880078,12.71
1631192880093,10.18
1631192880109,6.34
1631192880125,1.82
1631192880140,-2.69
1631192880156,-6.64
1631192880171,-9.68
1631192880187,-11.73
1631192880203,-12.95
1631192880218,-13.66
1631192880234,-14.3
1631192880250,-15.29
1631192880265,-16.98
1631192880281,-19.51
1631192880296,-22.86
1631192880312,-26.84
1631192880328,-31.11
1631192880343,-35.26
1631192880359,-38.8
1631192880375,-41.26
1631192880390,-42.29
1631192880406,-41.72
1631192880421,-39.59
1631192880437,-36.17
1631192880453,-31.83
1631192880468,-26.96
1631192880484,-21.94
1631192880500,-17.09
1631192880515,-12.68
1631192880531,-8.93
1631192880546,-5.93
1631192880562,-3.66
1631192880578,-1.97
1631192880593,-0.66
1631192880609,0.45
1631192880625,1.41
1631192880640,2.18
1631192880656,2.66
1631192880671,2.81
1631192880687,2.71
1631192880703,2.52
1631192880718,2.48
1631192880734,2.72
1631192880750,3.25
1631192880765,3.92
1631192880781,4.51
1631192880796,4.77
1631192880812,4.56
1631192880828,3.88
1631192880843,2.87
1631192880859,1.76
1631192880875,0.8
1631192880890,0.15
1631192880906,-0.19
1631192880921,-0.37
1631192880937,-0.6
1631192880953,-1.08
1631192880968,-1.89
1631192880984,-2.98
1631192881000,-4.23
1631192881015,-5.49
1631192881031,-6.7
1631192881046,-7.9
1631192881062,-9.14
1631192881078,-10.48
1631192881093,-11.89
1631192881109,-13.27
1631192881125,-14.56
1631192881140,-15.79
1631192881156,-17.14
1631192881171,-18.76
1631192881187,-20.65
1631192881203,-22.56
1631192881218,-24.11
1631192881234,-24.97
1631192881250,-25.12
1631192881265,-24.88
1631192881281,-24.64
1631192881296,-24.52
1631192881312,-24.11
1631192881328,-22.51
1631192881343,-18.8
1631192881359,-12.52
1631192881375,-3.96
1631192881390,5.89
1631192881406,15.76
1631192881421,24.57
1631192881437,31.81
1631192881453,37.45
1631192881468,41.79
1631192881484,45.17
1631192881500,47.73
1631192881515,49.41
1631192881531,50.07
1631192881546,49.62
1631192881562,48.2
1631192881578,46.18
1631192881593,44.11
1631192881609,42.51
1631192881625,41.57
1631192881640,41.05
1631192881656,40.4
1631192881671,39.21
1631192881687,37.47
1631192881703,35.66
1631192881718,34.44
1631192881734,34.19
1631192881750,34.72
1631192881765,35.3
1631192881781,35.11
1631192881796,33.7
1631192881812,31.14
1631192881828,27.93
1631192881843,24.53
1631192881859,21.09
1631192881875,17.44
1631192881890,13.34
1631192881906,8.77
1631192881921,4.04
1631192881937,-0.38
1631192881953,-4.22
1631192881968,-7.56
1631192881984,-10.76
1631192882000,-14.22
1631192882015,-18.04
1631192882031,-21.91
1631192882046,-25.14
1631192882062,-26.96
1631192882078,-26.79
1631192882093,-24.53
1631192882109,-20.6
1631192882125,-15.89
1631192882140,-11.56
1631192882156,-8.74
1631192882171,-8.18
1631192882187,-9.98
1631192882203,-13.45
1631192882218,-17.31
1631192882234,-20.21
1631192882250,-21.3
1631192882265,-20.65
1631192882281,-19.24
1631192882296,-18.53
1631192882312,-19.73
1631192882328,-23.21
1631192882343,-28.3
1631192882359,-33.56
1631192882375,-37.34
1631192882390,-38.39
1631192882406,-36.21
1631192882421,-31.13
1631192882437,-24.07
1631192882453,-16.2
1631192882468,-8.61
1631192882484,-2.11
1631192882500,2.9
1631192882515,6.37
1631192882531,8.49
1631192882546,9.61
1631192882562,10.06
1631192882578,10.13
1631192882593,10.04
1631192882609,9.91
1631192882625,9.75
1631192882640,9.46
1631192882656,8.87
1631192882671,7.84
1631192882687,6.38
1631192882703,4.59
1631192882718,2.71
1631192882734,0.91
1631192882750,-0.68
1631192882765,-2.05
1631192882781,-3.24
1631192882796,-4.31
1631192882812,-5.3
1631192882828,-6.19
1631192882843,-6.94
1631192882859,-7.46
1631192882875,-7.6
1631192882890,-7.2
1631192882906,-6.12
1631192882921,-4.39
1631192882937,-2.17
1631192882953,0.22
1631192882968,2.55
1631192882984,4.69
1631192883000,6.73
1631192883015,8.81
1631192883031,10.87
1631192883046,12.58
1631192883062,13.4
1631192883078,12.87
1631192883093,10.85
1631192883109,7.72
1631192883125,4.24
1631192883140,1.3
1631192883156,-0.38
1631192883171,-0.52
1631192883187,0.71
1631192883203,2.8
1631192883218,5.03
1631192883234,6.63
1631192883250,6.93
1631192883265,5.45
1631192883281,2.02
1631192883296,-3.09
1631192883312,-9.14
1631192883328,-14.95
1631192883343,-19.22
1631192883359,-20.9
1631192883375,-19.61
1631192883390,-15.89
1631192883406,-10.98
1631192883421,-6.47
1631192883437,-3.65
1631192883453,-3.08
1631192883468,-4.43
1631192883484,-6.79
1631192883500,-9.08
1631192883515,-10.43
1631192883531,-10.4
1631192883546,-8.96
1631192883562,-6.44
1631192883578,-3.41
1631192883593,-0.62
1631192883609,1.18
1631192883625,1.49
1631192883640,0.33
1631192883656,-1.68
1631192883671,-3.52
1631192883687,-4.24
1631192883703,-3.34
1631192883718,-1.06
1631192883734,1.8
1631192883750,4.26
1631192883765,5.64
1631192883781,5.81
1631192883796,5.17
1631192883812,4.4
1631192883828,4.06
1631192883843,4.43
1631192883859,5.4
1631192883875,6.65
1631192883890,7.83
1631192883906,8.74
1631192883921,9.38
1631192883937,9.89
1631192883953,10.43
1631192883968,11.11
1631192883984,11.91
1631192884000,12.76
1631192884015,13.55
1631192884031,14.22
1631192884046,14.73
1631192884062,14.99
1631192884078,14.88
1631192884093,14.23
1631192884109,12.88
1631192884125,10.75
1631192884140,7.93
1631192884156,4.63
1631192884171,1.18
1631192884187,-2.06
1631192884203,-4.75
1631192884218,-6.69
1631192884234,-7.82
1631192884250,-8.24
1631192884265,-8.18
1631192884281,-7.88
1631192884296,-7.52
1631192884312,-7.13
1631192884328,-6.64
1631192884343,-5.95
1631192884359,-5.1
1631192884375,-4.24
1631192884390,-3.6
1631192884406,-3.34
1631192884421,-3.39
1631192884437,-3.51
1631192884453,-3.42
1631192884468,-2.95
1631192884484,-2.16
1631192884500,-1.31
1631192884515,-0.7
1631192884531,-0.49
1631192884546,-0.69
1631192884562,-1.18
1631192884578,-1.86
1631192884593,-2.66
1631192884609,-3.58
1631192884625,-4.61
1631192884640,-5.68
1631192884656,-6.66
1631192884671,-7.43
1631192884687,-7.97
1631192884703,-8.37
1631192884718,-8.77
1631192884734,-9.27
1631192884750,-9.88
1631192884765,-10.47
1631192884781,-10.85
1631192884796,-10.83
1631192884812,-10.23
1631192884828,-9.0
1631192884843,-7.19
1631192884859,-4.98
1631192884875,-2.61
1631192884890,-0.35
1631192884906,1.65
1631192884921,3.39
1631192884937,4.98
1631192884953,6.57
1631192884968,8.21
1631192884984,9.76
1631192885000,10.94
1631192885015,11.46
1631192885031,11.18
1631192885046,10.21
1631192885062,8.89
1631192885078,7.62
1631192885093,6.73
1631192885109,6.31
1631192885125,6.3
1631192885140,6.53
1631192885156,6.9
1631192885171,7.37
1631192885187,7.96
1631192885203,8.65
1631192885218,9.3
1631192885234,9.71
1631192885250,9.71
1631192885265,9.26
1631192885281,8.45
1631192885296,7.51
1631192885312,6.6
1631192885328,5.82
1631192885343,5.1
1631192885359,4.33
1631192885375,3.41
1631192885390,2.34
1631192885406,1.21
1631192885421,0.12
1631192885437,-0.85
1631192885453,-1.68
1631192885468,-2.43
1631192885484,-3.18
1631192885500,-3.98
1631192885515,-4.87
1631192885531,-5.82
1631192885546,-6.78
1631192885562,-7.67
1631192885578,-8.41
1631192885593,-8.94
1631192885609,-9.31
1631192885625,-9.61
1631192885640,-9.96
1631192885656,-10.43
1631192885671,-10.94
1631192885687,-11.26
1631192885703,-11.1
1631192885718,-10.26
1631192885734,-8.67
1631192885750,-6.5
1631192885765,-4.01
1631192885781,-1.44
1631192885796,1.04
1631192885812,3.36
1631192885828,5.47
1631192885843,7.28
1631192885859,8.63
1631192885875,9.37
1631192885890,9.43
1631192885906,8.92
1631192885921,8.08
1631192885937,7.2
1631192885953,6.53
1631192885968,6.17
1631192885984,6.11
1631192886000,6.25
1631192886015,6.5
1631192886031,6.75
1631192886046,6.88
1631192886062,6.82
1631192886078,6.48
1631192886093,5.89
1631192886109,5.15
1631192886125,4.44
1631192886140,3.92
1631192886156,3.7
1631192886171,3.71
1631192886187,3.84
1631192886203,3.91
1631192886218,3.82
1631192886234,3.54
1631192886250,3.16
1631192886265,2.78
1631192886281,2.46
1631192886296,2.22
1631192886312,1.99
1631192886328,1.66
1631192886343,1.12
1631192886359,0.31
1631192886375,-0.78
1631192886390,-2.01
1631192886406,-3.21
1631192886421,-4.2
1631192886437,-4.91
1631192886453,-5.36
1631192886468,-5.7
1631192886484,-6.03
1631192886500,-6.44
1631192886515,-6.92
1631192886531,-7.41
1631192886546,-7.89
1631192886562,-8.38
1631192886578,-8.92
1631192886593,-9.51
1631192886609,-10.14
1631192886625,-10.74
1631192886640,-11.24
1631192886656,-11.62
1631192886671,-11.9
1631192886687,-12.13
1631192886703,-12.29
1631192886718,-12.3
1631192886734,-12.02
1631192886750,-11.35
1631192886765,-10.22
1631192886781,-8.67
1631192886796,-6.78
1631192886812,-4.68
1631192886828,-2.43
1631192886843,-0.05
1631192886859,2.41
1631192886875,4.88
1631192886890,7.18
1631192886906,9.08
1631192886921,10.34
1631192886937,10.85
1631192886953,10.64
1631192886968,9.92
1631192886984,8.95
1631192887000,8.0
1631192887015,7.22
1631192887031,6.68
1631192887046,6.37
1631192887062,6.28
1631192887078,6.35
1631192887093,6.53
1631192887109,6.74
1631192887125,6.9
1631192887140,6.92
1631192887156,6.77
1631192887171,6.46
1631192887187,6.02
1631192887203,5.44
1631192887218,4.74
1631192887234,3.97
1631192887250,3.18
1631192887265,2.51
1631192887281,2.05
1631192887296,1.84
1631192887312,1.84
1631192887328,1.94
1631192887343,2.01
1631192887359,1.96
1631192887375,1.73
1631192887390,1.37
1631192887406,0.94
1631192887421,0.55
1631192887437,0.27
1631192887453,0.1
1631192887468,-0.05
1631192887484,-0.32
1631192887500,-0.85
1631192887515,-1.67
1631192887531,-2.66
1631192887546,-3.61
1631192887562,-4.31
1631192887578,-4.62
1631192887593,-4.61
1631192887609,-4.48
1631192887625,-4.46
1631192887640,-4.74
1631192887656,-5.34
1631192887671,-6.15
1631192887687,-6.98
1631192887703,-7.68
1631192887718,-8.22
1631192887734,-8.64
1631192887750,-9.06
1631192887765,-9.53
1631192887781,-10.08
1631192887796,-10.64
1631192887812,-11.17
1631192887828,-11.63
1631192887843,-11.98
1631192887859,-12.17
1631192887875,-12.1
1631192887890,-11.67
1631192887906,-10.77
1631192887921,-9.41
1631192887937,-7.66
1631192887953,-5.67
1631192887968,-3.55
1631192887984,-1.35
1631192888000,0.9
1631192888015,3.12
1631192888031,5.14
1631192888046,6.7
1631192888062,7.6
1631192888078,7.83
1631192888093,7.58
1631192888109,7.2
1631192888125,6.99
1631192888140,7.11
1631192888156,7.47
1631192888171,7.85
1631192888187,8.05
1631192888203,8.03
1631192888218,7.88
1631192888234,7.73
1631192888250,7.65
1631192888265,7.55
1631192888281,7.31
1631192888296,6.8
1631192888312,6.03
1631192888328,5.1
1631192888343,4.17
1631192888359,3.35
1631192888375,2.72
1631192888390,2.29
1631192888406,2.04
1631192888421,1.9
1631192888437,1.8
1631192888453,1.63
1631192888468,1.33
1631192888484,0.95
1631192888500,0.59
1631192888515,0.38
1631192888531,0.39
1631192888546,0.61
1631192888562,0.91
1631192888578,1.17
1631192888593,1.32
1631192888609,1.3
1631192888625,1.13
1631192888640,0.77
1631192888656,0.25
1631192888671,-0.43
1631192888687,-1.16
1631192888703,-1.81
1631192888718,-2.27
1631192888734,-2.53
1631192888750,-2.69
1631192888765,-2.9
1631192888781,-3.28
1631192888796,-3.84
1631192888812,-4.49
1631192888828,-5.08
1631192888843,-5.54
1631192888859,-5.87
1631192888875,-6.21
1631192888890,-6.67
1631192888906,-7.35
1631192888921,-8.23
1631192888937,-9.21
1631192888953,-10.17
1631192888968,-10.98
1631192888984,-11.58
1631192889000,-11.93
1631192889015,-11.97
1631192889031,-11.66
1631192889046,-10.94
1631192889062,-9.78
1631192889078,-8.22
1631192889093,-6.4
1631192889109,-4.46
1631192889125,-2.54
1631192889140,-0.69
1631192889156,1.07
1631192889171,2.74
1631192889187,4.29
1631192889203,5.62
1631192889218,6.64
1631192889234,7.29
1631192889250,7.5
1631192889265,7.32
1631192889281,6.79
1631192889296,6.03
1631192889312,5.18
1631192889328,4.4
1631192889343,3.85
1631192889359,3.62
1631192889375,3.7
1631192889390,4.0
1631192889406,4.36
1631192889421,4.63
1631192889437,4.72
1631192889453,4.62
1631192889468,4.37
1631192889484,4.02
1631192889500,3.64
1631192889515,3.27
1631192889531,3.0
1631192889546,2.85
1631192889562,2.83
1631192889578,2.89
1631192889593,2.94
1631192889609,2.87
1631192889625,2.58
1631192889640,2.08
1631192889656,1.42
1631192889671,0.68
1631192889687,-0.03
1631192889703,-0.64
1631192889718,-1.12
1631192889734,-1.45
1631192889750,-1.65
1631192889765,-1.77
1631192889781,-1.88
1631192889796,-2.07
1631192889812,-2.39
1631192889828,-2.85
1631192889843,-3.41
1631192889859,-3.96
1631192889875,-4.4
1631192889890,-4.67
1631192889906,-4.77
1631192889921,-4.78
1631192889937,-4.78
1631192889953,-4.84
1631192889968,-5.0
1631192889984,-5.26
1631192890000,-5.64
1631192890015,-6.14
1631192890031,-6.77
1631192890046,-7.53
1631192890062,-8.38
1631192890078,-9.23
1631192890093,-9.95
1631192890109,-10.36
1631192890125,-10.35
1631192890140,-9.85
1631192890156,-8.89
1631192890171,-7.62
1631192890187,-6.21
1631192890203,-4.79
1631192890218,-3.38
1631192890234,-1.89
1631192890250,-0.24
1631192890265,1.58
1631192890281,3.43
1631192890296,5.07
1631192890312,6.28
1631192890328,6.94
1631192890343,7.12
1631192890359,6.98
1631192890375,6.68
1631192890390,6.34
1631192890406,5.95
1631192890421,5.5
1631192890437,4.96
1631192890453,4.37
1631192890468,3.87
1631192890484,3.6
1631192890500,3.7
1631192890515,4.2
1631192890531,5.02
1631192890546,5.96
1631192890562,6.8
1631192890578,7.34
1631192890593,7.5
1631192890609,7.32
1631192890625,6.92
1631192890640,6.43
1631192890656,5.93
1631192890671,5.42
1631192890687,4.86
1631192890703,4.24
1631192890718,3.58
1631192890734,2.97
1631192890750,2.49
1631192890765,2.16
1631192890781,1.92
1631192890796,1.69
1631192890812,1.4
1631192890828,1.04
1631192890843,0.68
1631192890859,0.36
1631192890875,0.16
1631192890890,0.03
1631192890906,-0.09
1631192890921,-0.29
1631192890937,-0.64
1631192890953,-1.15
1631192890968,-1.76
1631192890984,-2.41
1631192891000,-3.02
1631192891015,-3.55
1631192891031,-4.0
1631192891046,-4.42
1631192891062,-4.91
1631192891078,-5.54
1631192891093,-6.36
1631192891109,-7.37
1631192891125,-8.5
1631192891140,-9.58
1631192891156,-10.4
1631192891171,-10.72
1631192891187,-10.37
1631192891203,-9.27
1631192891218,-7.5
1631192891234,-5.23
1631192891250,-2.65
1631192891265,0.03
1631192891281,2.68
1631192891296,5.16
1631192891312,7.33
1631192891328,9.05
1631192891343,10.2
1631192891359,10.72
1631192891375,10.67
1631192891390,10.17
1631192891406,9.41
1631192891421,8.55
1631192891437,7.72
1631192891453,7.0
1631192891468,6.45
1631192891484,6.08
1631192891500,5.86
1631192891515,5.7
1631192891531,5.55
1631192891546,5.33
1631192891562,5.04
1631192891578,4.69
1631192891593,4.34
1631192891609,4.03
1631192891625,3.8
1631192891640,3.67
1631192891656,3.61
1631192891671,3.53
1631192891687,3.33
1631192891703,2.94
1631192891718,2.36
1631192891734,1.67
1631192891750,1.0
1631192891765,0.43
1631192891781,-0.03
1631192891796,-0.45
1631192891812,-0.9
1631192891828,-1.36
1631192891843,-1.76
1631192891859,-1.98
1631192891875,-1.99
1631192891890,-1.95
1631192891906,-2.07
1631192891921,-2.53
1631192891937,-3.38
1631192891953,-4.47
1631192891968,-5.55
1631192891984,-6.4
1631192892000,-6.95
1631192892015,-7.24
1631192892031,-7.43
1631192892046,-7.65
1631192892062,-8.0
1631192892078,-8.49
1631192892093,-9.12
1631192892109,-9.85
1631192892125,-10.69
1631192892140,-11.6
1631192892156,-12.54
1631192892171,-13.42
1631192892187,-14.05
1631192892203,-14.24
1631192892218,-13.8
1631192892234,-12.61
1631192892250,-10.67
1631192892265,-8.11
1631192892281,-5.18
1631192892296,-2.17
1631192892312,0.71
1631192892328,3.3
1631192892343,5.54
1631192892359,7.41
1631192892375,8.93
1631192892390,10.05
1631192892406,10.72
1631192892421,10.93
1631192892437,10.67
1631192892453,10.07
1631192892468,9.33
1631192892484,8.66
1631192892500,8.25
1631192892515,8.12
1631192892531,8.19
1631192892546,8.27
1631192892562,8.22
1631192892578,7.97
1631192892593,7.57
1631192892609,7.13
1631192892625,6.74
1631192892640,6.42
1631192892656,6.15
1631192892671,5.88
1631192892687,5.55
1631192892703,5.17
1631192892718,4.7
1631192892734,4.18
1631192892750,3.6
1631192892765,2.98
1631192892781,2.35
1631192892796,1.68
1631192892812,0.95
1631192892828,0.08
1631192892843,-0.93
1631192892859,-2.02
1631192892875,-3.02
1631192892890,-3.77
1631192892906,-4.17
1631192892921,-4.27
1631192892937,-4.26
1631192892953,-4.34
1631192892968,-4.66
1631192892984,-5.22
1631192893000,-5.87
1631192893015,-6.45
1631192893031,-6.86
1631192893046,-7.1
1631192893062,-7.31
1631192893078,-7.63
1631192893093,-8.17
1631192893109,-8.95
1631192893125,-9.91
1631192893140,-10.96
1631192893156,-11.99
1631192893171,-12.93
1631192893187,-13.7
1631192893203,-14.2
1631192893218,-14.31
1631192893234,-13.9
1631192893250,-12.86
1631192893265,-11.18
1631192893281,-8.95
1631192893296,-6.3
1631192893312,-3.38
1631192893328,-0.3
1631192893343,2.84
1631192893359,5.89
1631192893375,8.65
1631192893390,10.86
1631192893406,12.32
1631192893421,12.98
1631192893437,12.95
1631192893453,12.5
1631192893468,11.87
1631192893484,11.21
1631192893500,10.49
1631192893515,9.63
1631192893531,8.52
1631192893546,7.12
1631192893562,5.54
1631192893578,3.92
1631192893593,2.49
1631192893609,1.41
1631192893625,0.84
1631192893640,0.84
1631192893656,1.37
1631192893671,2.25
1631192893687,3.18
1631192893703,3.89
1631192893718,4.15
1631192893734,3.92
1631192893750,3.32
1631192893765,2.54
1631192893781,1.81
1631192893796,1.27
1631192893812,0.99
1631192893828,0.98
1631192893843,1.25
1631192893859,1.82
1631192893875,2.63
1631192893890,3.55
1631192893906,4.36
1631192893921,4.84
1631192893937,4.78
1631192893953,4.07
1631192893968,2.78
1631192893984,1.05
1631192894000,-0.88
1631192894015,-2.82
1631192894031,-4.6
1631192894046,-6.14
1631192894062,-7.39
1631192894078,-8.39
1631192894093,-9.15
1631192894109,-9.73
1631192894125,-10.17
1631192894140,-10.57
1631192894156,-11.04
1631192894171,-11.67
1631192894187,-12.48
1631192894203,-13.36
1631192894218,-14.02
1631192894234,-14.12
1631192894250,-13.39
1631192894265,-11.76
1631192894281,-9.36
1631192894296,-6.48
1631192894312,-3.4
1631192894328,-0.31
1631192894343,2.7
1631192894359,5.6
1631192894375,8.29
1631192894390,10.6
1631192894406,12.34
1631192894421,13.35
1631192894437,13.63
1631192894453,13.27
1631192894468,12.46
1631192894484,11.35
1631192894500,10.06
1631192894515,8.59
1631192894531,6.95
1631192894546,5.12
1631192894562,3.11
1631192894578,0.99
1631192894593,-1.13
1631192894609,-3.05
1631192894625,-4.54
1631192894640,-5.33
1631192894656,-5.24
1631192894671,-4.2
1631192894687,-2.35
1631192894703,-0.01
1631192894718,2.41
1631192894734,4.51
1631192894750,6.0
1631192894765,6.78
1631192894781,6.94
1631192894796,6.66
1631192894812,6.16
1631192894828,5.56
1631192894843,4.9
1631192894859,4.18
1631192894875,3.37
1631192894890,2.46
1631192894906,1.47
1631192894921,0.41
1631192894937,-0.71
1631192894953,-1.87
1631192894968,-2.95
1631192894984,-3.84
1631192895000,-4.4
1631192895015,-4.61
1631192895031,-4.57
1631192895046,-4.49
1631192895062,-4.6
1631192895078,-5.06
1631192895093,-5.9
1631192895109,-7.06
1631192895125,-8.38
1631192895140,-9.72
1631192895156,-10.85
1631192895171,-11.56
1631192895187,-11.6
1631192895203,-10.78
1631192895218,-9.07
1631192895234,-6.62
1631192895250,-3.74
1631192895265,-0.78
1631192895281,2.01
1631192895296,4.52
1631192895312,6.74
1631192895328,8.68
1631192895343,10.3
1631192895359,11.49
1631192895375,12.14
1631192895390,12.24
1631192895406,11.86
1631192895421,11.18
1631192895437,10.39
1631192895453,9.62
1631192895468,8.94
1631192895484,8.36
1631192895500,7.85
1631192895515,7.4
1631192895531,7.06
1631192895546,6.83
1631192895562,6.71
1631192895578,6.67
1631192895593,6.62
1631192895609,6.48
1631192895625,6.2
1631192895640,5.78
1631192895656,5.28
1631192895671,4.79
1631192895687,4.36
1631192895703,4.02
1631192895718,3.76
1631192895734,3.51
1631192895750,3.17
1631192895765,2.63
1631192895781,1.83
1631192895796,0.77
1631192895812,-0.45
1631192895828,-1.68
1631192895843,-2.74
1631192895859,-3.51
1631192895875,-3.99
1631192895890,-4.29
1631192895906,-4.58
1631192895921,-5.03
1631192895937,-5.71
1631192895953,-6.59
1631192895968,-7.55
1631192895984,-8.45
1631192896000,-9.15
1631192896015,-9.56
1631192896031,-9.64
1631192896046,-9.42
1631192896062,-9.04
1631192896078,-8.68
1631192896093,-8.55
1631192896109,-8.79
1631192896125,-9.43
1631192896140,-10.37
1631192896156,-11.41
1631192896171,-12.32
1631192896187,-12.85
1631192896203,-12.79
1631192896218,-12.0
1631192896234,-10.44
1631192896250,-8.22
1631192896265,-5.52
1631192896281,-2.63
1631192896296,0.21
1631192896312,2.82
1631192896328,5.12
1631192896343,7.08
1631192896359,8.66
1631192896375,9.8
1631192896390,10.39
1631192896406,10.4
1631192896421,9.88
1631192896437,9.0
1631192896453,8.04
1631192896468,7.23
1631192896484,6.78
1631192896500,6.74
1631192896515,7.04
1631192896531,7.41
1631192896546,7.58
1631192896562,7.33
1631192896578,6.73
1631192896593,6.15
1631192896609,6.12
1631192896625,7.13
1631192896640,9.29
1631192896656,12.22
1631192896671,15.19
1631192896687,17.41
1631192896703,18.34
1631192896718,17.95
1631192896734,16.62
1631192896750,14.82
1631192896765,12.96
1631192896781,11.15
1631192896796,9.33
1631192896812,7.43
1631192896828,5.55
1631192896843,3.99
1631192896859,3.18
1631192896875,3.45
1631192896890,4.92
1631192896906,7.38
1631192896921,10.35
1631192896937,13.16
1631192896953,15.19
1631192896968,15.97
1631192896984,15.44
1631192897000,13.94
1631192897015,12.15
1631192897031,10.81
1631192897046,10.46
1631192897062,11.13
1631192897078,12.38
1631192897093,13.53
1631192897109,13.97
1631192897125,13.42
1631192897140,11.92
1631192897156,9.71
1631192897171,7.12
1631192897187,4.69
1631192897203,3.39
1631192897218,4.56
1631192897234,9.38
1631192897250,17.96
1631192897265,28.72
1631192897281,38.41
1631192897296,43.21
1631192897312,40.29
1631192897328,29.12
1631192897343,11.66
1631192897359,-8.64
1631192897375,-28.45
1631192897390,-45.79
1631192897406,-60.26
1631192897421,-72.17
1631192897437,-81.53
1631192897453,-87.51
1631192897468,-88.94
1631192897484,-85.33
1631192897500,-77.75
1631192897515,-68.7
1631192897531,-61.11
1631192897546,-56.93
1631192897562,-56.11
1631192897578,-56.59
1631192897593,-55.32
1631192897609,-49.83
1631192897625,-39.45
1631192897640,-25.74
1631192897656,-11.78
1631192897671,-0.89
1631192897687,4.79
1631192897703,5.08
1631192897718,1.75
1631192897734,-2.38
1631192897750,-4.73
1631192897765,-4.04
1631192897781,-0.72
1631192897796,3.59
1631192897812,6.99
1631192897828,8.28
1631192897843,7.39
1631192897859,5.09
1631192897875,2.46
1631192897890,0.32
1631192897906,-0.86
1631192897921,-0.91
1631192897937,0.34
1631192897953,2.95
1631192897968,6.72
1631192897984,11.03
1631192898000,14.87
1631192898015,17.15
1631192898031,17.13
1631192898046,14.64
1631192898062,9.92
1631192898078,3.43
1631192898093,-4.43
1631192898109,-13.34
1631192898125,-23.06
1631192898140,-33.24
1631192898156,-43.36
1631192898171,-52.78
1631192898187,-60.74
1631192898203,-66.38
1631192898218,-68.75
1631192898234,-67.11
1631192898250,-61.14
1631192898265,-51.16
1631192898281,-37.98
1631192898296,-22.64
1631192898312,-6.02
1631192898328,11.13
1631192898343,27.82
1631192898359,42.41
1631192898375,52.64
1631192898390,56.54
1631192898406,53.64
1631192898421,45.75
1631192898437,36.58
1631192898453,30.23
1631192898468,29.23
1631192898484,33.5
1631192898500,40.64
1631192898515,47.5
1631192898531,51.96
1631192898546,53.79
1631192898562,54.23
1631192898578,54.67
1631192898593,55.55
1631192898609,56.06
1631192898625,54.84
1631192898640,50.95
1631192898656,44.53
1631192898671,36.62
1631192898687,28.49
1631192898703,21.02
1631192898718,14.43
1631192898734,8.52
1631192898750,2.96
1631192898765,-2.35
1631192898781,-7.18
1631192898796,-11.16
1631192898812,-13.93
1631192898828,-15.37
1631192898843,-15.58
1631192898859,-14.88
1631192898875,-13.74
1631192898890,-12.66
1631192898906,-11.98
1631192898921,-11.88
1631192898937,-12.19
1631192898953,-12.53
1631192898968,-12.37
1631192898984,-11.33
1631192899000,-9.31
1631192899015,-6.59
1631192899031,-3.77
1631192899046,-1.48
1631192899062,-0.12
1631192899078,0.31
1631192899093,0.24
1631192899109,0.3
1631192899125,1.0
1631192899140,2.47
1631192899156,4.37
1631192899171,6.08
1631192899187,7.04
1631192899203,6.99
1631192899218,6.03
1631192899234,4.53
1631192899250,2.8
1631192899265,1.06
1631192899281,-0.68
1631192899296,-2.44
1631192899312,-4.21
1631192899328,-5.88
1631192899343,-7.36
1631192899359,-8.57
1631192899375,-9.48
1631192899390,-10.0
1631192899406,-9.96
1631192899421,-9.1
1631192899437,-7.25
1631192899453,-4.46
1631192899468,-1.01
1631192899484,2.66
1631192899500,6.08
1631192899515,8.92
1631192899531,11.02
1631192899546,12.34
1631192899562,12.91
1631192899578,12.81
1631192899593,12.19
1631192899609,11.31
1631192899625,10.48
1631192899640,9.97
1631192899656,9.92
1631192899671,10.26
1631192899687,10.77
1631192899703,11.16
1631192899718,11.21
1631192899734,10.87
1631192899750,10.27
1631192899765,9.68
1631192899781,9.32
1631192899796,9.35
1631192899812,9.69
1631192899828,10.11
1631192899843,10.3
1631192899859,9.99
1631192899875,9.04
1631192899890,7.5
1631192899906,5.57
1631192899921,3.58
1631192899937,1.86
1631192899953,0.68
1631192899968,0.14
1631192899984,0.18
1631192900000,0.58
1631192900015,0.99
1631192900031,1.13
1631192900046,0.85
1631192900062,0.22
1631192900078,-0.57
1631192900093,-1.31
1631192900109,-1.87
1631192900125,-2.25
1631192900140,-2.51
1631192900156,-2.73
1631192900171,-3.0
1631192900187,-3.35
1631192900203,-3.85
1631192900218,-4.53
1631192900234,-5.38
1631192900250,-6.28
1631192900265,-7.0
1631192900281,-7.31
1631192900296,-7.13
1631192900312,-6.65
1631192900328,-6.28
1631192900343,-6.47
1631192900359,-7.44
1631192900375,-9.12
1631192900390,-11.17
1631192900406,-13.21
1631192900421,-14.96
1631192900437,-16.34
1631192900453,-17.35
1631192900468,-17.94
1631192900484,-17.94
1631192900500,-17.11
1631192900515,-15.33
1631192900531,-12.7
1631192900546,-9.62
1631192900562,-6.52
1631192900578,-3.73
1631192900593,-1.32
1631192900609,0.84
1631192900625,2.89
1631192900640,4.83
1631192900656,6.55
1631192900671,7.89
1631192900687,8.79
1631192900703,9.3
1631192900718,9.57
1631192900734,9.67
1631192900750,9.6
1631192900765,9.26
1631192900781,8.61
1631192900796,7.75
1631192900812,6.93
1631192900828,6.4
1631192900843,6.27
1631192900859,6.47
1631192900875,6.79
1631192900890,6.97
1631192900906,6.87
1631192900921,6.49
1631192900937,5.98
1631192900953,5.49
1631192900968,5.17
1631192900984,5.07
1631192901000,5.2
1631192901015,5.48
1631192901031,5.82
1631192901046,6.07
1631192901062,6.08
1631192901078,5.74
1631192901093,5.01
1631192901109,3.93
1631192901125,2.64
1631192901140,1.35
1631192901156,0.28
1631192901171,-0.4
1631192901187,-0.64
1631192901203,-0.55
1631192901218,-0.33
1631192901234,-0.24
1631192901250,-0.42
1631192901265,-0.89
1631192901281,-1.54
1631192901296,-2.2
1631192901312,-2.8
1631192901328,-3.37
1631192901343,-4.07
1631192901359,-4.99
1631192901375,-6.12
1631192901390,-7.3
1631192901406,-8.28
1631192901421,-8.91
1631192901437,-9.2
1631192901453,-9.28
1631192901468,-9.31
1631192901484,-9.39
1631192901500,-9.52
1631192901515,-9.71
1631192901531,-9.98
1631192901546,-10.4
1631192901562,-10.95
1631192901578,-11.51
1631192901593,-11.77
1631192901609,-11.41
1631192901625,-10.21
1631192901640,-8.2
1631192901656,-5.61
1631192901671,-2.84
1631192901687,-0.23
1631192901703,1.97
1631192901718,3.66
1631192901734,4.81
1631192901750,5.51
1631192901765,5.84
1631192901781,5.97
1631192901796,6.09
1631192901812,6.35
1631192901828,6.84
1631192901843,7.49
1631192901859,8.14
1631192901875,8.58
1631192901890,8.63
1631192901906,8.26
1631192901921,7.56
1631192901937,6.77
1631192901953,6.14
1631192901968,5.84
1631192901984,5.82
1631192902000,5.92
1631192902015,5.9
1631192902031,5.63
1631192902046,5.16
1631192902062,4.63
1631192902078,4.2
1631192902093,3.93
1631192902109,3.74
1631192902125,3.48
1631192902140,3.07
1631192902156,2.51
1631192902171,1.93
1631192902187,1.44
1631192902203,1.08
1631192902218,0.82
1631192902234,0.55
1631192902250,0.22
1631192902265,-0.15
1631192902281,-0.5
1631192902296,-0.75
1631192902312,-0.85
1631192902328,-0.8
1631192902343,-0.64
1631192902359,-0.44
1631192902375,-0.29
1631192902390,-0.35
1631192902406,-0.77
1631192902421,-1.61
1631192902437,-2.83
1631192902453,-4.22
1631192902468,-5.52
1631192902484,-6.51
1631192902500,-7.12
1631192902515,-7.43
1631192902531,-7.61
1631192902546,-7.85
1631192902562,-8.23
1631192902578,-8.77
1631192902593,-9.44
1631192902609,-10.23
1631192902625,-11.06
1631192902640,-11.81
1631192902656,-12.25
1631192902671,-12.16
1631192902687,-11.36
1631192902703,-9.82
1631192902718,-7.66
1631192902734,-5.11
1631192902750,-2.4
1631192902765,0.27
1631192902781,2.68
1631192902796,4.61
1631192902812,5.87
1631192902828,6.39
1631192902843,6.27
1631192902859,5.79
1631192902875,5.3
1631192902890,5.1
1631192902906,5.28
1631192902921,5.74
1631192902937,6.26
1631192902953,6.64
1631192902968,6.76
1631192902984,6.64
1631192903000,6.39
1631192903015,6.14
1631192903031,5.99
1631192903046,6.0
1631192903062,6.17
1631192903078,6.43
1631192903093,6.68
1631192903109,6.82
1631192903125,6.76
1631192903140,6.45
1631192903156,5.9
1631192903171,5.18
1631192903187,4.38
1631192903203,3.66
1631192903218,3.11
1631192903234,2.78
1631192903250,2.6
1631192903265,2.45
1631192903281,2.22
1631192903296,1.87
1631192903312,1.47
1631192903328,1.12
1631192903343,0.9
1631192903359,0.78
1631192903375,0.62
1631192903390,0.28
1631192903406,-0.28
1631192903421,-0.97
1631192903437,-1.58
1631192903453,-1.96
1631192903468,-2.08
1631192903484,-2.07
1631192903500,-2.18
1631192903515,-2.62
1631192903531,-3.53
1631192903546,-4.85
1631192903562,-6.41
1631192903578,-7.98
1631192903593,-9.26
1631192903609,-10.02
1631192903625,-10.14
1631192903640,-9.69
1631192903656,-8.97
1631192903671,-8.43
1631192903687,-8.48
1631192903703,-9.23
1631192903718,-10.46
1631192903734,-11.65
1631192903750,-12.25
1631192903765,-11.92
1631192903781,-10.62
1631192903796,-8.62
1631192903812,-6.27
1631192903828,-3.87
1631192903843,-1.55
1631192903859,0.61
1631192903875,2.56
1631192903890,4.18
1631192903906,5.4
1631192903921,6.21
1631192903937,6.72
1631192903953,7.15
1631192903968,7.69
1631192903984,8.43
1631192904000,9.3
1631192904015,10.1
1631192904031,10.57
1631192904046,10.49
1631192904062,9.81
1631192904078,8.7
1631192904093,7.42
1631192904109,6.35
1631192904125,5.71
1631192904140,5.55
1631192904156,5.71
1631192904171,5.92
1631192904187,5.95
1631192904203,5.69
1631192904218,5.21
1631192904234,4.66
1631192904250,4.19
1631192904265,3.83
1631192904281,3.52
1631192904296,3.15
1631192904312,2.66
1631192904328,2.1
1631192904343,1.61
1631192904359,1.34
1631192904375,1.35
1631192904390,1.59
1631192904406,1.88
1631192904421,2.03
1631192904437,1.88
1631192904453,1.41
1631192904468,0.71
1631192904484,-0.08
1631192904500,-0.83
1631192904515,-1.51
1631192904531,-2.15
1631192904546,-2.8
1631192904562,-3.45
1631192904578,-4.05
1631192904593,-4.54
1631192904609,-4.89
1631192904625,-5.11
1631192904640,-5.26
1631192904656,-5.43
1631192904671,-5.68
1631192904687,-6.06
1631192904703,-6.57
1631192904718,-7.19
1631192904734,-7.85
1631192904750,-8.41
1631192904765,-8.78
1631192904781,-8.94
1631192904796,-8.97
1631192904812,-9.05
1631192904828,-9.29
1631192904843,-9.68
1631192904859,-10.02
1631192904875,-10.01
1631192904890,-9.42
1631192904906,-8.22
1631192904921,-6.6
1631192904937,-4.86
1631192904953,-3.22
1631192904968,-1.74
1631192904984,-0.3
1631192905000,1.21
1631192905015,2.81
1631192905031,4.34
1631192905046,5.54
1631192905062,6.2
1631192905078,6.3
1631192905093,6.04
1631192905109,5.73
1631192905125,5.67
1631192905140,5.97
1631192905156,6.56
1631192905171,7.19
1631192905187,7.59
1631192905203,7.58
1631192905218,7.15
1631192905234,6.47
1631192905250,5.77
1631192905265,5.25
1631192905281,4.98
1631192905296,4.88
1631192905312,4.79
1631192905328,4.56
1631192905343,4.11
1631192905359,3.55
1631192905375,3.05
1631192905390,2.83
1631192905406,2.94
1631192905421,3.3
1631192905437,3.66
1631192905453,3.74
1631192905468,3.38
1631192905484,2.59
1631192905500,1.56
1631192905515,0.57
1631192905531,-0.2
1631192905546,-0.68
1631192905562,-0.93
1631192905578,-1.01
1631192905593,-0.9
1631192905609,-0.55
1631192905625,0.09
1631192905640,0.88
1631192905656,1.53
1631192905671,1.68
1631192905687,1.11
1631192905703,-0.13
1631192905718,-1.75
1631192905734,-3.31
1631192905750,-4.47
1631192905765,-5.13
1631192905781,-5.38
1631192905796,-5.47
1631192905812,-5.62
1631192905828,-5.93
1631192905843,-6.39
1631192905859,-6.89
1631192905875,-7.36
1631192905890,-7.73
1631192905906,-7.96
1631192905921,-8.04
1631192905937,-7.94
1631192905953,-7.72
1631192905968,-7.47
1631192905984,-7.37
1631192906000,-7.58
1631192906015,-8.16
1631192906031,-9.0
1631192906046,-9.79
1631192906062,-10.16
1631192906078,-9.85
1631192906093,-8.74
1631192906109,-6.97
1631192906125,-4.82
1631192906140,-2.62
1631192906156,-0.62
1631192906171,1.02
1631192906187,2.26
1631192906203,3.13
1631192906218,3.74
1631192906234,4.23
1631192906250,4.77
1631192906265,5.42
1631192906281,6.13
1631192906296,6.75
1631192906312,7.07
1631192906328,6.99
1631192906343,6.56
1631192906359,5.93
1631192906375,5.31
1631192906390,4.86
1631192906406,4.62
1631192906421,4.56
1631192906437,4.6
1631192906453,4.69
1631192906468,4.8
1631192906484,4.88
1631192906500,4.92
1631192906515,4.9
1631192906531,4.82
1631192906546,4.7
1631192906562,4.52
1631192906578,4.28
1631192906593,3.95
1631192906609,3.56
1631192906625,3.16
1631192906640,2.86
1631192906656,2.76
1631192906671,2.87
1631192906687,3.06
1631192906703,3.16
1631192906718,2.97
1631192906734,2.42
1631192906750,1.57
1631192906765,0.6
1631192906781,-0.28
1631192906796,-0.93
1631192906812,-1.32
1631192906828,-1.52
1631192906843,-1.65
1631192906859,-1.87
1631192906875,-2.22
1631192906890,-2.68
1631192906906,-3.16
1631192906921,-3.52
1631192906937,-3.69
1631192906953,-3.69
1631192906968,-3.58
1631192906984,-3.51
1631192907000,-3.6
1631192907015,-3.95
1631192907031,-4.58
1631192907046,-5.46
1631192907062,-6.52
1631192907078,-7.63
1631192907093,-8.59
1631192907109,-9.16
1631192907125,-9.2
1631192907140,-8.69
1631192907156,-7.9
1631192907171,-7.27
1631192907187,-7.23
1631192907203,-8.02
1631192907218,-9.49
1631192907234,-11.12
1631192907250,-12.21
1631192907265,-12.17
1631192907281,-10.78
1631192907296,-8.25
1631192907312,-5.12
1631192907328,-2.04
1631192907343,0.48
1631192907359,2.18
1631192907375,3.1
1631192907390,3.48
1631192907406,3.62
1631192907421,3.82
1631192907437,4.27
1631192907453,5.08
1631192907468,6.2
1631192907484,7.45
1631192907500,8.56
1631192907515,9.24
1631192907531,9.31
1631192907546,8.74
1631192907562,7.73
1631192907578,6.57
1631192907593,5.59
1631192907609,4.96
1631192907625,4.69
1631192907640,4.65
1631192907656,4.67
1631192907671,4.62
1631192907687,4.48
1631192907703,4.27
1631192907718,4.05
1631192907734,3.8
1631192907750,3.49
1631192907765,3.1
1631192907781,2.6
1631192907796,2.09
1631192907812,1.66
1631192907828,1.44
1631192907843,1.47
1631192907859,1.7
1631192907875,1.93
1631192907890,1.96
1631192907906,1.63
1631192907921,0.93
1631192907937,0.09
1631192907953,-0.58
1631192907968,-0.76
1631192907984,-0.32
1631192908000,0.56
1631192908015,1.48
1631192908031,2.0
1631192908046,1.82
1631192908062,0.98
1631192908078,-0.19
1631192908093,-1.15
1631192908109,-1.43
1631192908125,-0.69
1631192908140,1.07
1631192908156,3.55
1631192908171,6.16
1631192908187,8.17
1631192908203,8.89
1631192908218,8.03
1631192908234,5.97
1631192908250,3.76
1631192908265,2.87
1631192908281,4.58
1631192908296,9.27
1631192908312,15.96
1631192908328,22.44
1631192908343,25.98
1631192908359,24.31
1631192908375,16.57
1631192908390,3.58
1631192908406,-12.45
1631192908421,-28.8
1631192908437,-43.05
1631192908453,-53.75
1631192908468,-60.52
1631192908484,-63.85
1631192908500,-64.64
1631192908515,-63.78
1631192908531,-61.89
1631192908546,-59.16
1631192908562,-55.52
1631192908578,-50.77
1631192908593,-44.84
1631192908609,-37.86
1631192908625,-30.08
1631192908640,-21.75
1631192908656,-13.04
1631192908671,-4.03
1631192908687,4.98
1631192908703,13.32
1631192908718,19.92
1631192908734,23.7
1631192908750,24.1
1631192908765,21.45
1631192908781,16.93
1631192908796,12.1
1631192908812,8.28
1631192908828,6.13
1631192908843,5.75
1631192908859,6.96
1631192908875,9.67
1631192908890,13.85
1631192908906,19.32
1631192908921,25.47
1631192908937,31.44
1631192908953,36.55
1631192908968,40.79
1631192908984,44.99
1631192909000,50.41
1631192909015,57.88
1631192909031,67.14
1631192909046,76.74
1631192909062,84.53
1631192909078,88.56
1631192909093,87.87
1631192909109,82.7
1631192909125,74.31
1631192909140,64.52
1631192909156,55.25
1631192909171,48.24
1631192909187,44.79
1631192909203,45.61
1631192909218,50.51
1631192909234,58.43
1631192909250,67.7
1631192909265,76.58
1631192909281,83.85
1631192909296,89.24
1631192909312,93.28
1631192909328,96.92
1631192909343,101.02
1631192909359,105.94
1631192909375,111.33
1631192909390,116.13
1631192909406,118.67
1631192909421,116.96
1631192909437,109.34
1631192909453,95.14
1631192909468,75.51
1631192909484,53.28
1631192909500,32.18
1631192909515,15.45
1631192909531,4.46
1631192909546,-1.92
1631192909562,-6.76
1631192909578,-13.71
1631192909593,-25.36
1631192909609,-42.22
1631192909625,-62.64
1631192909640,-83.48
1631192909656,-101.21
1631192909671,-112.95
1631192909687,-117.04
1631192909703,-113.46
1631192909718,-104.01
1631192909734,-91.93
1631192909750,-81.13
1631192909765,-74.66
1631192909781,-73.44
1631192909796,-75.63
1631192909812,-77.49
1631192909828,-75.15
1631192909843,-66.44
1631192909859,-52.04
1631192909875,-35.15
1631192909890,-20.09
1631192909906,-10.44
1631192909921,-7.71
1631192909937,-11.19
1631192909953,-18.75
1631192909968,-27.87
1631192909984,-36.62
1631192910000,-43.88
1631192910015,-49.16
1631192910031,-52.31
1631192910046,-53.34
1631192910062,-52.5
1631192910078,-50.25
1631192910093,-47.37
1631192910109,-44.85
1631192910125,-43.57
1631192910140,-44.03
1631192910156,-46.04
1631192910171,-48.69
1631192910187,-50.71
1631192910203,-50.91
1631192910218,-48.7
1631192910234,-44.24
1631192910250,-38.42
1631192910265,-32.51
1631192910281,-27.67
1631192910296,-24.63
1631192910312,-23.48
1631192910328,-23.74
1631192910343,-24.68
1631192910359,-25.63
1631192910375,-26.26
1631192910390,-26.66
1631192910406,-27.15
1631192910421,-28.1
1631192910437,-29.63
1631192910453,-31.53
1631192910468,-33.31
1631192910484,-34.4
1631192910500,-34.35
1631192910515,-32.91
1631192910531,-30.14
1631192910546,-26.26
1631192910562,-21.65
1631192910578,-16.74
1631192910593,-11.9
1631192910609,-7.43
1631192910625,-3.44
1631192910640,0.07
1631192910656,3.23
1631192910671,6.12
1631192910687,8.77
1631192910703,11.08
1631192910718,12.92
1631192910734,14.21
1631192910750,14.99
1631192910765,15.39
1631192910781,15.55
1631192910796,15.56
1631192910812,15.39
1631192910828,14.97
1631192910843,14.24
1631192910859,13.2
1631192910875,11.98
1631192910890,10.7
1631192910906,9.5
1631192910921,8.47
1631192910937,7.64
1631192910953,7.05
1631192910968,6.68
1631192910984,6.47
1631192911000,6.32
1631192911015,6.08
1631192911031,5.65
1631192911046,5.01
1631192911062,4.23
1631192911078,3.44
1631192911093,2.83
1631192911109,2.47
1631192911125,2.36
1631192911140,2.43
1631192911156,2.53
1631192911171,2.56
1631192911187,2.43
1631192911203,2.13
1631192911218,1.69
1631192911234,1.14
1631192911250,0.54
1631192911265,-0.07
1631192911281,-0.68
1631192911296,-1.3
1631192911312,-1.95
1631192911328,-2.63
1631192911343,-3.37
1631192911359,-4.19
1631192911375,-5.1
1631192911390,-6.09
1631192911406,-7.1
1631192911421,-8.05
1631192911437,-8.85
1631192911453,-9.49
1631192911468,-10.0
1631192911484,-10.43
1631192911500,-10.8
1631192911515,-11.08
1631192911531,-11.15
1631192911546,-10.86
1631192911562,-10.12
1631192911578,-8.9
1631192911593,-7.28
1631192911609,-5.39
1631192911625,-3.35
1631192911640,-1.3
1631192911656,0.61
1631192911671,2.27
1631192911687,3.55
1631192911703,4.42
1631192911718,4.94
1631192911734,5.25
1631192911750,5.49
1631192911765,5.76
1631192911781,6.05
1631192911796,6.32
1631192911812,6.5
1631192911828,6.56
1631192911843,6.52
1631192911859,6.4
1631192911875,6.23
1631192911890,6.07
1631192911906,5.96
1631192911921,5.95
1631192911937,6.09
1631192911953,6.36
1631192911968,6.67
1631192911984,6.89
1631192912000,6.85
1631192912015,6.48
1631192912031,5.85
1631192912046,5.09
1631192912062,4.4
1631192912078,3.9
1631192912093,3.61
1631192912109,3.42
1631192912125,3.15
1631192912140,2.69
1631192912156,2.04
1631192912171,1.37
1631192912187,0.87
1631192912203,0.68
1631192912218,0.77
1631192912234,0.94
1631192912250,0.93
1631192912265,0.53
1631192912281,-0.3
1631192912296,-1.43
1631192912312,-2.66
1631192912328,-3.81
1631192912343,-4.79
1631192912359,-5.62
1631192912375,-6.35
1631192912390,-7.05
1631192912406,-7.73
1631192912421,-8.36
1631192912437,-8.95
1631192912453,-9.53
1631192912468,-10.17
1631192912484,-10.99
1631192912500,-12.0
1631192912515,-13.11
1631192912531,-14.09
1631192912546,-14.68
1631192912562,-14.67
1631192912578,-14.02
1631192912593,-12.83
1631192912609,-11.28
1631192912625,-9.49
1631192912640,-7.55
1631192912656,-5.45
1631192912671,-3.17
1631192912687,-0.81
1631192912703,1.52
1631192912718,3.67
1631192912734,5.54
1631192912750,7.08
1631192912765,8.27
1631192912781,9.1
1631192912796,9.57
1631192912812,9.74
1631192912828,9.72
1631192912843,9.66
1631192912859,9.67
1631192912875,9.8
1631192912890,10.0
1631192912906,10.16
1631192912921,10.21
1631192912937,10.13
1631192912953,9.97
1631192912968,9.83
1631192912984,9.81
1631192913000,9.95
1631192913015,10.28
1631192913031,10.74
1631192913046,11.21
1631192913062,11.56
1631192913078,11.67
1631192913093,11.49
1631192913109,11.07
1631192913125,10.52
1631192913140,9.98
1631192913156,9.53
1631192913171,9.2
1631192913187,8.93
1631192913203,8.63
1631192913218,8.18
1631192913234,7.53
1631192913250,6.66
1631192913265,5.63
1631192913281,4.51
1631192913296,3.44
1631192913312,2.48
1631192913328,1.62
1631192913343,0.79
1631192913359,-0.11
1631192913375,-1.16
1631192913390,-2.37
1631192913406,-3.73
1631192913421,-5.19
1631192913437,-6.68
1631192913453,-8.11
1631192913468,-9.37
1631192913484,-10.32
1631192913500,-10.85
1631192913515,-10.91
1631192913531,-10.58
1631192913546,-10.02
1631192913562,-9.41
1631192913578,-8.92
1631192913593,-8.6
1631192913609,-8.46
1631192913625,-8.51
1631192913640,-8.76
1631192913656,-9.21
1631192913671,-9.91
1631192913687,-10.81
1631192913703,-11.84
1631192913718,-12.86
1631192913734,-13.69
1631192913750,-14.2
1631192913765,-14.26
1631192913781,-13.83
1631192913796,-12.91
1631192913812,-11.6
1631192913828,-9.98
1631192913843,-8.14
1631192913859,-6.14
1631192913875,-4.01
1631192913890,-1.78
1631192913906,0.51
1631192913921,2.78
1631192913937,4.9
1631192913953,6.76
1631192913968,8.29
1631192913984,9.49
1631192914000,10.43
1631192914015,11.2
1631192914031,11.87
1631192914046,12.45
1631192914062,12.92
1631192914078,13.2
1631192914093,13.24
1631192914109,13.06
1631192914125,12.74
1631192914140,12.39
1631192914156,12.11
1631192914171,11.93
1631192914187,11.83
1631192914203,11.74
1631192914218,11.59
1631192914234,11.36
1631192914250,11.06
1631192914265,10.76
1631192914281,10.54
1631192914296,10.43
1631192914312,10.41
1631192914328,10.38
1631192914343,10.2
1631192914359,9.78
1631192914375,9.13
1631192914390,8.35
1631192914406,7.58
1631192914421,6.95
1631192914437,6.48
1631192914453,6.07
1631192914468,5.6
1631192914484,4.98
1631192914500,4.2
1631192914515,3.36
1631192914531,2.58
1631192914546,1.9
1631192914562,1.3
1631192914578,0.72
1631192914593,0.1
1631192914609,-0.54
1631192914625,-1.1
1631192914640,-1.5
1631192914656,-1.69
1631192914671,-1.76
1631192914687,-1.88
1631192914703,-2.19
1631192914718,-2.78
1631192914734,-3.61
1631192914750,-4.54
1631192914765,-5.39
1631192914781,-6.08
1631192914796,-6.57
1631192914812,-6.96
1631192914828,-7.33
1631192914843,-7.76
1631192914859,-8.29
1631192914875,-8.94
1631192914890,-9.74
1631192914906,-10.72
1631192914921,-11.92
1631192914937,-13.31
1631192914953,-14.71
1631192914968,-15.86
1631192914984,-16.46
1631192915000,-16.26
1631192915015,-15.2
1631192915031,-13.44
1631192915046,-11.24
1631192915062,-8.93
1631192915078,-6.71
1631192915093,-4.6
1631192915109,-2.5
1631192915125,-0.33
1631192915140,1.88
1631192915156,4.01
1631192915171,5.82
1631192915187,7.13
1631192915203,7.95
1631192915218,8.43
1631192915234,8.82
1631192915250,9.27
1631192915265,9.79
1631192915281,10.18
1631192915296,10.24
1631192915312,9.86
1631192915328,9.16
1631192915343,8.42
1631192915359,7.98
1631192915375,8.03
1631192915390,8.53
1631192915406,9.26
1631192915421,9.88
1631192915437,10.16
1631192915453,10.03
1631192915468,9.61
1631192915484,9.09
1631192915500,8.6
1631192915515,8.16
1631192915531,7.71
1631192915546,7.15
1631192915562,6.46
1631192915578,5.73
1631192915593,5.1
1631192915609,4.71
1631192915625,4.59
1631192915640,4.67
1631192915656,4.77
1631192915671,4.72
1631192915687,4.39
1631192915703,3.75
1631192915718,2.87
1631192915734,1.86
1631192915750,0.86
1631192915765,0.03
1631192915781,-0.54
1631192915796,-0.76
1631192915812,-0.67
1631192915828,-0.36
1631192915843,-0.04
1631192915859,0.05
1631192915875,-0.28
1631192915890,-1.12
1631192915906,-2.37
1631192915921,-3.81
1631192915937,-5.16
1631192915953,-6.18
1631192915968,-6.82
1631192915984,-7.15
1631192916000,-7.37
1631192916015,-7.7
1631192916031,-8.28
1631192916046,-9.15
1631192916062,-10.26
1631192916078,-11.45
1631192916093,-12.49
1631192916109,-13.19
1631192916125,-13.42
1631192916140,-13.11
1631192916156,-12.32
1631192916171,-11.18
1631192916187,-9.78
1631192916203,-8.21
1631192916218,-6.47
1631192916234,-4.56
1631192916250,-2.49
1631192916265,-0.35
1631192916281,1.72
1631192916296,3.6
1631192916312,5.17
1631192916328,6.38
1631192916343,7.25
1631192916359,7.81
1631192916375,8.13
1631192916390,8.23
1631192916406,8.15
1631192916421,7.9
1631192916437,7.48
1631192916453,6.97
1631192916468,6.45
1631192916484,6.06
1631192916500,5.89
1631192916515,6.01
1631192916531,6.38
1631192916546,6.92
1631192916562,7.5
1631192916578,8.01
1631192916593,8.36
1631192916609,8.51
1631192916625,8.48
1631192916640,8.3
1631192916656,7.98
1631192916671,7.52
1631192916687,6.9
1631192916703,6.09
1631192916718,5.11
1631192916734,4.07
1631192916750,3.17
1631192916765,2.57
1631192916781,2.3
1631192916796,2.3
1631192916812,2.34
1631192916828,2.19
1631192916843,1.7
1631192916859,0.89
1631192916875,-0.11
1631192916890,-1.13
1631192916906,-2.03
1631192916921,-2.77
1631192916937,-3.39
1631192916953,-3.96
1631192916968,-4.54
1631192916984,-5.18
1631192917000,-5.94
1631192917015,-6.83
1631192917031,-7.89
1631192917046,-9.09
1631192917062,-10.41
1631192917078,-11.75
1631192917093,-12.94
1631192917109,-13.8
1631192917125,-14.17
1631192917140,-13.97
1631192917156,-13.28
1631192917171,-12.21
1631192917187,-10.92
1631192917203,-9.45
1631192917218,-7.75
1631192917234,-5.72
1631192917250,-3.33
1631192917265,-0.68
1631192917281,2.01
1631192917296,4.45
1631192917312,6.43
1631192917328,7.89
1631192917343,8.87
1631192917359,9.45
1631192917375,9.69
1631192917390,9.61
1631192917406,9.24
1631192917421,8.68
1631192917437,8.09
1631192917453,7.68
1631192917468,7.58
1631192917484,7.81
1631192917500,8.23
1631192917515,8.65
1631192917531,8.91
1631192917546,8.97
1631192917562,8.91
1631192917578,8.87
1631192917593,8.95
1631192917609,9.14
1631192917625,9.37
1631192917640,9.48
1631192917656,9.39
1631192917671,9.05
1631192917687,8.52
1631192917703,7.86
1631192917718,7.1
1631192917734,6.28
1631192917750,5.39
1631192917765,4.49
1631192917781,3.65
1631192917796,2.97
1631192917812,2.47
1631192917828,2.12
1631192917843,1.83
1631192917859,1.47
1631192917875,1.01
1631192917890,0.45
1631192917906,-0.11
1631192917921,-0.61
1631192917937,-1.04
1631192917953,-1.45
1631192917968,-1.96
1631192917984,-2.67
1631192918000,-3.59
1631192918015,-4.7
1631192918031,-5.89
1631192918046,-7.06
1631192918062,-8.13
1631192918078,-9.03
1631192918093,-9.78
1631192918109,-10.41
1631192918125,-10.99
1631192918140,-11.62
1631192918156,-12.38
1631192918171,-13.33
1631192918187,-14.5
1631192918203,-15.8
1631192918218,-17.06
1631192918234,-18.05
1631192918250,-18.54
1631192918265,-18.37
1631192918281,-17.51
1631192918296,-16.08
1631192918312,-14.24
1631192918328,-12.15
1631192918343,-9.92
1631192918359,-7.57
1631192918375,-5.1
1631192918390,-2.56
1631192918406,-0.02
1631192918421,2.38
1631192918437,4.53
1631192918453,6.35
1631192918468,7.77
1631192918484,8.78
1631192918500,9.39
1631192918515,9.68
1631192918531,9.75
1631192918546,9.73
1631192918562,9.72
1631192918578,9.75
1631192918593,9.78
1631192918609,9.8
1631192918625,9.83
1631192918640,9.94
1631192918656,10.15
1631192918671,10.46
1631192918687,10.79
1631192918703,11.01
1631192918718,11.06
1631192918734,10.97
1631192918750,10.77
1631192918765,10.53
1631192918781,10.26
1631192918796,9.89
1631192918812,9.43
1631192918828,8.9
1631192918843,8.36
1631192918859,7.86
1631192918875,7.37
1631192918890,6.83
1631192918906,6.17
1631192918921,5.36
1631192918937,4.47
1631192918953,3.6
1631192918968,2.83
1631192918984,2.22
1631192919000,1.75
1631192919015,1.38
1631192919031,1.06
1631192919046,0.74
1631192919062,0.38
1631192919078,-0.1
1631192919093,-0.73
1631192919109,-1.53
1631192919125,-2.44
1631192919140,-3.35
1631192919156,-4.16
1631192919171,-4.79
1631192919187,-5.27
1631192919203,-5.65
1631192919218,-6.03
1631192919234,-6.45
1631192919250,-6.96
1631192919265,-7.55
1631192919281,-8.22
1631192919296,-9.0
1631192919312,-9.9
1631192919328,-10.98
1631192919343,-12.22
1631192919359,-13.58
1631192919375,-14.96
1631192919390,-16.26
1631192919406,-17.37
1631192919421,-18.26
1631192919437,-18.89
1631192919453,-19.22
1631192919468,-19.18
1631192919484,-18.65
1631192919500,-17.52
1631192919515,-15.72
1631192919531,-13.28
1631192919546,-10.27
1631192919562,-6.86
1631192919578,-3.27
1631192919593,0.25
1631192919609,3.45
1631192919625,6.1
1631192919640,8.05
1631192919656,9.27
1631192919671,9.83
1631192919687,9.91
1631192919703,9.75
1631192919718,9.56
1631192919734,9.5
1631192919750,9.61
1631192919765,9.87
1631192919781,10.2
1631192919796,10.53
1631192919812,10.79
1631192919828,10.97
1631192919843,11.07
1631192919859,11.08
1631192919875,10.99
1631192919890,10.79
1631192919906,10.48
1631192919921,10.13
1631192919937,9.82
1631192919953,9.62
1631192919968,9.58
1631192919984,9.64
1631192920000,9.7
1631192920015,9.65
1631192920031,9.36
1631192920046,8.75
1631192920062,7.85
1631192920078,6.72
1631192920093,5.53
1631192920109,4.47
1631192920125,3.71
1631192920140,3.32
1631192920156,3.23
1631192920171,3.28
1631192920187,3.27
1631192920203,3.04
1631192920218,2.5
1631192920234,1.71
1631192920250,0.76
1631192920265,-0.24
1631192920281,-1.21
1631192920296,-2.06
1631192920312,-2.76
1631192920328,-3.29
1631192920343,-3.69
1631192920359,-4.07
1631192920375,-4.56
1631192920390,-5.26
1631192920406,-6.22
1631192920421,-7.37
1631192920437,-8.6
1631192920453,-9.77
1631192920468,-10.76
1631192920484,-11.52
1631192920500,-12.05
1631192920515,-12.44
1631192920531,-12.78
1631192920546,-13.19
1631192920562,-13.72
1631192920578,-14.36
1631192920593,-15.0
1631192920609,-15.47
1631192920625,-15.62
1631192920640,-15.32
1631192920656,-14.49
1631192920671,-13.11
1631192920687,-11.17
1631192920703,-8.69
1631192920718,-5.74
1631192920734,-2.47
1631192920750,0.86
1631192920765,3.94
1631192920781,6.47
1631192920796,8.31
1631192920812,9.43
1631192920828,9.97
1631192920843,10.11
1631192920859,10.02
1631192920875,9.8
1631192920890,9.49
1631192920906,9.12
1631192920921,8.71
1631192920937,8.35
1631192920953,8.09
1631192920968,8.01
1631192920984,8.07
1631192921000,8.24
1631192921015,8.43
1631192921031,8.58
1631192921046,8.66
1631192921062,8.7
1631192921078,8.72
1631192921093,8.75
1631192921109,8.77
1631192921125,8.72
1631192921140,8.55
1631192921156,8.21
1631192921171,7.72
1631192921187,7.1
1631192921203,6.4
1631192921218,5.67
1631192921234,4.95
1631192921250,4.31
1631192921265,3.76
1631192921281,3.34
1631192921296,3.02
1631192921312,2.73
1631192921328,2.38
1631192921343,1.9
1631192921359,1.25
1631192921375,0.46
1631192921390,-0.39
1631192921406,-1.25
1631192921421,-2.1
1631192921437,-3.02
1631192921453,-4.07
1631192921468,-5.27
1631192921484,-6.55
1631192921500,-7.81
1631192921515,-8.93
1631192921531,-9.93
1631192921546,-10.96
1631192921562,-12.21
1631192921578,-13.81
1631192921593,-15.65
1631192921609,-17.4
1631192921625,-18.61
1631192921640,-18.95
1631192921656,-18.31
1631192921671,-16.82
1631192921687,-14.75
1631192921703,-12.38
1631192921718,-9.83
1631192921734,-7.13
1631192921750,-4.24
1631192921765,-1.22
1631192921781,1.75
1631192921796,4.45
1631192921812,6.67
1631192921828,8.32
1631192921843,9.44
1631192921859,10.14
1631192921875,10.61
1631192921890,10.97
1631192921906,11.29
1631192921921,11.52
1631192921937,11.59
1631192921953,11.39
1631192921968,10.92
1631192921984,10.29
1631192922000,9.71
1631192922015,9.41
1631192922031,9.5
1631192922046,9.92
1631192922062,10.46
1631192922078,10.87
1631192922093,10.96
1631192922109,10.7
1631192922125,10.19
1631192922140,9.54
1631192922156,8.86
1631192922171,8.16
1631192922187,7.47
1631192922203,6.79
1631192922218,6.17
1631192922234,5.66
1631192922250,5.26
1631192922265,4.93
1631192922281,4.59
1631192922296,4.16
1631192922312,3.62
1631192922328,2.96
1631192922343,2.21
1631192922359,1.39
1631192922375,0.55
1631192922390,-0.27
1631192922406,-0.99
1631192922421,-1.58
1631192922437,-2.05
1631192922453,-2.51
1631192922468,-3.07
1631192922484,-3.84
1631192922500,-4.82
1631192922515,-5.95
1631192922531,-7.13
1631192922546,-8.27
1631192922562,-9.28
1631192922578,-10.16
1631192922593,-10.91
1631192922609,-11.6
1631192922625,-12.29
1631192922640,-13.06
1631192922656,-13.98
1631192922671,-15.05
1631192922687,-16.24
1631192922703,-17.46
1631192922718,-18.62
1631192922734,-19.61
1631192922750,-20.28
1631192922765,-20.49
1631192922781,-20.05
1631192922796,-18.82
1631192922812,-16.76
1631192922828,-13.94
1631192922843,-10.55
1631192922859,-6.86
1631192922875,-3.14
1631192922890,0.38
1631192922906,3.54
1631192922921,6.24
1631192922937,8.4
1631192922953,10.0
1631192922968,11.06
1631192922984,11.69
1631192923000,12.0
1631192923015,12.18
1631192923031,12.31
1631192923046,12.43
1631192923062,12.47
1631192923078,12.3
1631192923093,11.85
1631192923109,11.18
1631192923125,10.47
1631192923140,9.98
1631192923156,9.9
1631192923171,10.27
1631192923187,10.93
1631192923203,11.61
1631192923218,12.04
1631192923234,12.09
1631192923250,11.77
1631192923265,11.2
1631192923281,10.51
1631192923296,9.82
1631192923312,9.14
1631192923328,8.47
1631192923343,7.8
1631192923359,7.15
1631192923375,6.52
1631192923390,5.93
1631192923406,5.39
1631192923421,4.89
1631192923437,4.37
1631192923453,3.73
1631192923468,2.91
1631192923484,1.87
1631192923500,0.68
1631192923515,-0.5
1631192923531,-1.48
1631192923546,-2.11
1631192923562,-2.39
1631192923578,-2.44
1631192923593,-2.47
1631192923609,-2.7
1631192923625,-3.27
1631192923640,-4.19
1631192923656,-5.36
1631192923671,-6.62
1631192923687,-7.81
1631192923703,-8.83
1631192923718,-9.68
1631192923734,-10.43
1631192923750,-11.14
1631192923765,-11.89
1631192923781,-12.73
1631192923796,-13.66
1631192923812,-14.72
1631192923828,-15.93
1631192923843,-17.31
1631192923859,-18.75
1631192923875,-20.06
1631192923890,-20.98
1631192923906,-21.25
1631192923921,-20.72
1631192923937,-19.34
1631192923953,-17.18
1631192923968,-14.38
1631192923984,-11.09
1631192924000,-7.47
1631192924015,-3.69
1631192924031,0.04
1631192924046,3.51
1631192924062,6.59
1631192924078,9.16
1631192924093,11.21
1631192924109,12.72
1631192924125,13.72
1631192924140,14.22
1631192924156,14.29
1631192924171,14.02
1631192924187,13.53
1631192924203,12.93
1631192924218,12.27
1631192924234,11.62
1631192924250,11.05
1631192924265,10.66
1631192924281,10.56
1631192924296,10.82
1631192924312,11.36
1631192924328,11.99
1631192924343,12.44
1631192924359,12.51
1631192924375,12.13
1631192924390,11.41
1631192924406,10.57
1631192924421,9.85
1631192924437,9.37
1631192924453,9.15
1631192924468,9.08
1631192924484,9.01
1631192924500,8.81
1631192924515,8.43
1631192924531,7.84
1631192924546,7.04
1631192924562,6.06
1631192924578,4.94
1631192924593,3.76
1631192924609,2.63
1631192924625,1.68
1631192924640,0.98
1631192924656,0.53
1631192924671,0.19
1631192924687,-0.19
1631192924703,-0.74
1631192924718,-1.51
1631192924734,-2.41
1631192924750,-3.3
1631192924765,-4.1
1631192924781,-4.76
1631192924796,-5.33
1631192924812,-5.85
1631192924828,-6.37
1631192924843,-6.91
1631192924859,-7.51
1631192924875,-8.23
1631192924890,-9.13
1631192924906,-10.23
1631192924921,-11.46
1631192924937,-12.73
1631192924953,-13.97
1631192924968,-15.14
1631192924984,-16.28
1631192925000,-17.38
1631192925015,-18.39
1631192925031,-19.15
1631192925046,-19.44
1631192925062,-19.12
1631192925078,-18.11
1631192925093,-16.39
1631192925109,-14.01
1631192925125,-10.98
1631192925140,-7.37
1631192925156,-3.33
1631192925171,0.91
1631192925187,5.09
1631192925203,9.08
1631192925218,12.89
1631192925234,16.74
1631192925250,20.86
1631192925265,25.34
1631192925281,30.06
1631192925296,34.76
1631192925312,39.13
1631192925328,42.98
1631192925343,46.21
1631192925359,48.69
1631192925375,50.29
1631192925390,50.75
1631192925406,49.86
1631192925421,47.55
1631192925437,43.95
1631192925453,39.39
1631192925468,34.3
1631192925484,29.17
1631192925500,24.45
1631192925515,20.53
1631192925531,17.6
1631192925546,15.6
1631192925562,14.1
1631192925578,12.48
1631192925593,10.04
1631192925609,6.38
1631192925625,1.5
1631192925640,-4.1
1631192925656,-9.66
1631192925671,-14.41
1631192925687,-17.8
1631192925703,-19.56
1631192925718,-19.69
1631192925734,-18.24
1631192925750,-15.21
1631192925765,-10.46
1631192925781,-3.65
1631192925796,5.54
1631192925812,17.34
1631192925828,31.6
1631192925843,47.59
1631192925859,63.89
1631192925875,78.53
1631192925890,89.28
1631192925906,94.26
1631192925921,92.44
1631192925937,84.02
1631192925953,70.36
1631192925968,53.67
1631192925984,36.48
1631192926000,21.09
1631192926015,9.24
1631192926031,1.85
1631192926046,-0.99
1631192926062,-0.05
1631192926078,3.21
1631192926093,6.84
1631192926109,8.81
1631192926125,7.49
1631192926140,2.11
1631192926156,-7.07
1631192926171,-18.79
1631192926187,-31.1
1631192926203,-41.98
1631192926218,-49.95
1631192926234,-54.64
1631192926250,-56.92
1631192926265,-58.72
1631192926281,-62.33
1631192926296,-69.66
1631192926312,-81.62
1631192926328,-97.96
1631192926343,-117.51
1631192926359,-138.61
1631192926375,-159.45
1631192926390,-178.25
1631192926406,-193.25
1631192926421,-202.87
1631192926437,-205.87
1631192926453,-201.66
1631192926468,-190.5
1631192926484,-173.26
1631192926500,-151.11
1631192926515,-125.09
1631192926531,-96.0
1631192926546,-64.63
1631192926562,-32.15
1631192926578,-0.24
1631192926593,29.13
1631192926609,54.29
1631192926625,74.52
1631192926640,90.3
1631192926656,103.0
1631192926671,114.22
1631192926687,125.09
1631192926703,135.85
1631192926718,145.84
1631192926734,153.8
1631192926750,158.16
1631192926765,157.19
1631192926781,149.16
1631192926796,132.59
1631192926812,106.86
1631192926828,72.9
1631192926843,33.55
1631192926859,-6.69
1631192926875,-42.75
1631192926890,-70.35
1631192926906,-87.24
1631192926921,-93.61
1631192926937,-91.69
1631192926953,-84.64
1631192926968,-75.49
1631192926984,-66.41
1631192927000,-58.59
1631192927015,-52.47
1631192927031,-48.02
1631192927046,-44.83
1631192927062,-42.16
1631192927078,-38.95
1631192927093,-34.15
1631192927109,-27.1
1631192927125,-17.93
1631192927140,-7.56
1631192927156,2.58
1631192927171,11.12
1631192927187,17.24
1631192927203,20.99
1631192927218,23.05
1631192927234,24.42
1631192927250,25.94
1631192927265,28.06
1631192927281,30.76
1631192927296,33.73
1631192927312,36.54
1631192927328,38.81
1631192927343,40.23
1631192927359,40.63
1631192927375,39.9
1631192927390,38.18
1631192927406,35.84
1631192927421,33.5
1631192927437,31.73
1631192927453,30.63
1631192927468,29.6
1631192927484,27.41
1631192927500,22.74
1631192927515,14.93
1631192927531,4.41
1631192927546,-7.36
1631192927562,-18.53
1631192927578,-27.63
1631192927593,-34.06
1631192927609,-38.02
1631192927625,-40.03
1631192927640,-40.39
1631192927656,-38.95
1631192927671,-35.37
1631192927687,-29.43
1631192927703,-21.43
1631192927718,-12.18
1631192927734,-2.83
1631192927750,5.48
1631192927765,11.86
1631192927781,15.79
1631192927796,17.33
1631192927812,17.0
1631192927828,15.62
1631192927843,13.96
1631192927859,12.56
1631192927875,11.5
1631192927890,10.6
1631192927906,9.59
1631192927921,8.3
1631192927937,6.59
1631192927953,4.23
1631192927968,0.8
1631192927984,-4.04
1631192928000,-10.15
1631192928015,-16.7
1631192928031,-22.28
1631192928046,-25.55
1631192928062,-25.93
1631192928078,-23.97
1631192928093,-21.1
1631192928109,-18.79
1631192928125,-17.72
1631192928140,-17.46
1631192928156,-16.78
1631192928171,-14.38
1631192928187,-9.68
1631192928203,-3.05
1631192928218,4.48
1631192928234,11.79
1631192928250,18.21
1631192928265,23.56
1631192928281,27.88
1631192928296,31.09
1631192928312,32.78
1631192928328,32.42
1631192928343,29.63
1631192928359,24.53
1631192928375,17.86
1631192928390,10.79
1631192928406,4.67
1631192928421,0.62
1631192928437,-0.68
1631192928453,0.85
1631192928468,4.76
1631192928484,10.15
1631192928500,16.05
1631192928515,21.6
1631192928531,26.32
1631192928546,30.12
1631192928562,33.17
1631192928578,35.56
1631192928593,37.09
1631192928609,37.26
1631192928625,35.46
1631192928640,31.4
1631192928656,25.35
1631192928671,18.26
1631192928687,11.4
1631192928703,5.89
1631192928718,2.2
1631192928734,0.04
1631192928750,-1.53
1631192928765,-3.55
1631192928781,-6.67
1631192928796,-10.94
1631192928812,-15.77
1631192928828,-20.39
1631192928843,-24.22
1631192928859,-27.22
1631192928875,-29.93
1631192928890,-33.29
1631192928906,-38.2
1631192928921,-45.25
1631192928937,-54.28
1631192928953,-64.37
1631192928968,-73.98
1631192928984,-81.48
1631192929000,-85.74
1631192929015,-86.66
1631192929031,-85.23
1631192929046,-83.12
1631192929062,-81.92
1631192929078,-82.44
1631192929093,-84.4
1631192929109,-86.64
1631192929125,-87.69
1631192929140,-86.24
1631192929156,-81.5
1631192929171,-73.31
1631192929187,-62.16
1631192929203,-49.45
1631192929218,-37.43
1631192929234,-28.75
1631192929250,-25.51
1631192929265,-28.15
1631192929281,-34.85
1631192929296,-41.83
1631192929312,-44.64
1631192929328,-39.83
1631192929343,-26.37
1631192929359,-5.99
1631192929375,17.66
1631192929390,40.52
1631192929406,59.64
1631192929421,73.92
1631192929437,83.81
1631192929453,90.34
1631192929468,94.15
1631192929484,95.15
1631192929500,92.82
1631192929515,87.06
1631192929531,78.82
1631192929546,70.16
1631192929562,63.45
1631192929578,60.25
1631192929593,60.5
1631192929609,62.54
1631192929625,64.07
1631192929640,63.43
1631192929656,60.49
1631192929671,56.59
1631192929687,53.75
1631192929703,53.48
1631192929718,56.05
1631192929734,60.38
1631192929750,64.65
1631192929765,67.05
1631192929781,66.51
1631192929796,62.93
1631192929812,57.06
1631192929828,50.01
1631192929843,42.79
1631192929859,36.01
1631192929875,29.81
1631192929890,24.07
1631192929906,18.67
1631192929921,13.67
1631192929937,9.34
1631192929953,6.01
1631192929968,3.85
1631192929984,2.69
1631192930000,2.04
1631192930015,1.32
1631192930031,0.1
1631192930046,-1.74
1631192930062,-3.95
1631192930078,-6.08
1631192930093,-7.75
1631192930109,-8.73
1631192930125,-9.0
1631192930140,-8.68
1631192930156,-7.97
1631192930171,-7.04
1631192930187,-6.03
1631192930203,-5.04
1631192930218,-4.1
1631192930234,-3.26
1631192930250,-2.55
1631192930265,-1.98
1631192930281,-1.59
1631192930296,-1.34
1631192930312,-1.13
1631192930328,-0.82
1631192930343,-0.31
1631192930359,0.39
1631192930375,1.15
1631192930390,1.75
1631192930406,1.98
1631192930421,1.79
1631192930437,1.26
1631192930453,0.57
1631192930468,-0.15
1631192930484,-0.85
1631192930500,-1.56
1631192930515,-2.32
1631192930531,-3.12
1631192930546,-3.89
1631192930562,-4.54
1631192930578,-5.01
1631192930593,-5.34
1631192930609,-5.62
1631192930625,-5.97
1631192930640,-6.44
1631192930656,-7.05
1631192930671,-7.83
1631192930687,-8.76
1631192930703,-9.84
1631192930718,-11.01
1631192930734,-12.15
1631192930750,-13.18
1631192930765,-14.05
1631192930781,-14.85
1631192930796,-15.74
1631192930812,-16.92
1631192930828,-18.46
1631192930843,-20.25
1631192930859,-22.0
1631192930875,-23.36
1631192930890,-23.96
1631192930906,-23.61
1631192930921,-22.29
1631192930937,-20.1
1631192930953,-17.22
1631192930968,-13.79
1631192930984,-9.92
1631192931000,-5.76
1631192931015,-1.53
1631192931031,2.44
1631192931046,5.79
1631192931062,8.21
1631192931078,9.64
1631192931093,10.22
1631192931109,10.35
1631192931125,10.48
1631192931140,10.93
1631192931156,11.79
1631192931171,12.83
1631192931187,13.61
1631192931203,13.72
1631192931218,12.94
1631192931234,11.46
1631192931250,9.74
1631192931265,8.38
1631192931281,7.77
1631192931296,7.93
1631192931312,8.47
1631192931328,8.89
1631192931343,8.82
1631192931359,8.23
1631192931375,7.43
1631192931390,6.85
1631192931406,6.88
1631192931421,7.76
1631192931437,9.69
1631192931453,12.79
1631192931468,16.99
1631192931484,21.66
1631192931500,25.47
1631192931515,26.59
1631192931531,23.38
1631192931546,15.25
1631192931562,3.13
1631192931578,-10.68
1631192931593,-23.48
1631192931609,-33.18
1631192931625,-39.04
1631192931640,-41.65
1631192931656,-42.19
1631192931671,-41.7
1631192931687,-40.5
1631192931703,-38.3
1631192931718,-34.66
1631192931734,-29.52
1631192931750,-23.37
1631192931765,-17.09
1631192931781,-11.56
1631192931796,-7.29
1631192931812,-4.33
1631192931828,-2.36
1631192931843,-0.9
1631192931859,0.44
1631192931875,1.82
1631192931890,3.22
1631192931906,4.52
1631192931921,5.63
1631192931937,6.56
1631192931953,7.45
1631192931968,8.46
1631192931984,9.68
1631192932000,11.07
1631192932015,12.47
1631192932031,13.67
1631192932046,14.52
1631192932062,15.0
1631192932078,15.2
1631192932093,15.28
1631192932109,15.38
1631192932125,15.56
1631192932140,15.82
1631192932156,16.13
1631192932171,16.51
1631192932187,17.0
1631192932203,17.63
1631192932218,18.35
1631192932234,18.96
1631192932250,19.21
1631192932265,18.87
1631192932281,17.89
1631192932296,16.47
1631192932312,14.94
1631192932328,13.72
1631192932343,13.08
1631192932359,13.06
1631192932375,13.47
1631192932390,14.05
1631192932406,14.53
1631192932421,14.73
1631192932437,14.55
1631192932453,14.0
1631192932468,13.09
1631192932484,11.94
1631192932500,10.69
1631192932515,9.53
1631192932531,8.62
1631192932546,7.99
1631192932562,7.49
1631192932578,6.83
1631192932593,5.64
1631192932609,3.65
1631192932625,0.76
1631192932640,-2.88
1631192932656,-6.98
1631192932671,-11.11
1631192932687,-14.88
1631192932703,-18.02
1631192932718,-20.44
1631192932734,-22.2
1631192932750,-23.47
1631192932765,-24.42
1631192932781,-25.11
1631192932796,-25.56
1631192932812,-25.7
1631192932828,-25.54
1631192932843,-25.16
1631192932859,-24.73
1631192932875,-24.43
1631192932890,-24.34
1631192932906,-24.45
1631192932921,-24.67
1631192932937,-24.92
1631192932953,-25.18
1631192932968,-25.48
1631192932984,-25.88
1631192933000,-26.37
1631192933015,-26.85
1631192933031,-27.18
1631192933046,-27.26
1631192933062,-27.08
1631192933078,-26.74
1631192933093,-26.41
1631192933109,-26.14
1631192933125,-25.8
1631192933140,-25.04
1631192933156,-23.4
1631192933171,-20.5
1631192933187,-16.26
1631192933203,-10.97
1631192933218,-5.22
1631192933234,0.29
1631192933250,5.07
1631192933265,9.01
1631192933281,12.44
1631192933296,15.92
1631192933312,20.03
1631192933328,25.14
1631192933343,31.3
1631192933359,38.27
1631192933375,45.66
1631192933390,53.0
1631192933406,59.81
1631192933421,65.63
1631192933437,70.0
1631192933453,72.62
1631192933468,73.33
1631192933484,72.27
1631192933500,69.82
1631192933515,66.54
1631192933531,63.03
1631192933546,59.75
1631192933562,56.98
1631192933578,54.79
1631192933593,53.05
1631192933609,51.54
1631192933625,49.97
1631192933640,48.05
1631192933656,45.5
1631192933671,42.11
1631192933687,37.82
1631192933703,32.73
1631192933718,27.07
1631192933734,21.14
1631192933750,15.26
1631192933765,9.62
1631192933781,4.36
1631192933796,-0.52
1631192933812,-5.05
1631192933828,-9.3
1631192933843,-13.34
1631192933859,-17.21
1631192933875,-20.95
1631192933890,-24.54
1631192933906,-27.95
1631192933921,-31.12
1631192933937,-34.03
1631192933953,-36.66
1631192933968,-39.03
1631192933984,-41.16
1631192934000,-43.09
1631192934015,-44.79
1631192934031,-46.23
1631192934046,-47.32
1631192934062,-48.0
1631192934078,-48.23
1631192934093,-48.04
1631192934109,-47.49
1631192934125,-46.67
1631192934140,-45.67
1631192934156,-44.61
1631192934171,-43.64
1631192934187,-42.86
1631192934203,-42.37
1631192934218,-42.13
1631192934234,-41.93
1631192934250,-41.46
1631192934265,-40.33
1631192934281,-38.27
1631192934296,-35.22
1631192934312,-31.35
1631192934328,-27.01
1631192934343,-22.58
1631192934359,-18.36
1631192934375,-14.53
1631192934390,-11.16
1631192934406,-8.25
1631192934421,-5.79
1631192934437,-3.75
1631192934453,-2.09
1631192934468,-0.75
1631192934484,0.4
1631192934500,1.47
1631192934515,2.53
1631192934531,3.57
1631192934546,4.52
1631192934562,5.25
1631192934578,5.73
1631192934593,6.0
1631192934609,6.18
1631192934625,6.41
1631192934640,6.81
1631192934656,7.39
1631192934671,8.07
1631192934687,8.68
1631192934703,9.02
1631192934718,8.96
1631192934734,8.45
1631192934750,7.58
1631192934765,6.55
1631192934781,5.64
1631192934796,5.06
1631192934812,4.89
1631192934828,5.04
1631192934843,5.29
1631192934859,5.4
1631192934875,5.2
1631192934890,4.7
1631192934906,4.0
1631192934921,3.26
1631192934937,2.58
1631192934953,1.97
1631192934968,1.42
1631192934984,0.88
1631192935000,0.32
1631192935015,-0.28
1631192935031,-0.96
1631192935046,-1.74
1631192935062,-2.58
1631192935078,-3.36
1631192935093,-3.96
1631192935109,-4.29
1631192935125,-4.43
1631192935140,-4.54
1631192935156,-4.89
1631192935171,-5.61
1631192935187,-6.69
1631192935203,-7.96
1631192935218,-9.16
1631192935234,-10.14
1631192935250,-10.87
1631192935265,-11.49
1631192935281,-12.14
1631192935296,-12.91
1631192935312,-13.81
1631192935328,-14.74
1631192935343,-15.6
1631192935359,-16.31
1631192935375,-16.78
1631192935390,-16.85
1631192935406,-16.34
1631192935421,-15.05
1631192935437,-12.95
1631192935453,-10.15
1631192935468,-6.94
1631192935484,-3.73
1631192935500,-0.85
1631192935515,1.48
1631192935531,3.29
1631192935546,4.72
1631192935562,5.92
1631192935578,7.01
1631192935593,7.98
1631192935609,8.78
1631192935625,9.35
1631192935640,9.71
1631192935656,9.93
1631192935671,10.07
1631192935687,10.21
1631192935703,10.34
1631192935718,10.44
1631192935734,10.51
1631192935750,10.55
1631192935765,10.6
1631192935781,10.68
1631192935796,10.78
1631192935812,10.85
1631192935828,10.82
1631192935843,10.66
1631192935859,10.35
1631192935875,9.92
1631192935890,9.38
1631192935906,8.75
1631192935921,8.06
1631192935937,7.34
1631192935953,6.68
1631192935968,6.14
1631192935984,5.76
1631192936000,5.51
1631192936015,5.3
1631192936031,5.03
1631192936046,4.63
1631192936062,4.11
1631192936078,3.53
1631192936093,2.99
1631192936109,2.55
1631192936125,2.21
1631192936140,1.87
1631192936156,1.4
1631192936171,0.7
1631192936187,-0.25
1631192936203,-1.39
1631192936218,-2.55
1631192936234,-3.59
1631192936250,-4.41
1631192936265,-4.98
1631192936281,-5.4
1631192936296,-5.77
1631192936312,-6.22
1631192936328,-6.84
1631192936343,-7.7
1631192936359,-8.85
1631192936375,-10.28
1631192936390,-11.92
1631192936406,-13.6
1631192936421,-15.08
1631192936437,-16.07
1631192936453,-16.37
1631192936468,-15.86
1631192936484,-14.58
1631192936500,-12.66
1631192936515,-10.32
1631192936531,-7.76
1631192936546,-5.17
1631192936562,-2.68
1631192936578,-0.36
1631192936593,1.73
1631192936609,3.55
1631192936625,5.09
1631192936640,6.31
1631192936656,7.21
1631192936671,7.79
1631192936687,8.11
1631192936703,8.23
1631192936718,8.22
1631192936734,8.14
1631192936750,8.06
1631192936765,7.99
1631192936781,7.92
1631192936796,7.86
1631192936812,7.82
1631192936828,7.84
1631192936843,7.95
1631192936859,8.15
1631192936875,8.38
1631192936890,8.52
1631192936906,8.47
1631192936921,8.21
1631192936937,7.77
1631192936953,7.27
1631192936968,6.83
1631192936984,6.5
1631192937000,6.26
1631192937015,6.04
1631192937031,5.74
1631192937046,5.3
1631192937062,4.71
1631192937078,4.02
1631192937093,3.29
1631192937109,2.58
1631192937125,1.93
1631192937140,1.34
1631192937156,0.82
1631192937171,0.31
1631192937187,-0.24
1631192937203,-0.83
1631192937218,-1.46
1631192937234,-2.08
1631192937250,-2.69
1631192937265,-3.28
1631192937281,-3.9
1631192937296,-4.57
1631192937312,-5.27
1631192937328,-5.95
1631192937343,-6.58
1631192937359,-7.21
1631192937375,-7.99
1631192937390,-9.02
1631192937406,-10.31
1631192937421,-11.65
1631192937437,-12.67
1631192937453,-12.98
1631192937468,-12.31
1631192937484,-10.68
1631192937500,-8.33
1631192937515,-5.6
1631192937531,-2.8
1631192937546,-0.12
1631192937562,2.39
1631192937578,4.69
1631192937593,6.72
1631192937609,8.39
1631192937625,9.6
1631192937640,10.33
1631192937656,10.66
1631192937671,10.74
1631192937687,10.74
1631192937703,10.78
1631192937718,10.89
1631192937734,11.03
1631192937750,11.1
1631192937765,11.03
1631192937781,10.79
1631192937796,10.41
1631192937812,9.96
1631192937828,9.54
1631192937843,9.19
1631192937859,8.95
1631192937875,8.77
1631192937890,8.62
1631192937906,8.45
1631192937921,8.23
1631192937937,7.98
1631192937953,7.68
1631192937968,7.33
1631192937984,6.89
1631192938000,6.34
1631192938015,5.64
1631192938031,4.81
1631192938046,3.92
1631192938062,3.02
1631192938078,2.18
1631192938093,1.41
1631192938109,0.69
1631192938125,-0.06
1631192938140,-0.88
1631192938156,-1.79
1631192938171,-2.76
1631192938187,-3.71
1631192938203,-4.63
1631192938218,-5.49
1631192938234,-6.34
1631192938250,-7.21
1631192938265,-8.14
1631192938281,-9.09
1631192938296,-10.03
1631192938312,-10.91
1631192938328,-11.75
1631192938343,-12.59
1631192938359,-13.48
1631192938375,-14.44
1631192938390,-15.4
1631192938406,-16.19
1631192938421,-16.62
1631192938437,-16.48
1631192938453,-15.64
1631192938468,-14.05
1631192938484,-11.77
1631192938500,-8.95
1631192938515,-5.79
1631192938531,-2.54
1631192938546,0.62
1631192938562,3.49
1631192938578,5.92
1631192938593,7.82
1631192938609,9.15
1631192938625,9.94
1631192938640,10.32
1631192938656,10.41
1631192938671,10.37
1631192938687,10.29
1631192938703,10.23
1631192938718,10.16
1631192938734,10.11
1631192938750,10.05
1631192938765,10.02
1631192938781,10.01
1631192938796,9.98
1631192938812,9.88
1631192938828,9.65
1631192938843,9.28
1631192938859,8.84
1631192938875,8.41
1631192938890,8.04
1631192938906,7.72
1631192938921,7.34
1631192938937,6.77
1631192938953,5.97
1631192938968,5.01
1631192938984,4.07
1631192939000,3.32
1631192939015,2.85
1631192939031,2.58
1631192939046,2.35
1631192939062,1.94
1631192939078,1.24
1631192939093,0.27
1631192939109,-0.83
1631192939125,-1.93
1631192939140,-2.89
1631192939156,-3.71
1631192939171,-4.45
1631192939187,-5.2
1631192939203,-6.0
1631192939218,-6.85
1631192939234,-7.7
1631192939250,-8.53
1631192939265,-9.38
1631192939281,-10.33
1631192939296,-11.45
1631192939312,-12.74
1631192939328,-14.11
1631192939343,-15.42
1631192939359,-16.56
1631192939375,-17.49
1631192939390,-18.23
1631192939406,-18.73
1631192939421,-18.88
1631192939437,-18.39
1631192939453,-17.04
1631192939468,-14.71
1631192939484,-11.56
1631192939500,-7.97
1631192939515,-4.38
1631192939531,-1.13
1631192939546,1.69
1631192939562,4.14
1631192939578,6.33
1631192939593,8.28
1631192939609,9.91
1631192939625,11.07
1631192939640,11.69
1631192939656,11.83
1631192939671,11.68
1631192939687,11.4
1631192939703,11.11
1631192939718,10.79
1631192939734,10.36
1631192939750,9.78
1631192939765,9.12
1631192939781,8.56
1631192939796,8.27
1631192939812,8.34
1631192939828,8.66
1631192939843,9.03
1631192939859,9.2
1631192939875,9.02
1631192939890,8.51
1631192939906,7.82
1631192939921,7.13
1631192939937,6.58
1631192939953,6.21
1631192939968,5.96
1631192939984,5.69
1631192940000,5.27
1631192940015,4.58
1631192940031,3.56
1631192940046,2.24
1631192940062,0.74
1631192940078,-0.75
1631192940093,-2.06
1631192940109,-3.07
1631192940125,-3.81
1631192940140,-4.39
1631192940156,-4.92
1631192940171,-5.51
1631192940187,-6.16
1631192940203,-6.85
1631192940218,-7.58
1631192940234,-8.42
1631192940250,-9.42
1631192940265,-10.65
1631192940281,-12.06
1631192940296,-13.52
1631192940312,-14.9
1631192940328,-16.11
1631192940343,-17.07
1631192940359,-17.75
1631192940375,-18.05
1631192940390,-17.79
1631192940406,-16.79
1631192940421,-14.92
1631192940437,-12.24
1631192940453,-8.97
1631192940468,-5.41
1631192940484,-1.91
