timestamp,bvp
1629797528078,5.33
1629797528093,6.98
1629797528109,8.47
1629797528125,9.76
1629797528140,10.78
1629797528156,11.43
1629797528171,11.7
1629797528187,11.61
1629797528203,11.25
1629797528218,10.76
1629797528234,10.26
1629797528250,9.81
1629797528265,9.48
1629797528281,9.28
1629797528296,9.19
1629797528312,9.18
1629797528328,9.18
1629797528343,9.08
1629797528359,8.81
1629797528375,8.35
1629797528390,7.72
1629797528406,6.98
1629797528421,6.16
1629797528437,5.3
1629797528453,4.4
1629797528468,3.49
1629797528484,2.61
1629797528500,1.82
1629797528515,1.12
1629797528531,0.47
1629797528546,-0.26
1629797528562,-1.13
1629797528578,-2.17
1629797528593,-3.32
1629797528609,-4.46
1629797528625,-5.51
1629797528640,-6.46
1629797528656,-7.36
1629797528671,-8.27
1629797528687,-9.24
1629797528703,-10.25
1629797528718,-11.26
1629797528734,-12.21
1629797528750,-13.11
1629797528765,-13.94
1629797528781,-14.71
1629797528796,-15.36
1629797528812,-15.75
1629797528828,-15.68
1629797528843,-15.0
1629797528859,-13.63
1629797528875,-11.63
1629797528890,-9.18
1629797528906,-6.52
1629797528921,-3.85
1629797528937,-1.29
1629797528953,1.14
1629797528968,3.44
1629797528984,5.57
1629797529000,7.44
1629797529015,8.94
1629797529031,9.97
1629797529046,10.54
1629797529062,10.76
1629797529078,10.79
1629797529093,10.75
1629797529109,10.66
1629797529125,10.5
1629797529140,10.19
1629797529156,9.72
1629797529171,9.13
1629797529187,8.55
1629797529203,8.06
1629797529218,7.73
1629797529234,7.52
1629797529250,7.35
1629797529265,7.12
1629797529281,6.74
1629797529296,6.15
1629797529312,5.36
1629797529328,4.4
1629797529343,3.39
1629797529359,2.43
1629797529375,1.61
1629797529390,0.95
1629797529406,0.39
1629797529421,-0.17
1629797529437,-0.86
1629797529453,-1.7
1629797529468,-2.69
1629797529484,-3.76
1629797529500,-4.85
1629797529515,-5.92
1629797529531,-7.01
1629797529546,-8.12
1629797529562,-9.27
1629797529578,-10.42
1629797529593,-11.56
1629797529609,-12.67
1629797529625,-13.77
1629797529640,-14.86
1629797529656,-15.87
1629797529671,-16.69
1629797529687,-17.13
1629797529703,-17.0
1629797529718,-16.15
1629797529734,-14.57
1629797529750,-12.32
1629797529765,-9.55
1629797529781,-6.49
1629797529796,-3.33
1629797529812,-0.24
1629797529828,2.69
1629797529843,5.45
1629797529859,8.04
1629797529875,10.49
1629797529890,12.72
1629797529906,14.63
1629797529921,16.09
1629797529937,16.99
1629797529953,17.35
1629797529968,17.28
1629797529984,16.96
1629797530000,16.59
1629797530015,16.34
1629797530031,16.27
1629797530046,16.34
1629797530062,16.46
1629797530078,16.45
1629797530093,16.19
1629797530109,15.63
1629797530125,14.8
1629797530140,13.83
1629797530156,12.84
1629797530171,11.89
1629797530187,10.96
1629797530203,9.95
1629797530218,8.79
1629797530234,7.46
1629797530250,6.07
1629797530265,4.75
1629797530281,3.61
1629797530296,2.68
1629797530312,1.85
1629797530328,0.95
1629797530343,-0.17
1629797530359,-1.6
1629797530375,-3.28
1629797530390,-5.08
1629797530406,-6.82
1629797530421,-8.37
1629797530437,-9.7
1629797530453,-10.88
1629797530468,-12.05
1629797530484,-13.38
1629797530500,-14.99
1629797530515,-16.91
1629797530531,-19.07
1629797530546,-21.28
1629797530562,-23.29
1629797530578,-24.83
1629797530593,-25.65
1629797530609,-25.57
1629797530625,-24.51
1629797530640,-22.49
1629797530656,-19.64
1629797530671,-16.18
1629797530687,-12.37
1629797530703,-8.49
1629797530718,-4.76
1629797530734,-1.33
1629797530750,1.81
1629797530765,4.67
1629797530781,7.31
1629797530796,9.74
1629797530812,11.87
1629797530828,13.61
1629797530843,14.88
1629797530859,15.7
1629797530875,16.14
1629797530890,16.29
1629797530906,16.23
1629797530921,15.93
1629797530937,15.37
1629797530953,14.54
1629797530968,13.49
1629797530984,12.35
1629797531000,11.29
1629797531015,10.4
1629797531031,9.71
1629797531046,9.11
1629797531062,8.49
1629797531078,7.73
1629797531093,6.76
1629797531109,5.61
1629797531125,4.37
1629797531140,3.11
1629797531156,1.9
1629797531171,0.72
1629797531187,-0.5
1629797531203,-1.87
1629797531218,-3.46
1629797531234,-5.3
1629797531250,-7.32
1629797531265,-9.37
1629797531281,-11.25
1629797531296,-12.79
1629797531312,-13.92
1629797531328,-14.7
1629797531343,-15.25
1629797531359,-15.68
1629797531375,-15.96
1629797531390,-15.93
1629797531406,-15.33
1629797531421,-13.97
1629797531437,-11.83
1629797531453,-9.03
1629797531468,-5.89
1629797531484,-2.74
1629797531500,0.14
1629797531515,2.58
1629797531531,4.55
1629797531546,6.1
1629797531562,7.33
1629797531578,8.38
1629797531593,9.34
1629797531609,10.31
1629797531625,11.32
1629797531640,12.37
1629797531656,13.38
1629797531671,14.2
1629797531687,14.69
1629797531703,14.73
1629797531718,14.29
1629797531734,13.51
1629797531750,12.67
1629797531765,12.12
1629797531781,12.1
1629797531796,12.68
1629797531812,13.64
1629797531828,14.63
1629797531843,15.28
1629797531859,15.41
1629797531875,15.03
1629797531890,14.31
1629797531906,13.45
1629797531921,12.53
1629797531937,11.51
1629797531953,10.27
1629797531968,8.78
1629797531984,7.11
1629797532000,5.49
1629797532015,4.12
1629797532031,3.11
1629797532046,2.4
1629797532062,1.8
1629797532078,1.12
1629797532093,0.26
1629797532109,-0.7
1629797532125,-1.64
1629797532140,-2.4
1629797532156,-2.91
1629797532171,-3.18
1629797532187,-3.24
1629797532203,-3.13
1629797532218,-2.88
1629797532234,-2.52
1629797532250,-2.13
1629797532265,-1.81
1629797532281,-1.65
1629797532296,-1.66
1629797532312,-1.81
1629797532328,-1.99
1629797532343,-2.14
1629797532359,-2.22
1629797532375,-2.26
1629797532390,-2.27
1629797532406,-2.25
1629797532421,-2.17
1629797532437,-1.98
1629797532453,-1.7
1629797532468,-1.4
1629797532484,-1.19
1629797532500,-1.17
1629797532515,-1.36
1629797532531,-1.71
1629797532546,-2.07
1629797532562,-2.29
1629797532578,-2.27
1629797532593,-2.03
1629797532609,-1.72
1629797532625,-1.54
1629797532640,-1.63
1629797532656,-2.06
1629797532671,-2.69
1629797532687,-3.35
1629797532703,-3.85
1629797532718,-4.1
1629797532734,-4.1
1629797532750,-3.93
1629797532765,-3.65
1629797532781,-3.3
1629797532796,-2.9
1629797532812,-2.53
1629797532828,-2.31
1629797532843,-2.37
1629797532859,-2.77
1629797532875,-3.42
1629797532890,-4.13
1629797532906,-4.68
1629797532921,-4.92
1629797532937,-4.89
1629797532953,-4.71
1629797532968,-4.59
1629797532984,-4.63
1629797533000,-4.85
1629797533015,-5.19
1629797533031,-5.51
1629797533046,-5.75
1629797533062,-5.87
1629797533078,-5.85
1629797533093,-5.72
1629797533109,-5.49
1629797533125,-5.19
1629797533140,-4.82
1629797533156,-4.41
1629797533171,-3.96
1629797533187,-3.49
1629797533203,-3.02
1629797533218,-2.56
1629797533234,-2.14
1629797533250,-1.75
1629797533265,-1.38
1629797533281,-0.98
1629797533296,-0.45
1629797533312,0.31
1629797533328,1.39
1629797533343,2.79
1629797533359,4.37
1629797533375,5.92
1629797533390,7.19
1629797533406,7.94
1629797533421,8.1
1629797533437,7.74
1629797533453,7.03
1629797533468,6.21
1629797533484,5.43
1629797533500,4.71
1629797533515,3.93
1629797533531,2.94
1629797533546,1.62
1629797533562,-0.07
1629797533578,-2.03
1629797533593,-4.04
1629797533609,-5.77
1629797533625,-6.9
1629797533640,-7.18
1629797533656,-6.59
1629797533671,-5.35
1629797533687,-3.9
1629797533703,-2.71
1629797533718,-2.13
1629797533734,-2.2
1629797533750,-2.68
1629797533765,-3.22
1629797533781,-3.52
1629797533796,-3.52
1629797533812,-3.39
1629797533828,-3.4
1629797533843,-3.75
1629797533859,-4.42
1629797533875,-5.22
1629797533890,-5.85
1629797533906,-6.11
1629797533921,-5.97
1629797533937,-5.61
1629797533953,-5.29
1629797533968,-5.25
1629797533984,-5.57
1629797534000,-6.19
1629797534015,-6.9
1629797534031,-7.47
1629797534046,-7.73
1629797534062,-7.61
1629797534078,-7.19
1629797534093,-6.59
1629797534109,-5.91
1629797534125,-5.23
1629797534140,-4.56
1629797534156,-3.89
1629797534171,-3.2
1629797534187,-2.53
1629797534203,-1.95
1629797534218,-1.52
1629797534234,-1.26
1629797534250,-1.18
1629797534265,-1.18
1629797534281,-1.17
1629797534296,-1.07
1629797534312,-0.83
1629797534328,-0.41
1629797534343,0.12
1629797534359,0.69
1629797534375,1.19
1629797534390,1.48
1629797534406,1.51
1629797534421,1.31
1629797534437,1.0
1629797534453,0.76
1629797534468,0.77
1629797534484,1.1
1629797534500,1.67
1629797534515,2.31
1629797534531,2.8
1629797534546,3.01
1629797534562,2.92
1629797534578,2.65
1629797534593,2.33
1629797534609,2.02
1629797534625,1.71
1629797534640,1.31
1629797534656,0.78
1629797534671,0.14
1629797534687,-0.47
1629797534703,-0.88
1629797534718,-0.99
1629797534734,-0.82
1629797534750,-0.5
1629797534765,-0.25
1629797534781,-0.21
1629797534796,-0.4
1629797534812,-0.71
1629797534828,-0.96
1629797534843,-1.02
1629797534859,-0.87
1629797534875,-0.56
1629797534890,-0.21
1629797534906,0.06
1629797534921,0.2
1629797534937,0.24
1629797534953,0.21
1629797534968,0.19
1629797534984,0.22
1629797535000,0.34
1629797535015,0.59
1629797535031,0.96
1629797535046,1.47
1629797535062,2.1
1629797535078,2.8
1629797535093,3.52
1629797535109,4.23
1629797535125,4.92
1629797535140,5.68
1629797535156,6.65
1629797535171,7.96
1629797535187,9.69
1629797535203,11.73
1629797535218,13.77
1629797535234,15.41
1629797535250,16.25
1629797535265,16.07
1629797535281,14.96
1629797535296,13.22
1629797535312,11.25
1629797535328,9.39
1629797535343,7.75
1629797535359,6.27
1629797535375,4.81
1629797535390,3.18
1629797535406,1.29
1629797535421,-0.92
1629797535437,-3.51
1629797535453,-6.61
1629797535468,-10.36
1629797535484,-14.84
1629797535500,-19.92
1629797535515,-25.29
1629797535531,-30.51
1629797535546,-35.19
1629797535562,-39.1
1629797535578,-42.16
1629797535593,-44.3
1629797535609,-45.34
1629797535625,-44.94
1629797535640,-42.7
1629797535656,-38.49
1629797535671,-32.58
1629797535687,-25.69
1629797535703,-18.76
1629797535718,-12.63
1629797535734,-7.81
1629797535750,-4.38
1629797535765,-2.09
1629797535781,-0.6
1629797535796,0.42
1629797535812,1.14
1629797535828,1.67
1629797535843,2.05
1629797535859,2.26
1629797535875,2.31
1629797535890,2.17
1629797535906,1.9
1629797535921,1.53
1629797535937,1.11
1629797535953,0.6
1629797535968,-0.09
1629797535984,-1.07
1629797536000,-2.38
1629797536015,-3.84
1629797536031,-5.12
1629797536046,-5.9
1629797536062,-6.09
1629797536078,-5.91
1629797536093,-5.83
1629797536109,-6.32
1629797536125,-7.53
1629797536140,-9.24
1629797536156,-10.86
1629797536171,-11.79
1629797536187,-11.58
1629797536203,-10.09
1629797536218,-7.43
1629797536234,-3.81
1629797536250,0.55
1629797536265,5.36
1629797536281,10.21
1629797536296,14.55
1629797536312,17.86
1629797536328,19.85
1629797536343,20.69
1629797536359,20.95
1629797536375,21.35
1629797536390,22.38
1629797536406,24.04
1629797536421,25.79
1629797536437,26.8
1629797536453,26.32
1629797536468,23.91
1629797536484,19.65
1629797536500,13.94
1629797536515,7.33
1629797536531,0.28
1629797536546,-6.93
1629797536562,-14.14
1629797536578,-21.21
1629797536593,-27.87
1629797536609,-33.68
1629797536625,-38.12
1629797536640,-40.69
1629797536656,-41.15
1629797536671,-39.58
1629797536687,-36.37
1629797536703,-31.93
1629797536718,-26.48
1629797536734,-19.96
1629797536750,-12.16
1629797536765,-3.04
1629797536781,7.03
1629797536796,17.2
1629797536812,26.34
1629797536828,33.35
1629797536843,37.45
1629797536859,38.22
1629797536875,35.64
1629797536890,29.97
1629797536906,21.79
1629797536921,12.02
1629797536937,1.9
1629797536953,-7.19
1629797536968,-14.08
1629797536984,-18.16
1629797537000,-19.58
1629797537015,-19.17
1629797537031,-18.01
1629797537046,-17.06
1629797537062,-16.8
1629797537078,-17.11
1629797537093,-17.45
1629797537109,-17.1
1629797537125,-15.58
1629797537140,-12.78
1629797537156,-9.01
1629797537171,-4.83
1629797537187,-0.78
1629797537203,2.75
1629797537218,5.57
1629797537234,7.58
1629797537250,8.71
1629797537265,8.86
1629797537281,8.03
1629797537296,6.34
1629797537312,4.1
1629797537328,1.76
1629797537343,-0.26
1629797537359,-1.63
1629797537375,-2.21
1629797537390,-2.05
1629797537406,-1.3
1629797537421,-0.19
1629797537437,1.12
1629797537453,2.53
1629797537468,4.04
1629797537484,5.73
1629797537500,7.72
1629797537515,10.06
1629797537531,12.7
1629797537546,15.47
1629797537562,18.12
1629797537578,20.43
1629797537593,22.26
1629797537609,23.66
1629797537625,24.75
1629797537640,25.69
1629797537656,26.54
1629797537671,27.17
1629797537687,27.26
1629797537703,26.35
1629797537718,24.07
1629797537734,20.39
1629797537750,15.79
1629797537765,11.15
1629797537781,7.31
1629797537796,4.65
1629797537812,2.77
1629797537828,0.64
1629797537843,-2.81
1629797537859,-8.13
1629797537875,-15.06
1629797537890,-22.63
1629797537906,-29.74
1629797537921,-35.72
1629797537937,-40.39
1629797537953,-43.96
1629797537968,-46.57
1629797537984,-48.24
1629797538000,-49.04
1629797538015,-49.51
1629797538031,-50.73
1629797538046,-53.9
1629797538062,-59.53
1629797538078,-66.84
1629797538093,-73.81
1629797538109,-77.99
1629797538125,-77.54
1629797538140,-72.03
1629797538156,-62.52
1629797538171,-50.9
1629797538187,-38.97
1629797538203,-27.86
1629797538218,-17.97
1629797538234,-9.24
1629797538250,-1.63
1629797538265,4.77
1629797538281,9.8
1629797538296,13.52
1629797538312,16.27
1629797538328,18.65
1629797538343,21.2
1629797538359,24.2
1629797538375,27.51
1629797538390,30.62
1629797538406,32.84
1629797538421,33.55
1629797538437,32.49
1629797538453,29.83
1629797538468,26.17
1629797538484,22.29
1629797538500,18.83
1629797538515,16.05
1629797538531,13.82
1629797538546,11.76
1629797538562,9.5
1629797538578,6.93
1629797538593,4.22
1629797538609,1.75
1629797538625,-0.12
1629797538640,-1.23
1629797538656,-1.63
1629797538671,-1.6
1629797538687,-1.48
1629797538703,-1.57
1629797538718,-1.98
1629797538734,-2.65
1629797538750,-3.41
1629797538765,-4.03
1629797538781,-4.3
1629797538796,-4.11
1629797538812,-3.37
1629797538828,-2.03
1629797538843,-0.02
1629797538859,2.71
1629797538875,6.17
1629797538890,10.29
1629797538906,14.92
1629797538921,19.91
1629797538937,25.13
1629797538953,30.44
1629797538968,35.64
1629797538984,40.39
1629797539000,44.22
1629797539015,46.68
1629797539031,47.44
1629797539046,46.48
1629797539062,44.05
1629797539078,40.61
1629797539093,36.75
1629797539109,33.01
1629797539125,29.91
1629797539140,27.8
1629797539156,26.86
1629797539171,27.0
1629797539187,27.84
1629797539203,28.8
1629797539218,29.28
1629797539234,28.88
1629797539250,27.53
1629797539265,25.51
1629797539281,23.25
1629797539296,21.16
1629797539312,19.45
1629797539328,18.14
1629797539343,17.07
1629797539359,16.09
1629797539375,15.04
1629797539390,13.83
1629797539406,12.44
1629797539421,10.94
1629797539437,9.45
1629797539453,8.12
1629797539468,7.07
1629797539484,6.26
1629797539500,5.5
1629797539515,4.5
1629797539531,3.03
1629797539546,1.01
1629797539562,-1.43
1629797539578,-4.0
1629797539593,-6.4
1629797539609,-8.48
1629797539625,-10.24
1629797539640,-11.85
1629797539656,-13.45
1629797539671,-15.07
1629797539687,-16.51
1629797539703,-17.43
1629797539718,-17.45
1629797539734,-16.31
1629797539750,-13.97
1629797539765,-10.67
1629797539781,-6.83
1629797539796,-2.95
1629797539812,0.58
1629797539828,3.57
1629797539843,6.0
1629797539859,8.05
1629797539875,9.91
1629797539890,11.72
1629797539906,13.5
1629797539921,15.11
1629797539937,16.38
1629797539953,17.12
1629797539968,17.27
1629797539984,16.94
1629797540000,16.38
1629797540015,15.93
1629797540031,15.95
1629797540046,16.7
1629797540062,18.37
1629797540078,21.03
1629797540093,24.61
1629797540109,28.86
1629797540125,33.33
1629797540140,37.4
1629797540156,40.41
1629797540171,41.9
1629797540187,41.73
1629797540203,40.13
1629797540218,37.56
1629797540234,34.53
1629797540250,31.44
1629797540265,28.55
1629797540281,25.96
1629797540296,23.76
1629797540312,21.96
1629797540328,20.54
1629797540343,19.38
1629797540359,18.33
1629797540375,17.33
1629797540390,16.4
1629797540406,15.68
1629797540421,15.22
1629797540437,14.87
1629797540453,14.26
1629797540468,12.91
1629797540484,10.48
1629797540500,6.98
1629797540515,2.8
1629797540531,-1.5
1629797540546,-5.39
1629797540562,-8.61
1629797540578,-11.25
1629797540593,-13.6
1629797540609,-15.94
1629797540625,-18.38
1629797540640,-20.87
1629797540656,-23.25
1629797540671,-25.43
1629797540687,-27.48
1629797540703,-29.56
1629797540718,-31.82
1629797540734,-34.17
1629797540750,-36.35
1629797540765,-37.96
1629797540781,-38.72
1629797540796,-38.56
1629797540812,-37.67
1629797540828,-36.42
1629797540843,-35.12
1629797540859,-33.97
1629797540875,-33.1
1629797540890,-32.54
1629797540906,-32.26
1629797540921,-32.1
1629797540937,-31.76
1629797540953,-30.86
1629797540968,-29.12
1629797540984,-26.58
1629797541000,-23.64
1629797541015,-20.91
1629797541031,-18.97
1629797541046,-18.06
1629797541062,-17.95
1629797541078,-17.86
1629797541093,-16.71
1629797541109,-13.53
1629797541125,-7.82
1629797541140,0.02
1629797541156,8.63
1629797541171,15.99
1629797541187,20.08
1629797541203,19.58
1629797541218,14.44
1629797541234,5.91
1629797541250,-4.08
1629797541265,-13.65
1629797541281,-21.62
1629797541296,-27.69
1629797541312,-32.13
1629797541328,-35.26
1629797541343,-37.19
1629797541359,-37.87
1629797541375,-37.26
1629797541390,-35.59
1629797541406,-33.37
1629797541421,-31.1
1629797541437,-29.04
1629797541453,-27.04
1629797541468,-24.63
1629797541484,-21.3
1629797541500,-16.81
1629797541515,-11.35
1629797541531,-5.49
1629797541546,-0.0
1629797541562,4.42
1629797541578,7.35
1629797541593,8.71
1629797541609,8.8
1629797541625,8.08
1629797541640,7.09
1629797541656,6.26
1629797541671,5.79
1629797541687,5.64
1629797541703,5.62
1629797541718,5.56
1629797541734,5.37
1629797541750,5.14
1629797541765,5.07
1629797541781,5.44
1629797541796,6.41
1629797541812,8.02
1629797541828,10.18
1629797541843,12.69
1629797541859,15.39
1629797541875,18.18
1629797541890,21.08
1629797541906,24.13
1629797541921,27.33
1629797541937,30.6
1629797541953,33.78
1629797541968,36.61
1629797541984,38.86
1629797542000,40.36
1629797542015,41.03
1629797542031,40.87
1629797542046,39.98
1629797542062,38.5
1629797542078,36.6
1629797542093,34.46
1629797542109,32.29
1629797542125,30.23
1629797542140,28.38
1629797542156,26.74
1629797542171,25.2
1629797542187,23.61
1629797542203,21.82
1629797542218,19.78
1629797542234,17.56
1629797542250,15.29
1629797542265,13.12
1629797542281,11.15
1629797542296,9.45
1629797542312,8.02
1629797542328,6.83
1629797542343,5.81
1629797542359,4.88
1629797542375,3.95
1629797542390,2.94
1629797542406,1.81
1629797542421,0.58
1629797542437,-0.7
1629797542453,-1.92
1629797542468,-3.06
1629797542484,-4.1
1629797542500,-5.06
1629797542515,-5.96
1629797542531,-6.84
1629797542546,-7.68
1629797542562,-8.49
1629797542578,-9.28
1629797542593,-10.03
1629797542609,-10.71
1629797542625,-11.3
1629797542640,-11.75
1629797542656,-12.08
1629797542671,-12.3
1629797542687,-12.48
1629797542703,-12.67
1629797542718,-12.94
1629797542734,-13.33
1629797542750,-13.88
1629797542765,-14.59
1629797542781,-15.36
1629797542796,-16.04
1629797542812,-16.39
1629797542828,-16.27
1629797542843,-15.6
1629797542859,-14.49
1629797542875,-13.11
1629797542890,-11.67
1629797542906,-10.31
1629797542921,-9.05
1629797542937,-7.87
1629797542953,-6.75
1629797542968,-5.67
1629797542984,-4.68
1629797543000,-3.82
1629797543015,-3.07
1629797543031,-2.39
1629797543046,-1.65
1629797543062,-0.79
1629797543078,0.21
1629797543093,1.28
1629797543109,2.33
1629797543125,3.26
1629797543140,4.05
1629797543156,4.75
1629797543171,5.4
1629797543187,6.04
1629797543203,6.59
1629797543218,6.96
1629797543234,7.03
1629797543250,6.8
1629797543265,6.34
1629797543281,5.76
1629797543296,5.17
1629797543312,4.6
1629797543328,4.06
1629797543343,3.5
1629797543359,2.89
1629797543375,2.23
1629797543390,1.49
1629797543406,0.64
1629797543421,-0.31
1629797543437,-1.31
1629797543453,-2.25
1629797543468,-2.98
1629797543484,-3.43
1629797543500,-3.59
1629797543515,-3.57
1629797543531,-3.5
1629797543546,-3.47
1629797543562,-3.51
1629797543578,-3.58
1629797543593,-3.66
1629797543609,-3.78
1629797543625,-3.97
1629797543640,-4.26
1629797543656,-4.62
1629797543671,-4.94
1629797543687,-5.1
1629797543703,-5.01
1629797543718,-4.67
1629797543734,-4.15
1629797543750,-3.61
1629797543765,-3.16
1629797543781,-2.9
1629797543796,-2.86
1629797543812,-3.0
1629797543828,-3.28
1629797543843,-3.61
1629797543859,-3.92
1629797543875,-4.13
1629797543890,-4.15
1629797543906,-3.98
1629797543921,-3.68
1629797543937,-3.36
1629797543953,-3.13
1629797543968,-3.1
1629797543984,-3.3
1629797544000,-3.65
1629797544015,-4.03
1629797544031,-4.31
1629797544046,-4.38
1629797544062,-4.23
1629797544078,-3.91
1629797544093,-3.47
1629797544109,-2.97
1629797544125,-2.44
1629797544140,-1.88
1629797544156,-1.35
1629797544171,-0.92
1629797544187,-0.68
1629797544203,-0.65
1629797544218,-0.81
1629797544234,-1.05
1629797544250,-1.25
1629797544265,-1.3
1629797544281,-1.19
1629797544296,-0.9
1629797544312,-0.5
1629797544328,-0.05
1629797544343,0.35
1629797544359,0.6
1629797544375,0.58
1629797544390,0.23
1629797544406,-0.4
1629797544421,-1.16
1629797544437,-1.84
1629797544453,-2.23
1629797544468,-2.25
1629797544484,-1.93
1629797544500,-1.42
1629797544515,-0.9
1629797544531,-0.52
1629797544546,-0.36
1629797544562,-0.44
1629797544578,-0.71
1629797544593,-1.12
1629797544609,-1.57
1629797544625,-1.99
1629797544640,-2.26
1629797544656,-2.3
1629797544671,-2.08
1629797544687,-1.65
1629797544703,-1.13
1629797544718,-0.7
1629797544734,-0.55
1629797544750,-0.74
1629797544765,-1.24
1629797544781,-1.88
1629797544796,-2.47
1629797544812,-2.83
1629797544828,-2.93
1629797544843,-2.82
1629797544859,-2.63
1629797544875,-2.49
1629797544890,-2.43
1629797544906,-2.37
1629797544921,-2.22
1629797544937,-1.9
1629797544953,-1.45
1629797544968,-0.98
1629797544984,-0.62
1629797545000,-0.41
1629797545015,-0.28
1629797545031,-0.13
1629797545046,0.13
1629797545062,0.48
1629797545078,0.83
1629797545093,1.04
1629797545109,1.09
1629797545125,1.02
1629797545140,0.98
1629797545156,1.02
1629797545171,1.13
1629797545187,1.17
1629797545203,1.04
1629797545218,0.71
1629797545234,0.3
1629797545250,-0.01
1629797545265,-0.11
1629797545281,-0.02
1629797545296,0.15
1629797545312,0.22
1629797545328,0.15
1629797545343,-0.03
1629797545359,-0.19
1629797545375,-0.25
1629797545390,-0.22
1629797545406,-0.18
1629797545421,-0.27
1629797545437,-0.51
1629797545453,-0.86
1629797545468,-1.18
1629797545484,-1.35
1629797545500,-1.34
1629797545515,-1.22
1629797545531,-1.09
1629797545546,-1.02
1629797545562,-1.0
1629797545578,-1.0
1629797545593,-0.97
1629797545609,-0.94
1629797545625,-0.99
1629797545640,-1.21
1629797545656,-1.63
1629797545671,-2.18
1629797545687,-2.66
1629797545703,-2.89
1629797545718,-2.77
1629797545734,-2.33
1629797545750,-1.72
1629797545765,-1.12
1629797545781,-0.65
1629797545796,-0.31
1629797545812,-0.06
1629797545828,0.17
1629797545843,0.34
1629797545859,0.4
1629797545875,0.32
1629797545890,0.12
1629797545906,-0.05
1629797545921,-0.05
1629797545937,0.2
1629797545953,0.65
1629797545968,1.14
1629797545984,1.53
1629797546000,1.72
1629797546015,1.73
1629797546031,1.63
1629797546046,1.52
1629797546062,1.4
1629797546078,1.29
1629797546093,1.14
1629797546109,0.98
1629797546125,0.79
1629797546140,0.58
1629797546156,0.35
1629797546171,0.08
1629797546187,-0.21
1629797546203,-0.45
1629797546218,-0.6
1629797546234,-0.61
1629797546250,-0.54
1629797546265,-0.47
1629797546281,-0.5
1629797546296,-0.67
1629797546312,-0.94
1629797546328,-1.24
1629797546343,-1.48
1629797546359,-1.59
1629797546375,-1.58
1629797546390,-1.5
1629797546406,-1.43
1629797546421,-1.42
1629797546437,-1.5
1629797546453,-1.67
1629797546468,-1.89
1629797546484,-2.13
1629797546500,-2.31
1629797546515,-2.41
1629797546531,-2.4
1629797546546,-2.26
1629797546562,-2.03
1629797546578,-1.74
1629797546593,-1.48
1629797546609,-1.33
1629797546625,-1.37
1629797546640,-1.59
1629797546656,-1.9
1629797546671,-2.16
1629797546687,-2.19
1629797546703,-1.92
1629797546718,-1.36
1629797546734,-0.64
1629797546750,0.11
1629797546765,0.74
1629797546781,1.18
1629797546796,1.41
1629797546812,1.5
1629797546828,1.49
1629797546843,1.44
1629797546859,1.36
1629797546875,1.24
1629797546890,1.05
1629797546906,0.79
1629797546921,0.5
1629797546937,0.27
1629797546953,0.2
1629797546968,0.34
1629797546984,0.67
1629797547000,1.06
1629797547015,1.34
1629797547031,1.42
1629797547046,1.27
1629797547062,0.99
1629797547078,0.7
1629797547093,0.46
1629797547109,0.3
1629797547125,0.17
1629797547140,0.01
1629797547156,-0.19
1629797547171,-0.36
1629797547187,-0.44
1629797547203,-0.38
1629797547218,-0.2
1629797547234,0.0
1629797547250,0.1
1629797547265,-0.03
1629797547281,-0.39
1629797547296,-0.89
1629797547312,-1.36
1629797547328,-1.64
1629797547343,-1.61
1629797547359,-1.3
1629797547375,-0.86
1629797547390,-0.5
1629797547406,-0.4
1629797547421,-0.62
1629797547437,-1.08
1629797547453,-1.63
1629797547468,-2.13
1629797547484,-2.48
1629797547500,-2.69
1629797547515,-2.78
1629797547531,-2.79
1629797547546,-2.72
1629797547562,-2.52
1629797547578,-2.19
1629797547593,-1.74
1629797547609,-1.26
1629797547625,-0.85
1629797547640,-0.6
1629797547656,-0.52
1629797547671,-0.53
1629797547687,-0.52
1629797547703,-0.38
1629797547718,-0.06
1629797547734,0.41
1629797547750,0.94
1629797547765,1.43
1629797547781,1.83
1629797547796,2.1
1629797547812,2.23
1629797547828,2.2
1629797547843,2.03
1629797547859,1.74
1629797547875,1.4
1629797547890,1.12
1629797547906,0.98
1629797547921,0.98
1629797547937,1.07
1629797547953,1.14
1629797547968,1.12
1629797547984,0.99
1629797548000,0.78
1629797548015,0.55
1629797548031,0.35
1629797548046,0.24
1629797548062,0.25
1629797548078,0.39
1629797548093,0.64
1629797548109,0.91
1629797548125,1.1
1629797548140,1.12
1629797548156,0.95
1629797548171,0.65
1629797548187,0.3
1629797548203,-0.02
1629797548218,-0.31
1629797548234,-0.6
1629797548250,-0.9
1629797548265,-1.17
1629797548281,-1.32
1629797548296,-1.3
1629797548312,-1.09
1629797548328,-0.78
1629797548343,-0.5
1629797548359,-0.39
1629797548375,-0.48
1629797548390,-0.72
1629797548406,-1.0
1629797548421,-1.24
1629797548437,-1.4
1629797548453,-1.49
1629797548468,-1.57
1629797548484,-1.65
1629797548500,-1.71
1629797548515,-1.69
1629797548531,-1.57
1629797548546,-1.34
1629797548562,-1.04
1629797548578,-0.72
1629797548593,-0.42
1629797548609,-0.15
1629797548625,0.1
1629797548640,0.32
1629797548656,0.48
1629797548671,0.52
1629797548687,0.47
1629797548703,0.38
1629797548718,0.34
1629797548734,0.43
1629797548750,0.67
1629797548765,0.98
1629797548781,1.22
1629797548796,1.3
1629797548812,1.17
1629797548828,0.9
1629797548843,0.63
1629797548859,0.47
1629797548875,0.5
1629797548890,0.68
1629797548906,0.9
1629797548921,1.07
1629797548937,1.15
1629797548953,1.14
1629797548968,1.06
1629797548984,0.94
1629797549000,0.8
1629797549015,0.64
1629797549031,0.49
1629797549046,0.38
1629797549062,0.33
1629797549078,0.31
1629797549093,0.26
1629797549109,0.14
1629797549125,-0.05
1629797549140,-0.27
1629797549156,-0.4
1629797549171,-0.37
1629797549187,-0.18
1629797549203,0.11
1629797549218,0.39
1629797549234,0.53
1629797549250,0.48
1629797549265,0.26
1629797549281,-0.06
1629797549296,-0.4
1629797549312,-0.68
1629797549328,-0.88
1629797549343,-1.0
1629797549359,-1.09
1629797549375,-1.17
1629797549390,-1.26
1629797549406,-1.36
1629797549421,-1.45
1629797549437,-1.53
1629797549453,-1.58
1629797549468,-1.62
1629797549484,-1.61
1629797549500,-1.53
1629797549515,-1.38
1629797549531,-1.19
1629797549546,-1.0
1629797549562,-0.89
1629797549578,-0.82
1629797549593,-0.7
1629797549609,-0.45
1629797549625,-0.0
1629797549640,0.55
1629797549656,1.06
1629797549671,1.34
1629797549687,1.33
1629797549703,1.11
1629797549718,0.89
1629797549734,0.85
1629797549750,1.06
1629797549765,1.42
1629797549781,1.77
1629797549796,1.96
1629797549812,1.92
1629797549828,1.71
1629797549843,1.42
1629797549859,1.12
1629797549875,0.86
1629797549890,0.64
1629797549906,0.45
1629797549921,0.31
1629797549937,0.25
1629797549953,0.28
1629797549968,0.38
1629797549984,0.52
1629797550000,0.65
1629797550015,0.7
1629797550031,0.63
1629797550046,0.38
1629797550062,-0.02
1629797550078,-0.48
1629797550093,-0.87
1629797550109,-1.03
1629797550125,-0.88
1629797550140,-0.49
1629797550156,-0.07
1629797550171,0.18
1629797550187,0.14
1629797550203,-0.15
1629797550218,-0.53
1629797550234,-0.82
1629797550250,-0.95
1629797550265,-0.95
1629797550281,-0.94
1629797550296,-1.03
1629797550312,-1.22
1629797550328,-1.43
1629797550343,-1.54
1629797550359,-1.48
1629797550375,-1.27
1629797550390,-1.05
1629797550406,-0.97
1629797550421,-1.1
1629797550437,-1.45
1629797550453,-1.88
1629797550468,-2.25
1629797550484,-2.39
1629797550500,-2.24
1629797550515,-1.81
1629797550531,-1.21
1629797550546,-0.56
1629797550562,0.01
1629797550578,0.43
1629797550593,0.72
1629797550609,0.9
1629797550625,1.03
1629797550640,1.15
1629797550656,1.27
1629797550671,1.39
1629797550687,1.49
1629797550703,1.56
1629797550718,1.59
1629797550734,1.59
1629797550750,1.58
1629797550765,1.54
1629797550781,1.48
1629797550796,1.39
1629797550812,1.26
1629797550828,1.12
1629797550843,0.99
1629797550859,0.87
1629797550875,0.79
1629797550890,0.77
1629797550906,0.78
1629797550921,0.79
1629797550937,0.77
1629797550953,0.67
1629797550968,0.47
1629797550984,0.24
1629797551000,0.03
1629797551015,-0.1
1629797551031,-0.14
1629797551046,-0.12
1629797551062,-0.12
1629797551078,-0.19
1629797551093,-0.31
1629797551109,-0.45
1629797551125,-0.54
1629797551140,-0.56
1629797551156,-0.51
1629797551171,-0.43
1629797551187,-0.36
1629797551203,-0.32
1629797551218,-0.26
1629797551234,-0.17
1629797551250,-0.01
1629797551265,0.16
1629797551281,0.26
1629797551296,0.23
1629797551312,0.01
1629797551328,-0.36
1629797551343,-0.77
1629797551359,-1.09
1629797551375,-1.24
1629797551390,-1.23
1629797551406,-1.17
1629797551421,-1.17
1629797551437,-1.31
1629797551453,-1.55
1629797551468,-1.8
1629797551484,-1.95
1629797551500,-1.97
1629797551515,-1.86
1629797551531,-1.69
1629797551546,-1.5
1629797551562,-1.3
1629797551578,-1.04
1629797551593,-0.66
1629797551609,-0.17
1629797551625,0.38
1629797551640,0.9
1629797551656,1.29
1629797551671,1.55
1629797551687,1.68
1629797551703,1.75
1629797551718,1.8
1629797551734,1.87
1629797551750,1.94
1629797551765,1.99
1629797551781,2.01
1629797551796,1.98
1629797551812,1.89
1629797551828,1.72
1629797551843,1.47
1629797551859,1.17
1629797551875,0.86
1629797551890,0.59
1629797551906,0.39
1629797551921,0.24
1629797551937,0.11
1629797551953,-0.01
1629797551968,-0.1
1629797551984,-0.12
1629797552000,-0.01
1629797552015,0.21
1629797552031,0.48
1629797552046,0.68
1629797552062,0.71
1629797552078,0.55
1629797552093,0.26
1629797552109,-0.05
1629797552125,-0.27
1629797552140,-0.34
1629797552156,-0.3
1629797552171,-0.24
1629797552187,-0.23
1629797552203,-0.32
1629797552218,-0.44
1629797552234,-0.52
1629797552250,-0.47
1629797552265,-0.3
1629797552281,-0.06
1629797552296,0.12
1629797552312,0.15
1629797552328,0.0
1629797552343,-0.26
1629797552359,-0.55
1629797552375,-0.79
1629797552390,-0.99
1629797552406,-1.19
1629797552421,-1.48
1629797552437,-1.82
1629797552453,-2.15
1629797552468,-2.3
1629797552484,-2.17
1629797552500,-1.76
1629797552515,-1.19
1629797552531,-0.65
1629797552546,-0.28
1629797552562,-0.13
1629797552578,-0.11
1629797552593,-0.1
1629797552609,0.02
1629797552625,0.27
1629797552640,0.57
1629797552656,0.78
1629797552671,0.85
1629797552687,0.76
1629797552703,0.6
1629797552718,0.52
1629797552734,0.58
1629797552750,0.79
1629797552765,1.09
1629797552781,1.35
1629797552796,1.49
1629797552812,1.5
1629797552828,1.4
1629797552843,1.27
1629797552859,1.14
1629797552875,0.98
1629797552890,0.79
1629797552906,0.58
1629797552921,0.4
1629797552937,0.35
1629797552953,0.49
1629797552968,0.8
1629797552984,1.17
1629797553000,1.46
1629797553015,1.52
1629797553031,1.33
1629797553046,0.95
1629797553062,0.49
1629797553078,0.1
1629797553093,-0.14
1629797553109,-0.15
1629797553125,0.02
1629797553140,0.31
1629797553156,0.59
1629797553171,0.73
1629797553187,0.65
1629797553203,0.38
1629797553218,-0.02
1629797553234,-0.43
1629797553250,-0.74
1629797553265,-0.91
1629797553281,-0.95
1629797553296,-0.93
1629797553312,-0.91
1629797553328,-0.95
1629797553343,-1.05
1629797553359,-1.21
1629797553375,-1.41
1629797553390,-1.61
1629797553406,-1.75
1629797553421,-1.76
1629797553437,-1.58
1629797553453,-1.22
1629797553468,-0.71
1629797553484,-0.18
1629797553500,0.23
1629797553515,0.39
1629797553531,0.23
1629797553546,-0.16
1629797553562,-0.64
1629797553578,-1.0
1629797553593,-1.09
1629797553609,-0.83
1629797553625,-0.3
1629797553640,0.36
1629797553656,1.01
1629797553671,1.52
1629797553687,1.83
1629797553703,1.93
1629797553718,1.81
1629797553734,1.48
1629797553750,1.01
1629797553765,0.54
1629797553781,0.21
1629797553796,0.17
1629797553812,0.42
1629797553828,0.86
1629797553843,1.3
1629797553859,1.57
1629797553875,1.57
1629797553890,1.33
1629797553906,0.97
1629797553921,0.62
1629797553937,0.38
1629797553953,0.25
1629797553968,0.22
1629797553984,0.22
1629797554000,0.22
1629797554015,0.17
1629797554031,0.07
1629797554046,-0.08
1629797554062,-0.26
1629797554078,-0.45
1629797554093,-0.57
1629797554109,-0.6
1629797554125,-0.52
1629797554140,-0.37
1629797554156,-0.2
1629797554171,-0.1
1629797554187,-0.11
1629797554203,-0.22
1629797554218,-0.38
1629797554234,-0.52
1629797554250,-0.58
1629797554265,-0.56
1629797554281,-0.48
1629797554296,-0.41
1629797554312,-0.44
1629797554328,-0.59
1629797554343,-0.84
1629797554359,-1.11
1629797554375,-1.33
1629797554390,-1.44
1629797554406,-1.45
1629797554421,-1.43
1629797554437,-1.44
1629797554453,-1.51
1629797554468,-1.6
1629797554484,-1.63
1629797554500,-1.55
1629797554515,-1.37
1629797554531,-1.15
1629797554546,-0.96
1629797554562,-0.83
1629797554578,-0.74
1629797554593,-0.64
1629797554609,-0.45
1629797554625,-0.18
1629797554640,0.15
1629797554656,0.49
1629797554671,0.79
1629797554687,1.04
1629797554703,1.24
1629797554718,1.44
1629797554734,1.63
1629797554750,1.79
1629797554765,1.87
1629797554781,1.82
1629797554796,1.62
1629797554812,1.27
1629797554828,0.85
1629797554843,0.48
1629797554859,0.23
1629797554875,0.14
1629797554890,0.18
1629797554906,0.28
1629797554921,0.36
1629797554937,0.4
1629797554953,0.41
1629797554968,0.42
1629797554984,0.46
1629797555000,0.53
1629797555015,0.62
1629797555031,0.68
1629797555046,0.67
1629797555062,0.56
1629797555078,0.37
1629797555093,0.12
1629797555109,-0.13
1629797555125,-0.31
1629797555140,-0.37
1629797555156,-0.32
1629797555171,-0.19
1629797555187,-0.05
1629797555203,0.05
1629797555218,0.1
1629797555234,0.11
1629797555250,0.11
1629797555265,0.1
1629797555281,0.08
1629797555296,0.01
1629797555312,-0.15
1629797555328,-0.4
1629797555343,-0.71
1629797555359,-1.05
1629797555375,-1.4
1629797555390,-1.74
1629797555406,-2.04
1629797555421,-2.26
1629797555437,-2.31
1629797555453,-2.13
1629797555468,-1.7
1629797555484,-1.11
1629797555500,-0.49
1629797555515,-0.0
1629797555531,0.22
1629797555546,0.15
1629797555562,-0.13
1629797555578,-0.48
1629797555593,-0.73
1629797555609,-0.76
1629797555625,-0.56
1629797555640,-0.17
1629797555656,0.3
1629797555671,0.74
1629797555687,1.09
1629797555703,1.32
1629797555718,1.44
1629797555734,1.47
1629797555750,1.41
1629797555765,1.3
1629797555781,1.2
1629797555796,1.16
1629797555812,1.27
1629797555828,1.53
1629797555843,1.87
1629797555859,2.15
1629797555875,2.25
1629797555890,2.08
1629797555906,1.71
1629797555921,1.24
1629797555937,0.81
1629797555953,0.5
1629797555968,0.3
1629797555984,0.13
1629797556000,-0.05
1629797556015,-0.25
1629797556031,-0.4
1629797556046,-0.44
1629797556062,-0.33
1629797556078,-0.1
1629797556093,0.15
1629797556109,0.34
1629797556125,0.38
1629797556140,0.3
1629797556156,0.16
1629797556171,0.05
1629797556187,0.03
1629797556203,0.11
1629797556218,0.24
1629797556234,0.33
1629797556250,0.3
1629797556265,0.12
1629797556281,-0.15
1629797556296,-0.44
1629797556312,-0.69
1629797556328,-0.9
1629797556343,-1.13
1629797556359,-1.4
1629797556375,-1.7
1629797556390,-1.92
1629797556406,-1.97
1629797556421,-1.79
1629797556437,-1.46
1629797556453,-1.09
1629797556468,-0.84
1629797556484,-0.78
1629797556500,-0.91
1629797556515,-1.14
1629797556531,-1.36
1629797556546,-1.49
1629797556562,-1.46
1629797556578,-1.26
1629797556593,-0.88
1629797556609,-0.35
1629797556625,0.23
1629797556640,0.76
1629797556656,1.12
1629797556671,1.24
1629797556687,1.15
1629797556703,0.95
1629797556718,0.77
1629797556734,0.73
1629797556750,0.85
1629797556765,1.07
1629797556781,1.29
1629797556796,1.42
1629797556812,1.42
1629797556828,1.31
1629797556843,1.15
1629797556859,0.99
1629797556875,0.82
1629797556890,0.67
1629797556906,0.51
1629797556921,0.38
1629797556937,0.32
1629797556953,0.35
1629797556968,0.46
1629797556984,0.58
1629797557000,0.65
1629797557015,0.62
1629797557031,0.52
1629797557046,0.43
1629797557062,0.45
1629797557078,0.6
1629797557093,0.85
1629797557109,1.09
1629797557125,1.19
1629797557140,1.08
1629797557156,0.77
1629797557171,0.36
1629797557187,-0.05
1629797557203,-0.37
1629797557218,-0.59
1629797557234,-0.75
1629797557250,-0.91
1629797557265,-1.08
1629797557281,-1.25
1629797557296,-1.39
1629797557312,-1.48
1629797557328,-1.54
1629797557343,-1.6
1629797557359,-1.69
1629797557375,-1.82
1629797557390,-1.93
1629797557406,-2.0
1629797557421,-1.98
1629797557437,-1.88
1629797557453,-1.75
1629797557468,-1.59
1629797557484,-1.42
1629797557500,-1.19
1629797557515,-0.85
1629797557531,-0.36
1629797557546,0.27
1629797557562,0.93
1629797557578,1.49
1629797557593,1.8
1629797557609,1.79
1629797557625,1.5
1629797557640,1.07
1629797557656,0.7
1629797557671,0.54
1629797557687,0.63
1629797557703,0.87
1629797557718,1.11
1629797557734,1.24
1629797557750,1.24
1629797557765,1.18
1629797557781,1.13
1629797557796,1.14
1629797557812,1.17
1629797557828,1.15
1629797557843,1.06
1629797557859,0.91
1629797557875,0.78
1629797557890,0.72
1629797557906,0.74
1629797557921,0.79
1629797557937,0.8
1629797557953,0.71
1629797557968,0.53
1629797557984,0.31
1629797558000,0.1
1629797558015,-0.06
1629797558031,-0.17
1629797558046,-0.22
1629797558062,-0.26
1629797558078,-0.3
1629797558093,-0.35
1629797558109,-0.42
1629797558125,-0.47
1629797558140,-0.48
1629797558156,-0.42
1629797558171,-0.32
1629797558187,-0.2
1629797558203,-0.12
1629797558218,-0.11
1629797558234,-0.18
1629797558250,-0.3
1629797558265,-0.43
1629797558281,-0.55
1629797558296,-0.64
1629797558312,-0.73
1629797558328,-0.86
1629797558343,-1.03
1629797558359,-1.23
1629797558375,-1.43
1629797558390,-1.56
1629797558406,-1.62
1629797558421,-1.59
1629797558437,-1.5
1629797558453,-1.38
1629797558468,-1.21
1629797558484,-1.01
1629797558500,-0.76
1629797558515,-0.5
1629797558531,-0.28
1629797558546,-0.14
1629797558562,-0.09
1629797558578,-0.09
1629797558593,-0.09
1629797558609,-0.02
1629797558625,0.13
1629797558640,0.35
1629797558656,0.57
1629797558671,0.76
1629797558687,0.89
1629797558703,0.96
1629797558718,1.01
1629797558734,1.06
1629797558750,1.12
1629797558765,1.18
1629797558781,1.21
1629797558796,1.17
1629797558812,1.04
1629797558828,0.81
1629797558843,0.51
1629797558859,0.21
1629797558875,-0.01
1629797558890,-0.09
1629797558906,0.02
1629797558921,0.29
1629797558937,0.64
1629797558953,0.98
1629797558968,1.19
1629797558984,1.21
1629797559000,1.02
1629797559015,0.65
1629797559031,0.21
1629797559046,-0.2
1629797559062,-0.46
1629797559078,-0.52
1629797559093,-0.42
1629797559109,-0.22
1629797559125,-0.05
1629797559140,0.05
1629797559156,0.04
1629797559171,-0.01
1629797559187,-0.05
1629797559203,-0.04
1629797559218,0.01
1629797559234,0.04
1629797559250,-0.0
1629797559265,-0.17
1629797559281,-0.43
1629797559296,-0.72
1629797559312,-0.94
1629797559328,-1.01
1629797559343,-0.92
1629797559359,-0.73
1629797559375,-0.53
1629797559390,-0.43
1629797559406,-0.49
1629797559421,-0.71
1629797559437,-1.03
1629797559453,-1.34
1629797559468,-1.57
1629797559484,-1.69
1629797559500,-1.72
1629797559515,-1.74
1629797559531,-1.76
1629797559546,-1.78
1629797559562,-1.73
1629797559578,-1.53
1629797559593,-1.11
1629797559609,-0.5
1629797559625,0.2
1629797559640,0.86
1629797559656,1.34
1629797559671,1.56
1629797559687,1.53
1629797559703,1.34
1629797559718,1.09
1629797559734,0.89
1629797559750,0.81
1629797559765,0.88
1629797559781,1.08
1629797559796,1.36
1629797559812,1.65
1629797559828,1.83
1629797559843,1.79
1629797559859,1.47
1629797559875,0.93
1629797559890,0.31
1629797559906,-0.21
1629797559921,-0.48
1629797559937,-0.46
1629797559953,-0.24
1629797559968,0.06
1629797559984,0.32
1629797560000,0.51
1629797560015,0.65
1629797560031,0.77
1629797560046,0.89
1629797560062,0.97
1629797560078,0.96
1629797560093,0.84
1629797560109,0.65
1629797560125,0.44
1629797560140,0.28
1629797560156,0.18
1629797560171,0.11
1629797560187,0.05
1629797560203,-0.02
1629797560218,-0.1
1629797560234,-0.16
1629797560250,-0.17
1629797560265,-0.15
1629797560281,-0.11
1629797560296,-0.08
1629797560312,-0.1
1629797560328,-0.15
1629797560343,-0.19
1629797560359,-0.2
1629797560375,-0.22
1629797560390,-0.31
1629797560406,-0.56
1629797560421,-0.98
1629797560437,-1.48
1629797560453,-1.92
1629797560468,-2.11
1629797560484,-1.99
1629797560500,-1.65
1629797560515,-1.23
1629797560531,-0.91
1629797560546,-0.74
1629797560562,-0.65
1629797560578,-0.52
1629797560593,-0.27
1629797560609,0.1
1629797560625,0.46
1629797560640,0.66
1629797560656,0.66
1629797560671,0.53
1629797560687,0.43
1629797560703,0.52
1629797560718,0.85
1629797560734,1.35
1629797560750,1.84
1629797560765,2.13
1629797560781,2.13
1629797560796,1.84
1629797560812,1.39
1629797560828,0.91
1629797560843,0.53
1629797560859,0.28
1629797560875,0.18
1629797560890,0.17
1629797560906,0.24
1629797560921,0.36
1629797560937,0.51
1629797560953,0.63
1629797560968,0.68
1629797560984,0.59
1629797561000,0.34
1629797561015,-0.0
1629797561031,-0.31
1629797561046,-0.43
1629797561062,-0.29
1629797561078,0.08
1629797561093,0.54
1629797561109,0.91
1629797561125,1.05
1629797561140,0.94
1629797561156,0.64
1629797561171,0.25
1629797561187,-0.17
1629797561203,-0.57
1629797561218,-0.92
1629797561234,-1.17
1629797561250,-1.25
1629797561265,-1.09
1629797561281,-0.73
1629797561296,-0.3
1629797561312,0.04
1629797561328,0.12
1629797561343,-0.09
1629797561359,-0.47
1629797561375,-0.85
1629797561390,-1.09
1629797561406,-1.15
1629797561421,-1.12
1629797561437,-1.14
1629797561453,-1.28
1629797561468,-1.54
1629797561484,-1.77
1629797561500,-1.85
1629797561515,-1.73
1629797561531,-1.44
1629797561546,-1.11
1629797561562,-0.86
1629797561578,-0.73
1629797561593,-0.7
1629797561609,-0.67
1629797561625,-0.56
1629797561640,-0.33
1629797561656,-0.01
1629797561671,0.36
1629797561687,0.7
1629797561703,0.96
1629797561718,1.12
1629797561734,1.15
1629797561750,1.07
1629797561765,0.94
1629797561781,0.83
1629797561796,0.78
1629797561812,0.78
1629797561828,0.78
1629797561843,0.74
1629797561859,0.66
1629797561875,0.6
1629797561890,0.65
1629797561906,0.84
1629797561921,1.09
1629797561937,1.29
1629797561953,1.31
1629797561968,1.16
1629797561984,0.93
1629797562000,0.77
1629797562015,0.76
1629797562031,0.9
1629797562046,1.07
1629797562062,1.13
1629797562078,1.02
1629797562093,0.78
1629797562109,0.52
1629797562125,0.35
1629797562140,0.3
1629797562156,0.35
1629797562171,0.4
1629797562187,0.37
1629797562203,0.22
1629797562218,-0.02
1629797562234,-0.28
1629797562250,-0.47
1629797562265,-0.54
1629797562281,-0.48
1629797562296,-0.34
1629797562312,-0.21
1629797562328,-0.16
1629797562343,-0.22
1629797562359,-0.37
1629797562375,-0.6
1629797562390,-0.88
1629797562406,-1.2
1629797562421,-1.56
1629797562437,-1.93
1629797562453,-2.27
1629797562468,-2.5
1629797562484,-2.57
1629797562500,-2.41
1629797562515,-2.01
1629797562531,-1.45
1629797562546,-0.84
1629797562562,-0.34
1629797562578,-0.06
1629797562593,0.01
1629797562609,-0.07
1629797562625,-0.15
1629797562640,-0.14
1629797562656,-0.04
1629797562671,0.05
1629797562687,0.04
1629797562703,-0.08
1629797562718,-0.23
1629797562734,-0.27
1629797562750,-0.1
1629797562765,0.24
1629797562781,0.62
1629797562796,0.89
1629797562812,0.96
1629797562828,0.85
1629797562843,0.66
1629797562859,0.49
1629797562875,0.4
1629797562890,0.39
1629797562906,0.46
1629797562921,0.62
1629797562937,0.84
1629797562953,1.09
1629797562968,1.26
1629797562984,1.28
1629797563000,1.11
1629797563015,0.83
1629797563031,0.55
1629797563046,0.39
1629797563062,0.39
1629797563078,0.48
1629797563093,0.59
1629797563109,0.63
1629797563125,0.61
1629797563140,0.56
1629797563156,0.54
1629797563171,0.57
1629797563187,0.61
1629797563203,0.65
1629797563218,0.66
1629797563234,0.6
1629797563250,0.46
1629797563265,0.24
1629797563281,-0.05
1629797563296,-0.35
1629797563312,-0.61
1629797563328,-0.75
1629797563343,-0.73
1629797563359,-0.57
1629797563375,-0.32
1629797563390,-0.09
1629797563406,0.01
1629797563421,-0.07
1629797563437,-0.32
1629797563453,-0.66
1629797563468,-0.99
1629797563484,-1.21
1629797563500,-1.29
1629797563515,-1.28
1629797563531,-1.25
1629797563546,-1.31
1629797563562,-1.47
1629797563578,-1.68
1629797563593,-1.84
1629797563609,-1.86
1629797563625,-1.69
1629797563640,-1.35
1629797563656,-0.94
1629797563671,-0.54
1629797563687,-0.17
1629797563703,0.15
1629797563718,0.47
1629797563734,0.79
1629797563750,1.08
1629797563765,1.28
1629797563781,1.34
1629797563796,1.25
1629797563812,1.02
1629797563828,0.75
1629797563843,0.48
1629797563859,0.29
1629797563875,0.2
1629797563890,0.2
1629797563906,0.28
1629797563921,0.41
1629797563937,0.56
1629797563953,0.69
1629797563968,0.76
1629797563984,0.76
1629797564000,0.69
1629797564015,0.61
1629797564031,0.55
1629797564046,0.56
1629797564062,0.64
1629797564078,0.75
1629797564093,0.85
1629797564109,0.91
1629797564125,0.92
1629797564140,0.88
1629797564156,0.81
1629797564171,0.7
1629797564187,0.54
1629797564203,0.32
1629797564218,0.08
1629797564234,-0.11
1629797564250,-0.18
1629797564265,-0.07
1629797564281,0.18
1629797564296,0.48
1629797564312,0.72
1629797564328,0.8
1629797564343,0.72
1629797564359,0.49
1629797564375,0.16
1629797564390,-0.22
1629797564406,-0.61
1629797564421,-0.97
1629797564437,-1.21
1629797564453,-1.27
1629797564468,-1.13
1629797564484,-0.86
1629797564500,-0.61
1629797564515,-0.52
1629797564531,-0.67
1629797564546,-0.98
1629797564562,-1.32
1629797564578,-1.54
1629797564593,-1.57
1629797564609,-1.4
1629797564625,-1.12
1629797564640,-0.8
1629797564656,-0.47
1629797564671,-0.14
1629797564687,0.2
1629797564703,0.53
1629797564718,0.79
1629797564734,0.93
1629797564750,0.94
1629797564765,0.84
1629797564781,0.7
1629797564796,0.59
1629797564812,0.54
1629797564828,0.57
1629797564843,0.63
1629797564859,0.65
1629797564875,0.59
1629797564890,0.46
1629797564906,0.33
1629797564921,0.27
1629797564937,0.32
1629797564953,0.46
1629797564968,0.62
1629797564984,0.72
1629797565000,0.72
1629797565015,0.65
1629797565031,0.56
1629797565046,0.49
1629797565062,0.44
1629797565078,0.38
1629797565093,0.29
1629797565109,0.18
1629797565125,0.08
1629797565140,0.02
1629797565156,-0.01
1629797565171,-0.03
1629797565187,-0.08
1629797565203,-0.17
1629797565218,-0.3
1629797565234,-0.45
1629797565250,-0.6
1629797565265,-0.69
1629797565281,-0.72
1629797565296,-0.66
1629797565312,-0.53
1629797565328,-0.36
1629797565343,-0.18
1629797565359,-0.02
1629797565375,0.11
1629797565390,0.22
1629797565406,0.28
1629797565421,0.27
1629797565437,0.12
1629797565453,-0.18
1629797565468,-0.6
1629797565484,-1.04
1629797565500,-1.34
1629797565515,-1.39
1629797565531,-1.19
1629797565546,-0.84
1629797565562,-0.48
1629797565578,-0.27
1629797565593,-0.26
1629797565609,-0.41
1629797565625,-0.65
1629797565640,-0.86
1629797565656,-0.98
1629797565671,-0.99
1629797565687,-0.9
1629797565703,-0.7
1629797565718,-0.43
1629797565734,-0.11
1629797565750,0.2
1629797565765,0.5
1629797565781,0.77
1629797565796,0.99
1629797565812,1.15
1629797565828,1.25
1629797565843,1.28
1629797565859,1.25
1629797565875,1.21
1629797565890,1.16
1629797565906,1.12
1629797565921,1.11
1629797565937,1.1
1629797565953,1.08
1629797565968,1.05
1629797565984,1.02
1629797566000,1.0
1629797566015,0.97
1629797566031,0.89
1629797566046,0.74
1629797566062,0.52
1629797566078,0.28
1629797566093,0.06
1629797566109,-0.11
1629797566125,-0.2
1629797566140,-0.24
1629797566156,-0.25
1629797566171,-0.24
1629797566187,-0.21
1629797566203,-0.16
1629797566218,-0.08
1629797566234,0.03
1629797566250,0.14
1629797566265,0.2
1629797566281,0.16
1629797566296,0.0
1629797566312,-0.29
1629797566328,-0.69
1629797566343,-1.13
1629797566359,-1.53
1629797566375,-1.8
1629797566390,-1.88
1629797566406,-1.74
1629797566421,-1.44
1629797566437,-1.07
1629797566453,-0.75
1629797566468,-0.56
1629797566484,-0.55
1629797566500,-0.7
1629797566515,-0.92
1629797566531,-1.12
1629797566546,-1.24
1629797566562,-1.28
1629797566578,-1.28
1629797566593,-1.28
1629797566609,-1.29
1629797566625,-1.29
1629797566640,-1.24
1629797566656,-1.11
1629797566671,-0.93
1629797566687,-0.74
1629797566703,-0.54
1629797566718,-0.3
1629797566734,0.04
1629797566750,0.5
1629797566765,1.05
1629797566781,1.55
1629797566796,1.84
1629797566812,1.8
1629797566828,1.47
1629797566843,1.0
1629797566859,0.6
1629797566875,0.41
1629797566890,0.46
1629797566906,0.65
1629797566921,0.84
1629797566937,0.94
1629797566953,0.92
1629797566968,0.84
1629797566984,0.76
1629797567000,0.71
1629797567015,0.66
1629797567031,0.56
1629797567046,0.37
1629797567062,0.11
1629797567078,-0.16
1629797567093,-0.34
1629797567109,-0.4
1629797567125,-0.33
1629797567140,-0.19
1629797567156,-0.03
1629797567171,0.1
1629797567187,0.21
1629797567203,0.35
1629797567218,0.53
1629797567234,0.75
1629797567250,0.96
1629797567265,1.06
1629797567281,1.01
1629797567296,0.79
1629797567312,0.46
1629797567328,0.09
1629797567343,-0.24
1629797567359,-0.51
1629797567375,-0.7
1629797567390,-0.83
1629797567406,-0.93
1629797567421,-1.03
1629797567437,-1.12
1629797567453,-1.19
1629797567468,-1.22
1629797567484,-1.17
1629797567500,-1.03
1629797567515,-0.82
1629797567531,-0.61
1629797567546,-0.47
1629797567562,-0.5
1629797567578,-0.71
1629797567593,-1.05
1629797567609,-1.41
1629797567625,-1.65
1629797567640,-1.67
1629797567656,-1.44
1629797567671,-1.04
1629797567687,-0.58
1629797567703,-0.21
1629797567718,-0.01
1629797567734,0.03
1629797567750,-0.02
1629797567765,-0.02
1629797567781,0.14
1629797567796,0.46
1629797567812,0.9
1629797567828,1.31
1629797567843,1.57
1629797567859,1.66
1629797567875,1.6
1629797567890,1.49
1629797567906,1.36
1629797567921,1.22
1629797567937,1.0
1629797567953,0.69
1629797567968,0.33
1629797567984,0.05
1629797568000,0.01
1629797568015,0.26
1629797568031,0.77
1629797568046,1.35
1629797568062,1.82
1629797568078,2.05
1629797568093,2.02
1629797568109,1.8
1629797568125,1.5
1629797568140,1.22
1629797568156,1.01
1629797568171,0.88
1629797568187,0.79
1629797568203,0.72
1629797568218,0.65
1629797568234,0.58
1629797568250,0.5
1629797568265,0.42
1629797568281,0.32
1629797568296,0.15
1629797568312,-0.1
1629797568328,-0.44
1629797568343,-0.79
1629797568359,-1.07
1629797568375,-1.2
1629797568390,-1.16
1629797568406,-1.03
1629797568421,-0.88
1629797568437,-0.82
1629797568453,-0.87
1629797568468,-1.03
1629797568484,-1.25
1629797568500,-1.47
1629797568515,-1.63
1629797568531,-1.66
1629797568546,-1.51
1629797568562,-1.22
1629797568578,-0.85
1629797568593,-0.54
1629797568609,-0.37
1629797568625,-0.36
1629797568640,-0.43
1629797568656,-0.44
1629797568671,-0.32
1629797568687,-0.05
1629797568703,0.25
1629797568718,0.46
1629797568734,0.52
1629797568750,0.43
1629797568765,0.3
1629797568781,0.22
1629797568796,0.23
1629797568812,0.33
1629797568828,0.46
1629797568843,0.56
1629797568859,0.61
1629797568875,0.65
1629797568890,0.72
1629797568906,0.85
1629797568921,1.03
1629797568937,1.21
1629797568953,1.31
1629797568968,1.3
1629797568984,1.2
1629797569000,1.06
1629797569015,0.95
1629797569031,0.91
1629797569046,0.91
1629797569062,0.89
1629797569078,0.78
1629797569093,0.55
1629797569109,0.23
1629797569125,-0.12
1629797569140,-0.43
1629797569156,-0.67
1629797569171,-0.83
1629797569187,-0.92
1629797569203,-0.9
1629797569218,-0.73
1629797569234,-0.38
1629797569250,0.14
1629797569265,0.72
1629797569281,1.21
1629797569296,1.44
1629797569312,1.32
1629797569328,0.86
1629797569343,0.21
1629797569359,-0.41
1629797569375,-0.85
1629797569390,-1.02
1629797569406,-0.99
1629797569421,-0.87
1629797569437,-0.79
1629797569453,-0.82
1629797569468,-0.93
1629797569484,-1.07
1629797569500,-1.17
1629797569515,-1.2
1629797569531,-1.2
1629797569546,-1.24
1629797569562,-1.35
1629797569578,-1.54
1629797569593,-1.75
1629797569609,-1.89
1629797569625,-1.85
1629797569640,-1.61
1629797569656,-1.21
1629797569671,-0.72
1629797569687,-0.25
1629797569703,0.13
1629797569718,0.41
1629797569734,0.6
1629797569750,0.74
1629797569765,0.86
1629797569781,0.97
1629797569796,1.08
1629797569812,1.18
1629797569828,1.25
1629797569843,1.32
1629797569859,1.36
1629797569875,1.36
1629797569890,1.28
1629797569906,1.11
1629797569921,0.83
1629797569937,0.5
1629797569953,0.23
1629797569968,0.11
1629797569984,0.23
1629797570000,0.54
1629797570015,0.93
1629797570031,1.25
1629797570046,1.39
1629797570062,1.33
1629797570078,1.14
1629797570093,0.9
1629797570109,0.67
1629797570125,0.45
1629797570140,0.25
1629797570156,0.05
1629797570171,-0.11
1629797570187,-0.2
1629797570203,-0.25
1629797570218,-0.33
1629797570234,-0.51
1629797570250,-0.77
1629797570265,-1.05
1629797570281,-1.21
1629797570296,-1.21
1629797570312,-1.09
1629797570328,-0.94
1629797570343,-0.86
1629797570359,-0.87
1629797570375,-0.88
1629797570390,-0.77
1629797570406,-0.49
1629797570421,-0.11
1629797570437,0.21
1629797570453,0.31
1629797570468,0.1
1629797570484,-0.35
1629797570500,-0.88
1629797570515,-1.32
1629797570531,-1.53
1629797570546,-1.46
1629797570562,-1.19
1629797570578,-0.82
1629797570593,-0.5
1629797570609,-0.33
1629797570625,-0.34
1629797570640,-0.51
1629797570656,-0.77
1629797570671,-1.04
1629797570687,-1.26
1629797570703,-1.35
1629797570718,-1.22
1629797570734,-0.82
1629797570750,-0.14
1629797570765,0.74
1629797570781,1.62
1629797570796,2.27
1629797570812,2.49
1629797570828,2.23
1629797570843,1.59
1629797570859,0.82
1629797570875,0.19
1629797570890,-0.14
1629797570906,-0.13
1629797570921,0.12
1629797570937,0.45
1629797570953,0.71
1629797570968,0.82
1629797570984,0.8
1629797571000,0.7
1629797571015,0.6
1629797571031,0.49
1629797571046,0.39
1629797571062,0.25
1629797571078,0.09
1629797571093,-0.05
1629797571109,-0.09
1629797571125,-0.01
1629797571140,0.19
1629797571156,0.41
1629797571171,0.56
1629797571187,0.58
1629797571203,0.46
1629797571218,0.26
1629797571234,0.07
1629797571250,-0.07
1629797571265,-0.14
1629797571281,-0.14
1629797571296,-0.09
1629797571312,-0.03
1629797571328,0.03
1629797571343,0.08
1629797571359,0.11
1629797571375,0.12
1629797571390,0.11
1629797571406,0.11
1629797571421,0.07
1629797571437,-0.01
1629797571453,-0.19
1629797571468,-0.46
1629797571484,-0.79
1629797571500,-1.13
1629797571515,-1.42
1629797571531,-1.62
1629797571546,-1.72
1629797571562,-1.73
1629797571578,-1.62
1629797571593,-1.4
1629797571609,-1.07
1629797571625,-0.7
1629797571640,-0.35
1629797571656,-0.14
1629797571671,-0.09
1629797571687,-0.22
1629797571703,-0.42
1629797571718,-0.6
1629797571734,-0.67
1629797571750,-0.58
1629797571765,-0.37
1629797571781,-0.08
1629797571796,0.21
1629797571812,0.48
1629797571828,0.74
1629797571843,0.98
1629797571859,1.22
1629797571875,1.39
1629797571890,1.47
1629797571906,1.43
1629797571921,1.32
1629797571937,1.18
1629797571953,1.1
1629797571968,1.08
1629797571984,1.11
1629797572000,1.09
1629797572015,0.97
1629797572031,0.71
1629797572046,0.38
1629797572062,0.08
1629797572078,-0.09
1629797572093,-0.05
1629797572109,0.2
1629797572125,0.59
1629797572140,1.0
1629797572156,1.32
1629797572171,1.49
1629797572187,1.49
1629797572203,1.39
1629797572218,1.23
1629797572234,1.04
1629797572250,0.8
1629797572265,0.44
1629797572281,-0.03
1629797572296,-0.54
1629797572312,-0.96
1629797572328,-1.16
1629797572343,-1.1
1629797572359,-0.86
1629797572375,-0.59
1629797572390,-0.41
1629797572406,-0.39
1629797572421,-0.48
1629797572437,-0.57
1629797572453,-0.62
1629797572468,-0.61
1629797572484,-0.58
1629797572500,-0.58
1629797572515,-0.62
1629797572531,-0.69
1629797572546,-0.76
1629797572562,-0.84
1629797572578,-0.92
1629797572593,-1.03
1629797572609,-1.16
1629797572625,-1.26
1629797572640,-1.28
1629797572656,-1.17
1629797572671,-0.93
1629797572687,-0.61
1629797572703,-0.32
1629797572718,-0.11
1629797572734,-0.01
1629797572750,0.08
1629797572765,0.24
1629797572781,0.55
1629797572796,0.93
1629797572812,1.23
1629797572828,1.29
1629797572843,1.04
1629797572859,0.55
1629797572875,0.05
1629797572890,-0.24
1629797572906,-0.19
1629797572921,0.15
1629797572937,0.61
1629797572953,1.01
1629797572968,1.21
1629797572984,1.18
1629797573000,1.01
1629797573015,0.79
1629797573031,0.62
1629797573046,0.54
1629797573062,0.53
1629797573078,0.55
1629797573093,0.56
1629797573109,0.52
1629797573125,0.47
1629797573140,0.43
1629797573156,0.45
1629797573171,0.51
1629797573187,0.55
1629797573203,0.5
1629797573218,0.31
1629797573234,-0.01
1629797573250,-0.37
1629797573265,-0.64
1629797573281,-0.73
1629797573296,-0.66
1629797573312,-0.51
1629797573328,-0.39
1629797573343,-0.39
1629797573359,-0.46
1629797573375,-0.54
1629797573390,-0.54
1629797573406,-0.48
1629797573421,-0.42
1629797573437,-0.5
1629797573453,-0.77
1629797573468,-1.16
1629797573484,-1.52
1629797573500,-1.71
1629797573515,-1.64
1629797573531,-1.36
1629797573546,-1.01
1629797573562,-0.75
1629797573578,-0.66
1629797573593,-0.75
1629797573609,-0.92
1629797573625,-1.06
1629797573640,-1.05
1629797573656,-0.86
1629797573671,-0.5
1629797573687,-0.02
1629797573703,0.48
1629797573718,0.9
1629797573734,1.16
1629797573750,1.2
1629797573765,1.05
1629797573781,0.77
1629797573796,0.47
1629797573812,0.3
1629797573828,0.32
1629797573843,0.52
1629797573859,0.82
1629797573875,1.09
1629797573890,1.26
1629797573906,1.29
1629797573921,1.2
1629797573937,1.03
1629797573953,0.78
1629797573968,0.46
1629797573984,0.12
1629797574000,-0.14
1629797574015,-0.18
1629797574031,0.06
1629797574046,0.53
1629797574062,1.02
1629797574078,1.29
1629797574093,1.17
1629797574109,0.71
1629797574125,0.1
1629797574140,-0.37
1629797574156,-0.54
1629797574171,-0.38
1629797574187,-0.03
1629797574203,0.32
1629797574218,0.51
1629797574234,0.53
1629797574250,0.41
1629797574265,0.24
1629797574281,0.07
1629797574296,-0.12
1629797574312,-0.33
1629797574328,-0.55
1629797574343,-0.74
1629797574359,-0.82
1629797574375,-0.73
1629797574390,-0.51
1629797574406,-0.23
1629797574421,-0.04
1629797574437,-0.06
1629797574453,-0.33
1629797574468,-0.78
1629797574484,-1.28
1629797574500,-1.66
1629797574515,-1.84
1629797574531,-1.8
1629797574546,-1.61
1629797574562,-1.38
1629797574578,-1.23
1629797574593,-1.17
1629797574609,-1.18
1629797574625,-1.19
1629797574640,-1.11
1629797574656,-0.92
1629797574671,-0.66
1629797574687,-0.41
1629797574703,-0.26
1629797574718,-0.26
1629797574734,-0.36
1629797574750,-0.45
1629797574765,-0.4
1629797574781,-0.12
1629797574796,0.37
1629797574812,0.98
1629797574828,1.51
1629797574843,1.82
1629797574859,1.83
1629797574875,1.59
1629797574890,1.25
1629797574906,0.97
1629797574921,0.85
1629797574937,0.88
1629797574953,0.97
1629797574968,0.98
1629797574984,0.86
1629797575000,0.64
1629797575015,0.41
1629797575031,0.32
1629797575046,0.43
1629797575062,0.72
1629797575078,1.05
1629797575093,1.26
1629797575109,1.26
1629797575125,1.03
1629797575140,0.7
1629797575156,0.42
1629797575171,0.3
1629797575187,0.35
1629797575203,0.49
1629797575218,0.57
1629797575234,0.52
1629797575250,0.31
1629797575265,-0.02
1629797575281,-0.41
1629797575296,-0.8
1629797575312,-1.12
1629797575328,-1.3
1629797575343,-1.3
1629797575359,-1.06
1629797575375,-0.61
1629797575390,-0.05
1629797575406,0.42
1629797575421,0.62
1629797575437,0.42
1629797575453,-0.15
1629797575468,-0.91
1629797575484,-1.63
1629797575500,-2.04
1629797575515,-2.05
1629797575531,-1.69
1629797575546,-1.14
1629797575562,-0.64
1629797575578,-0.35
1629797575593,-0.33
1629797575609,-0.54
1629797575625,-0.86
1629797575640,-1.16
1629797575656,-1.37
1629797575671,-1.47
1629797575687,-1.45
1629797575703,-1.34
1629797575718,-1.18
1629797575734,-0.99
1629797575750,-0.76
1629797575765,-0.5
1629797575781,-0.16
1629797575796,0.27
1629797575812,0.77
1629797575828,1.25
1629797575843,1.59
1629797575859,1.69
1629797575875,1.53
1629797575890,1.17
1629797575906,0.77
1629797575921,0.51
1629797575937,0.5
1629797575953,0.77
1629797575968,1.25
1629797575984,1.77
1629797576000,2.16
1629797576015,2.3
1629797576031,2.15
1629797576046,1.79
1629797576062,1.35
1629797576078,0.96
1629797576093,0.69
1629797576109,0.52
1629797576125,0.38
1629797576140,0.21
1629797576156,0.01
1629797576171,-0.14
1629797576187,-0.16
1629797576203,-0.04
1629797576218,0.18
1629797576234,0.4
1629797576250,0.53
1629797576265,0.52
1629797576281,0.41
1629797576296,0.23
1629797576312,0.02
1629797576328,-0.25
1629797576343,-0.57
1629797576359,-0.91
1629797576375,-1.18
1629797576390,-1.3
1629797576406,-1.24
1629797576421,-1.03
1629797576437,-0.8
1629797576453,-0.65
1629797576468,-0.64
1629797576484,-0.75
1629797576500,-0.9
1629797576515,-1.04
1629797576531,-1.14
1629797576546,-1.24
1629797576562,-1.35
1629797576578,-1.46
1629797576593,-1.51
1629797576609,-1.39
1629797576625,-1.07
1629797576640,-0.6
1629797576656,-0.11
1629797576671,0.22
1629797576687,0.3
1629797576703,0.15
1629797576718,-0.09
1629797576734,-0.2
1629797576750,-0.06
1629797576765,0.34
1629797576781,0.89
1629797576796,1.4
1629797576812,1.69
1629797576828,1.68
1629797576843,1.43
1629797576859,1.05
1629797576875,0.67
1629797576890,0.4
1629797576906,0.27
1629797576921,0.27
1629797576937,0.4
1629797576953,0.59
1629797576968,0.81
1629797576984,1.04
1629797577000,1.23
1629797577015,1.37
1629797577031,1.46
1629797577046,1.51
1629797577062,1.51
1629797577078,1.44
1629797577093,1.25
1629797577109,0.94
1629797577125,0.56
1629797577140,0.18
1629797577156,-0.1
1629797577171,-0.21
1629797577187,-0.21
1629797577203,-0.18
1629797577218,-0.23
1629797577234,-0.37
1629797577250,-0.57
1629797577265,-0.73
1629797577281,-0.78
1629797577296,-0.73
1629797577312,-0.66
1629797577328,-0.67
1629797577343,-0.82
1629797577359,-1.09
1629797577375,-1.35
1629797577390,-1.48
1629797577406,-1.41
1629797577421,-1.18
1629797577437,-0.94
1629797577453,-0.82
1629797577468,-0.89
1629797577484,-1.08
1629797577500,-1.22
1629797577515,-1.18
1629797577531,-0.94
1629797577546,-0.63
1629797577562,-0.45
1629797577578,-0.51
1629797577593,-0.78
1629797577609,-1.07
1629797577625,-1.17
1629797577640,-0.94
1629797577656,-0.42
1629797577671,0.2
1629797577687,0.74
1629797577703,1.08
1629797577718,1.22
1629797577734,1.26
1629797577750,1.27
1629797577765,1.28
1629797577781,1.28
1629797577796,1.24
1629797577812,1.16
1629797577828,1.08
1629797577843,1.03
1629797577859,1.03
1629797577875,1.02
1629797577890,0.96
1629797577906,0.8
1629797577921,0.56
1629797577937,0.3
1629797577953,0.13
1629797577968,0.12
1629797577984,0.29
1629797578000,0.61
1629797578015,0.97
1629797578031,1.22
1629797578046,1.26
1629797578062,1.01
1629797578078,0.52
1629797578093,-0.09
1629797578109,-0.67
1629797578125,-1.02
1629797578140,-1.07
1629797578156,-0.84
1629797578171,-0.47
1629797578187,-0.16
1629797578203,-0.1
1629797578218,-0.33
1629797578234,-0.79
1629797578250,-1.27
1629797578265,-1.59
1629797578281,-1.61
1629797578296,-1.35
1629797578312,-0.92
1629797578328,-0.48
1629797578343,-0.14
1629797578359,0.01
1629797578375,-0.03
1629797578390,-0.25
1629797578406,-0.6
1629797578421,-1.07
1629797578437,-1.58
1629797578453,-2.03
1629797578468,-2.3
1629797578484,-2.3
1629797578500,-2.02
1629797578515,-1.53
1629797578531,-0.99
1629797578546,-0.53
1629797578562,-0.23
1629797578578,-0.07
1629797578593,0.04
1629797578609,0.18
1629797578625,0.37
1629797578640,0.53
1629797578656,0.59
1629797578671,0.51
1629797578687,0.33
1629797578703,0.17
1629797578718,0.16
1629797578734,0.34
1629797578750,0.66
1629797578765,0.98
1629797578781,1.21
1629797578796,1.32
1629797578812,1.37
1629797578828,1.44
1629797578843,1.55
1629797578859,1.64
1629797578875,1.62
1629797578890,1.45
1629797578906,1.15
1629797578921,0.84
1629797578937,0.64
1629797578953,0.6
1629797578968,0.74
1629797578984,0.96
1629797579000,1.18
1629797579015,1.32
1629797579031,1.36
1629797579046,1.28
1629797579062,1.11
1629797579078,0.86
1629797579093,0.58
1629797579109,0.32
1629797579125,0.08
1629797579140,-0.12
1629797579156,-0.34
1629797579171,-0.61
1629797579187,-0.94
1629797579203,-1.25
1629797579218,-1.42
1629797579234,-1.38
1629797579250,-1.11
1629797579265,-0.74
1629797579281,-0.43
1629797579296,-0.3
1629797579312,-0.41
1629797579328,-0.66
1629797579343,-0.93
1629797579359,-1.08
1629797579375,-1.08
1629797579390,-1.0
1629797579406,-0.92
1629797579421,-0.93
1629797579437,-1.06
1629797579453,-1.23
1629797579468,-1.38
1629797579484,-1.44
1629797579500,-1.39
1629797579515,-1.25
1629797579531,-1.04
1629797579546,-0.76
1629797579562,-0.43
1629797579578,-0.02
1629797579593,0.44
1629797579609,0.87
1629797579625,1.17
1629797579640,1.26
1629797579656,1.17
1629797579671,1.0
1629797579687,0.87
1629797579703,0.85
1629797579718,0.92
1629797579734,0.94
1629797579750,0.82
1629797579765,0.54
1629797579781,0.22
1629797579796,0.04
1629797579812,0.12
1629797579828,0.45
1629797579843,0.89
1629797579859,1.26
1629797579875,1.4
1629797579890,1.3
1629797579906,1.03
1629797579921,0.75
1629797579937,0.58
1629797579953,0.58
1629797579968,0.71
1629797579984,0.9
1629797580000,1.06
1629797580015,1.11
1629797580031,1.01
1629797580046,0.78
1629797580062,0.44
1629797580078,0.09
1629797580093,-0.2
1629797580109,-0.34
1629797580125,-0.28
1629797580140,-0.06
1629797580156,0.23
1629797580171,0.46
1629797580187,0.5
1629797580203,0.28
1629797580218,-0.15
1629797580234,-0.64
1629797580250,-1.04
1629797580265,-1.23
1629797580281,-1.18
1629797580296,-0.95
1629797580312,-0.67
1629797580328,-0.44
1629797580343,-0.35
1629797580359,-0.44
1629797580375,-0.69
1629797580390,-1.05
1629797580406,-1.43
1629797580421,-1.74
1629797580437,-1.89
1629797580453,-1.85
1629797580468,-1.61
1629797580484,-1.24
1629797580500,-0.8
1629797580515,-0.37
1629797580531,0.03
1629797580546,0.36
1629797580562,0.62
1629797580578,0.78
1629797580593,0.83
1629797580609,0.75
1629797580625,0.6
1629797580640,0.47
1629797580656,0.43
1629797580671,0.49
1629797580687,0.62
1629797580703,0.74
1629797580718,0.74
1629797580734,0.61
1629797580750,0.39
1629797580765,0.2
1629797580781,0.14
1629797580796,0.27
1629797580812,0.55
1629797580828,0.88
1629797580843,1.14
1629797580859,1.26
1629797580875,1.24
1629797580890,1.11
1629797580906,0.92
1629797580921,0.71
1629797580937,0.48
1629797580953,0.23
1629797580968,-0.04
1629797580984,-0.28
1629797581000,-0.47
1629797581015,-0.57
1629797581031,-0.56
1629797581046,-0.42
1629797581062,-0.18
1629797581078,0.13
1629797581093,0.41
1629797581109,0.57
1629797581125,0.52
1629797581140,0.23
1629797581156,-0.24
1629797581171,-0.77
1629797581187,-1.2
1629797581203,-1.4
1629797581218,-1.33
1629797581234,-1.06
1629797581250,-0.72
1629797581265,-0.44
1629797581281,-0.32
1629797581296,-0.35
1629797581312,-0.48
1629797581328,-0.63
1629797581343,-0.74
1629797581359,-0.81
1629797581375,-0.87
1629797581390,-0.94
1629797581406,-1.04
1629797581421,-1.13
1629797581437,-1.16
1629797581453,-1.14
1629797581468,-1.11
1629797581484,-1.1
1629797581500,-1.1
1629797581515,-1.05
1629797581531,-0.86
1629797581546,-0.45
1629797581562,0.14
1629797581578,0.79
1629797581593,1.36
1629797581609,1.72
1629797581625,1.85
1629797581640,1.79
1629797581656,1.62
1629797581671,1.43
1629797581687,1.26
1629797581703,1.12
1629797581718,1.0
1629797581734,0.88
1629797581750,0.76
1629797581765,0.67
1629797581781,0.63
1629797581796,0.65
1629797581812,0.74
1629797581828,0.84
1629797581843,0.87
1629797581859,0.78
1629797581875,0.56
1629797581890,0.3
1629797581906,0.09
1629797581921,0.03
1629797581937,0.11
1629797581953,0.27
1629797581968,0.39
1629797581984,0.43
1629797582000,0.37
1629797582015,0.25
1629797582031,0.11
1629797582046,-0.04
1629797582062,-0.18
1629797582078,-0.31
1629797582093,-0.38
1629797582109,-0.33
1629797582125,-0.14
1629797582140,0.13
1629797582156,0.35
1629797582171,0.42
1629797582187,0.26
1629797582203,-0.1
1629797582218,-0.57
1629797582234,-1.04
1629797582250,-1.44
1629797582265,-1.73
1629797582281,-1.91
1629797582296,-1.99
1629797582312,-1.98
1629797582328,-1.9
1629797582343,-1.79
1629797582359,-1.7
1629797582375,-1.68
1629797582390,-1.73
1629797582406,-1.8
1629797582421,-1.82
1629797582437,-1.69
1629797582453,-1.41
1629797582468,-1.05
1629797582484,-0.74
1629797582500,-0.55
1629797582515,-0.47
1629797582531,-0.4
1629797582546,-0.19
1629797582562,0.25
1629797582578,0.85
1629797582593,1.44
1629797582609,1.79
1629797582625,1.77
1629797582640,1.39
1629797582656,0.81
1629797582671,0.31
1629797582687,0.07
1629797582703,0.19
1629797582718,0.58
1629797582734,1.11
1629797582750,1.57
1629797582765,1.87
1629797582781,1.96
1629797582796,1.87
1629797582812,1.67
1629797582828,1.44
1629797582843,1.21
1629797582859,0.98
1629797582875,0.73
1629797582890,0.47
1629797582906,0.25
1629797582921,0.16
1629797582937,0.24
1629797582953,0.49
1629797582968,0.81
1629797582984,1.05
1629797583000,1.08
1629797583015,0.88
1629797583031,0.5
1629797583046,0.08
1629797583062,-0.23
1629797583078,-0.39
1629797583093,-0.39
1629797583109,-0.32
1629797583125,-0.24
1629797583140,-0.2
1629797583156,-0.23
1629797583171,-0.31
1629797583187,-0.43
1629797583203,-0.55
1629797583218,-0.68
1629797583234,-0.81
1629797583250,-0.93
1629797583265,-1.04
1629797583281,-1.12
1629797583296,-1.15
1629797583312,-1.12
1629797583328,-1.02
1629797583343,-0.9
1629797583359,-0.83
1629797583375,-0.89
1629797583390,-1.1
1629797583406,-1.42
1629797583421,-1.72
1629797583437,-1.89
1629797583453,-1.8
1629797583468,-1.46
1629797583484,-0.92
1629797583500,-0.35
1629797583515,0.14
1629797583531,0.47
1629797583546,0.68
1629797583562,0.83
1629797583578,0.99
1629797583593,1.19
1629797583609,1.37
1629797583625,1.47
1629797583640,1.45
1629797583656,1.35
1629797583671,1.21
1629797583687,1.11
1629797583703,1.08
1629797583718,1.11
1629797583734,1.16
1629797583750,1.18
1629797583765,1.13
1629797583781,1.03
1629797583796,0.9
1629797583812,0.78
1629797583828,0.71
1629797583843,0.72
1629797583859,0.76
1629797583875,0.8
1629797583890,0.81
1629797583906,0.77
1629797583921,0.71
1629797583937,0.66
1629797583953,0.65
1629797583968,0.63
1629797583984,0.59
1629797584000,0.49
1629797584015,0.32
1629797584031,0.12
1629797584046,-0.09
1629797584062,-0.32
1629797584078,-0.54
1629797584093,-0.77
1629797584109,-0.97
1629797584125,-1.08
1629797584140,-1.07
1629797584156,-0.92
1629797584171,-0.67
1629797584187,-0.4
1629797584203,-0.19
1629797584218,-0.11
1629797584234,-0.2
1629797584250,-0.48
1629797584265,-0.88
1629797584281,-1.32
1629797584296,-1.71
1629797584312,-1.96
1629797584328,-2.04
1629797584343,-1.97
1629797584359,-1.82
1629797584375,-1.63
1629797584390,-1.44
1629797584406,-1.23
1629797584421,-1.0
1629797584437,-0.73
1629797584453,-0.46
1629797584468,-0.19
1629797584484,0.06
1629797584500,0.33
1629797584515,0.62
1629797584531,0.92
1629797584546,1.11
1629797584562,1.1
1629797584578,0.83
1629797584593,0.36
1629797584609,-0.13
1629797584625,-0.44
1629797584640,-0.42
1629797584656,-0.07
1629797584671,0.47
1629797584687,1.02
1629797584703,1.45
1629797584718,1.72
1629797584734,1.86
1629797584750,1.9
1629797584765,1.85
1629797584781,1.66
1629797584796,1.31
1629797584812,0.86
1629797584828,0.4
1629797584843,0.05
1629797584859,-0.11
1629797584875,-0.07
1629797584890,0.09
1629797584906,0.3
1629797584921,0.47
1629797584937,0.57
1629797584953,0.6
1629797584968,0.55
1629797584984,0.45
1629797585000,0.31
1629797585015,0.12
1629797585031,-0.1
1629797585046,-0.33
1629797585062,-0.52
1629797585078,-0.63
1629797585093,-0.66
1629797585109,-0.63
1629797585125,-0.6
1629797585140,-0.61
1629797585156,-0.68
1629797585171,-0.76
1629797585187,-0.79
1629797585203,-0.73
1629797585218,-0.61
1629797585234,-0.54
1629797585250,-0.6
1629797585265,-0.84
1629797585281,-1.19
1629797585296,-1.53
1629797585312,-1.73
1629797585328,-1.71
1629797585343,-1.47
1629797585359,-1.05
1629797585375,-0.53
1629797585390,-0.02
1629797585406,0.38
1629797585421,0.56
1629797585437,0.46
1629797585453,0.12
1629797585468,-0.31
1629797585484,-0.63
1629797585500,-0.67
1629797585515,-0.37
1629797585531,0.21
1629797585546,0.88
1629797585562,1.43
1629797585578,1.71
1629797585593,1.68
1629797585609,1.42
1629797585625,1.05
1629797585640,0.72
1629797585656,0.54
1629797585671,0.53
1629797585687,0.65
1629797585703,0.8
1629797585718,0.89
1629797585734,0.86
1629797585750,0.72
1629797585765,0.54
1629797585781,0.35
1629797585796,0.17
1629797585812,-0.01
1629797585828,-0.23
1629797585843,-0.46
1629797585859,-0.62
1629797585875,-0.59
1629797585890,-0.31
1629797585906,0.18
1629797585921,0.71
1629797585937,1.06
1629797585953,1.08
1629797585968,0.77
1629797585984,0.26
1629797586000,-0.22
1629797586015,-0.53
1629797586031,-0.58
1629797586046,-0.46
1629797586062,-0.29
1629797586078,-0.17
1629797586093,-0.15
1629797586109,-0.22
1629797586125,-0.34
1629797586140,-0.48
1629797586156,-0.64
1629797586171,-0.81
1629797586187,-0.98
1629797586203,-1.14
1629797586218,-1.27
1629797586234,-1.35
1629797586250,-1.37
1629797586265,-1.33
1629797586281,-1.22
1629797586296,-1.08
1629797586312,-0.92
1629797586328,-0.8
1629797586343,-0.75
1629797586359,-0.81
1629797586375,-1.02
1629797586390,-1.33
1629797586406,-1.66
1629797586421,-1.87
1629797586437,-1.89
1629797586453,-1.67
1629797586468,-1.25
1629797586484,-0.74
1629797586500,-0.24
1629797586515,0.18
1629797586531,0.54
1629797586546,0.87
1629797586562,1.21
1629797586578,1.53
1629797586593,1.79
1629797586609,1.93
1629797586625,1.92
1629797586640,1.79
1629797586656,1.59
1629797586671,1.39
1629797586687,1.23
1629797586703,1.13
1629797586718,1.07
1629797586734,1.02
1629797586750,0.95
1629797586765,0.86
1629797586781,0.77
1629797586796,0.71
1629797586812,0.7
1629797586828,0.77
1629797586843,0.87
1629797586859,0.95
1629797586875,0.96
1629797586890,0.86
1629797586906,0.66
1629797586921,0.42
1629797586937,0.22
1629797586953,0.13
1629797586968,0.19
1629797586984,0.39
1629797587000,0.64
1629797587015,0.81
1629797587031,0.8
1629797587046,0.55
1629797587062,0.14
1629797587078,-0.32
1629797587093,-0.63
1629797587109,-0.71
1629797587125,-0.57
1629797587140,-0.34
1629797587156,-0.21
1629797587171,-0.31
1629797587187,-0.65
1629797587203,-1.09
1629797587218,-1.46
1629797587234,-1.63
1629797587250,-1.58
1629797587265,-1.39
1629797587281,-1.14
1629797587296,-0.91
1629797587312,-0.71
1629797587328,-0.56
1629797587343,-0.46
1629797587359,-0.46
1629797587375,-0.58
1629797587390,-0.81
1629797587406,-1.08
1629797587421,-1.3
1629797587437,-1.39
1629797587453,-1.31
1629797587468,-1.08
1629797587484,-0.78
1629797587500,-0.44
1629797587515,-0.1
1629797587531,0.25
1629797587546,0.6
1629797587562,0.97
1629797587578,1.31
1629797587593,1.58
1629797587609,1.75
1629797587625,1.79
1629797587640,1.73
1629797587656,1.59
1629797587671,1.4
1629797587687,1.17
1629797587703,0.89
1629797587718,0.59
1629797587734,0.28
1629797587750,0.01
1629797587765,-0.17
1629797587781,-0.23
1629797587796,-0.18
1629797587812,-0.02
1629797587828,0.24
1629797587843,0.55
1629797587859,0.87
1629797587875,1.11
1629797587890,1.16
1629797587906,0.95
1629797587921,0.51
1629797587937,-0.03
1629797587953,-0.46
1629797587968,-0.6
1629797587984,-0.38
1629797588000,0.09
1629797588015,0.58
1629797588031,0.85
1629797588046,0.77
1629797588062,0.38
1629797588078,-0.14
1629797588093,-0.6
1629797588109,-0.86
1629797588125,-0.96
1629797588140,-1.0
1629797588156,-1.12
1629797588171,-1.35
1629797588187,-1.62
1629797588203,-1.82
1629797588218,-1.82
1629797588234,-1.63
1629797588250,-1.32
1629797588265,-1.01
1629797588281,-0.78
1629797588296,-0.63
1629797588312,-0.52
1629797588328,-0.39
1629797588343,-0.25
1629797588359,-0.13
1629797588375,-0.06
1629797588390,-0.06
1629797588406,-0.12
1629797588421,-0.19
1629797588437,-0.21
1629797588453,-0.12
1629797588468,0.09
1629797588484,0.4
1629797588500,0.74
1629797588515,1.02
1629797588531,1.15
1629797588546,1.11
1629797588562,0.94
1629797588578,0.71
1629797588593,0.52
1629797588609,0.44
1629797588625,0.46
1629797588640,0.55
1629797588656,0.67
1629797588671,0.79
1629797588687,0.91
1629797588703,1.04
1629797588718,1.18
1629797588734,1.32
1629797588750,1.39
1629797588765,1.35
1629797588781,1.14
1629797588796,0.77
1629797588812,0.3
1629797588828,-0.15
1629797588843,-0.47
1629797588859,-0.57
1629797588875,-0.45
1629797588890,-0.19
1629797588906,0.09
1629797588921,0.28
1629797588937,0.32
1629797588953,0.21
1629797588968,0.02
1629797588984,-0.21
1629797589000,-0.43
1629797589015,-0.61
1629797589031,-0.78
1629797589046,-0.97
1629797589062,-1.17
1629797589078,-1.4
1629797589093,-1.62
1629797589109,-1.77
1629797589125,-1.79
1629797589140,-1.69
1629797589156,-1.5
1629797589171,-1.3
1629797589187,-1.17
1629797589203,-1.13
1629797589218,-1.19
1629797589234,-1.33
1629797589250,-1.51
1629797589265,-1.68
1629797589281,-1.8
1629797589296,-1.77
1629797589312,-1.53
1629797589328,-1.09
1629797589343,-0.53
1629797589359,-0.02
1629797589375,0.26
1629797589390,0.23
1629797589406,-0.04
1629797589421,-0.36
1629797589437,-0.52
1629797589453,-0.44
1629797589468,-0.12
1629797589484,0.29
1629797589500,0.64
1629797589515,0.88
1629797589531,0.99
1629797589546,1.07
1629797589562,1.19
1629797589578,1.35
1629797589593,1.54
1629797589609,1.68
1629797589625,1.72
1629797589640,1.63
1629797589656,1.44
1629797589671,1.23
1629797589687,1.05
1629797589703,0.95
1629797589718,0.94
1629797589734,0.97
1629797589750,1.0
1629797589765,0.97
1629797589781,0.89
1629797589796,0.76
1629797589812,0.62
1629797589828,0.49
1629797589843,0.37
1629797589859,0.28
1629797589875,0.23
1629797589890,0.25
1629797589906,0.38
1629797589921,0.61
1629797589937,0.87
1629797589953,1.05
1629797589968,1.06
1629797589984,0.85
1629797590000,0.48
1629797590015,0.05
1629797590031,-0.29
1629797590046,-0.44
1629797590062,-0.38
1629797590078,-0.15
1629797590093,0.11
1629797590109,0.26
1629797590125,0.21
1629797590140,-0.09
1629797590156,-0.55
1629797590171,-1.04
1629797590187,-1.36
1629797590203,-1.41
1629797590218,-1.18
1629797590234,-0.77
1629797590250,-0.39
1629797590265,-0.21
1629797590281,-0.31
1629797590296,-0.62
1629797590312,-0.98
1629797590328,-1.19
1629797590343,-1.16
1629797590359,-0.9
1629797590375,-0.55
1629797590390,-0.26
1629797590406,-0.07
1629797590421,0.07
1629797590437,0.32
1629797590453,0.74
1629797590468,1.29
1629797590484,1.75
1629797590500,1.92
1629797590515,1.68
1629797590531,1.16
1629797590546,0.62
1629797590562,0.34
1629797590578,0.44
1629797590593,0.84
1629797590609,1.27
1629797590625,1.48
1629797590640,1.32
1629797590656,0.83
1629797590671,0.19
1629797590687,-0.39
1629797590703,-0.76
1629797590718,-0.85
1629797590734,-0.68
1629797590750,-0.31
1629797590765,0.16
1629797590781,0.59
1629797590796,0.83
1629797590812,0.77
1629797590828,0.43
1629797590843,-0.08
1629797590859,-0.59
1629797590875,-0.92
1629797590890,-0.99
1629797590906,-0.8
1629797590921,-0.45
1629797590937,-0.07
1629797590953,0.23
1629797590968,0.38
1629797590984,0.35
1629797591000,0.15
1629797591015,-0.16
1629797591031,-0.5
1629797591046,-0.8
1629797591062,-1.0
1629797591078,-1.08
1629797591093,-1.04
1629797591109,-0.95
1629797591125,-0.89
1629797591140,-0.88
1629797591156,-0.94
1629797591171,-1.0
1629797591187,-0.98
1629797591203,-0.8
1629797591218,-0.49
1629797591234,-0.12
1629797591250,0.17
1629797591265,0.25
1629797591281,0.08
1629797591296,-0.29
1629797591312,-0.72
1629797591328,-1.05
1629797591343,-1.17
1629797591359,-1.04
1629797591375,-0.71
1629797591390,-0.25
1629797591406,0.24
1629797591421,0.72
1629797591437,1.13
1629797591453,1.45
1629797591468,1.64
1629797591484,1.7
1629797591500,1.61
1629797591515,1.42
1629797591531,1.16
1629797591546,0.88
1629797591562,0.64
1629797591578,0.46
1629797591593,0.35
1629797591609,0.33
1629797591625,0.33
1629797591640,0.32
1629797591656,0.23
1629797591671,0.06
1629797591687,-0.15
1629797591703,-0.27
1629797591718,-0.19
1629797591734,0.14
1629797591750,0.66
1629797591765,1.22
1629797591781,1.62
1629797591796,1.73
1629797591812,1.53
1629797591828,1.12
1629797591843,0.65
1629797591859,0.26
1629797591875,0.01
1629797591890,-0.1
1629797591906,-0.15
1629797591921,-0.19
1629797591937,-0.26
1629797591953,-0.32
1629797591968,-0.34
1629797591984,-0.31
1629797592000,-0.26
1629797592015,-0.25
1629797592031,-0.34
1629797592046,-0.55
1629797592062,-0.84
1629797592078,-1.14
1629797592093,-1.35
1629797592109,-1.46
1629797592125,-1.46
1629797592140,-1.41
1629797592156,-1.36
1629797592171,-1.34
1629797592187,-1.33
1629797592203,-1.31
1629797592218,-1.28
1629797592234,-1.25
1629797592250,-1.23
1629797592265,-1.24
1629797592281,-1.23
1629797592296,-1.14
1629797592312,-0.91
1629797592328,-0.51
1629797592343,0.02
1629797592359,0.57
1629797592375,1.0
1629797592390,1.21
1629797592406,1.16
1629797592421,0.91
1629797592437,0.57
1629797592453,0.28
1629797592468,0.14
1629797592484,0.19
1629797592500,0.39
1629797592515,0.73
1629797592531,1.13
1629797592546,1.55
1629797592562,1.92
1629797592578,2.17
1629797592593,2.23
1629797592609,2.06
1629797592625,1.67
1629797592640,1.16
1629797592656,0.64
1629797592671,0.26
1629797592687,0.08
1629797592703,0.07
1629797592718,0.17
1629797592734,0.29
1629797592750,0.4
1629797592765,0.51
1629797592781,0.65
1629797592796,0.8
1629797592812,0.86
1629797592828,0.74
1629797592843,0.37
1629797592859,-0.17
1629797592875,-0.73
1629797592890,-1.12
1629797592906,-1.23
1629797592921,-1.1
1629797592937,-0.83
1629797592953,-0.55
1629797592968,-0.35
1629797592984,-0.25
1629797593000,-0.26
1629797593015,-0.36
1629797593031,-0.55
1629797593046,-0.79
1629797593062,-1.04
1629797593078,-1.22
1629797593093,-1.31
1629797593109,-1.31
1629797593125,-1.28
1629797593140,-1.28
1629797593156,-1.35
1629797593171,-1.45
1629797593187,-1.55
1629797593203,-1.58
1629797593218,-1.53
1629797593234,-1.37
1629797593250,-1.15
1629797593265,-0.91
1629797593281,-0.7
1629797593296,-0.55
1629797593312,-0.44
1629797593328,-0.35
1629797593343,-0.22
1629797593359,-0.04
1629797593375,0.17
1629797593390,0.35
1629797593406,0.44
1629797593421,0.43
1629797593437,0.35
1629797593453,0.26
1629797593468,0.25
1629797593484,0.35
1629797593500,0.54
1629797593515,0.77
1629797593531,0.94
1629797593546,1.0
1629797593562,0.93
1629797593578,0.77
1629797593593,0.62
1629797593609,0.57
1629797593625,0.67
1629797593640,0.9
1629797593656,1.19
1629797593671,1.4
1629797593687,1.45
1629797593703,1.31
1629797593718,1.02
1629797593734,0.68
1629797593750,0.38
1629797593765,0.2
1629797593781,0.12
1629797593796,0.11
1629797593812,0.08
1629797593828,0.0
1629797593843,-0.13
1629797593859,-0.27
1629797593875,-0.34
1629797593890,-0.33
1629797593906,-0.24
1629797593921,-0.12
1629797593937,-0.02
1629797593953,0.02
1629797593968,0.01
1629797593984,-0.01
1629797594000,-0.04
1629797594015,-0.12
1629797594031,-0.25
1629797594046,-0.47
1629797594062,-0.75
1629797594078,-1.02
1629797594093,-1.21
1629797594109,-1.26
1629797594125,-1.17
1629797594140,-0.99
1629797594156,-0.81
1629797594171,-0.7
1629797594187,-0.67
1629797594203,-0.71
1629797594218,-0.8
1629797594234,-0.91
1629797594250,-1.02
1629797594265,-1.12
1629797594281,-1.19
1629797594296,-1.17
1629797594312,-1.05
1629797594328,-0.83
1629797594343,-0.54
1629797594359,-0.25
1629797594375,-0.0
1629797594390,0.18
1629797594406,0.32
1629797594421,0.46
1629797594437,0.63
1629797594453,0.81
1629797594468,0.93
1629797594484,0.93
1629797594500,0.81
1629797594515,0.61
1629797594531,0.47
1629797594546,0.47
1629797594562,0.68
1629797594578,1.04
1629797594593,1.43
1629797594609,1.7
1629797594625,1.71
1629797594640,1.44
1629797594656,0.97
1629797594671,0.44
1629797594687,0.05
1629797594703,-0.05
1629797594718,0.16
1629797594734,0.61
1629797594750,1.1
1629797594765,1.44
1629797594781,1.49
1629797594796,1.25
1629797594812,0.8
1629797594828,0.32
1629797594843,-0.07
1629797594859,-0.34
1629797594875,-0.52
1629797594890,-0.66
1629797594906,-0.76
1629797594921,-0.79
1629797594937,-0.68
1629797594953,-0.41
1629797594968,-0.06
1629797594984,0.24
1629797595000,0.38
1629797595015,0.33
1629797595031,0.14
1629797595046,-0.07
1629797595062,-0.21
1629797595078,-0.29
1629797595093,-0.37
1629797595109,-0.51
1629797595125,-0.75
1629797595140,-1.02
1629797595156,-1.22
1629797595171,-1.29
1629797595187,-1.23
1629797595203,-1.14
1629797595218,-1.1
1629797595234,-1.17
1629797595250,-1.29
1629797595265,-1.37
1629797595281,-1.33
1629797595296,-1.15
1629797595312,-0.85
1629797595328,-0.46
1629797595343,-0.04
1629797595359,0.41
1629797595375,0.83
1629797595390,1.17
1629797595406,1.37
1629797595421,1.4
1629797595437,1.28
1629797595453,1.11
1629797595468,0.99
1629797595484,0.99
1629797595500,1.1
1629797595515,1.29
1629797595531,1.49
1629797595546,1.69
1629797595562,1.84
1629797595578,1.92
1629797595593,1.86
1629797595609,1.58
1629797595625,1.05
1629797595640,0.36
1629797595656,-0.33
1629797595671,-0.81
1629797595687,-0.95
1629797595703,-0.76
1629797595718,-0.37
1629797595734,0.02
1629797595750,0.26
1629797595765,0.27
1629797595781,0.11
1629797595796,-0.15
1629797595812,-0.4
1629797595828,-0.58
1629797595843,-0.68
1629797595859,-0.68
1629797595875,-0.61
1629797595890,-0.47
1629797595906,-0.32
1629797595921,-0.19
1629797595937,-0.12
1629797595953,-0.14
1629797595968,-0.21
1629797595984,-0.31
1629797596000,-0.43
1629797596015,-0.6
1629797596031,-0.83
1629797596046,-1.15
1629797596062,-1.49
1629797596078,-1.79
1629797596093,-1.96
1629797596109,-1.96
1629797596125,-1.8
1629797596140,-1.55
1629797596156,-1.28
1629797596171,-1.06
1629797596187,-0.88
1629797596203,-0.75
1629797596218,-0.62
1629797596234,-0.46
1629797596250,-0.25
1629797596265,0.03
1629797596281,0.37
1629797596296,0.74
1629797596312,1.07
1629797596328,1.32
1629797596343,1.46
1629797596359,1.49
1629797596375,1.44
1629797596390,1.35
1629797596406,1.27
1629797596421,1.2
1629797596437,1.16
1629797596453,1.15
1629797596468,1.16
1629797596484,1.21
1629797596500,1.29
1629797596515,1.37
1629797596531,1.41
1629797596546,1.38
1629797596562,1.26
1629797596578,1.06
1629797596593,0.83
1629797596609,0.62
1629797596625,0.49
1629797596640,0.43
1629797596656,0.44
1629797596671,0.46
1629797596687,0.46
1629797596703,0.41
1629797596718,0.31
1629797596734,0.19
1629797596750,0.08
1629797596765,0.01
1629797596781,-0.01
1629797596796,-0.0
1629797596812,-0.01
1629797596828,-0.06
1629797596843,-0.17
1629797596859,-0.33
1629797596875,-0.52
1629797596890,-0.67
1629797596906,-0.76
1629797596921,-0.76
1629797596937,-0.69
1629797596953,-0.59
1629797596968,-0.53
1629797596984,-0.58
1629797597000,-0.74
1629797597015,-0.96
1629797597031,-1.17
1629797597046,-1.27
1629797597062,-1.23
1629797597078,-1.09
1629797597093,-0.97
1629797597109,-0.97
1629797597125,-1.13
1629797597140,-1.39
1629797597156,-1.61
1629797597171,-1.69
1629797597187,-1.62
1629797597203,-1.43
1629797597218,-1.23
1629797597234,-1.09
1629797597250,-1.03
1629797597265,-0.99
1629797597281,-0.89
1629797597296,-0.67
1629797597312,-0.34
1629797597328,0.04
1629797597343,0.35
1629797597359,0.48
1629797597375,0.43
1629797597390,0.26
1629797597406,0.08
1629797597421,0.01
1629797597437,0.1
1629797597453,0.35
1629797597468,0.68
1629797597484,1.05
1629797597500,1.39
1629797597515,1.69
1629797597531,1.92
1629797597546,2.04
1629797597562,2.0
1629797597578,1.78
1629797597593,1.41
1629797597609,0.94
1629797597625,0.46
1629797597640,0.08
1629797597656,-0.13
1629797597671,-0.14
1629797597687,0.01
1629797597703,0.19
1629797597718,0.3
1629797597734,0.26
1629797597750,0.1
1629797597765,-0.07
1629797597781,-0.13
1629797597796,-0.01
1629797597812,0.21
1629797597828,0.41
1629797597843,0.44
1629797597859,0.27
1629797597875,-0.03
1629797597890,-0.3
1629797597906,-0.43
1629797597921,-0.41
1629797597937,-0.34
1629797597953,-0.31
1629797597968,-0.37
1629797597984,-0.46
1629797598000,-0.48
1629797598015,-0.39
1629797598031,-0.24
1629797598046,-0.15
1629797598062,-0.21
1629797598078,-0.45
1629797598093,-0.76
1629797598109,-1.03
1629797598125,-1.16
1629797598140,-1.16
1629797598156,-1.15
1629797598171,-1.21
1629797598187,-1.41
1629797598203,-1.68
1629797598218,-1.92
1629797598234,-1.99
1629797598250,-1.85
1629797598265,-1.53
1629797598281,-1.09
1629797598296,-0.63
1629797598312,-0.2
1629797598328,0.2
1629797598343,0.55
1629797598359,0.84
1629797598375,1.03
1629797598390,1.1
1629797598406,1.08
1629797598421,1.04
1629797598437,1.07
1629797598453,1.23
1629797598468,1.52
1629797598484,1.89
1629797598500,2.21
1629797598515,2.38
1629797598531,2.34
1629797598546,2.1
1629797598562,1.73
1629797598578,1.32
1629797598593,0.96
1629797598609,0.71
1629797598625,0.57
1629797598640,0.52
1629797598656,0.5
1629797598671,0.5
1629797598687,0.52
1629797598703,0.56
1629797598718,0.61
1629797598734,0.62
1629797598750,0.56
1629797598765,0.42
1629797598781,0.25
1629797598796,0.15
1629797598812,0.24
1629797598828,0.5
1629797598843,0.86
1629797598859,1.11
1629797598875,1.09
1629797598890,0.72
1629797598906,0.07
1629797598921,-0.65
1629797598937,-1.23
1629797598953,-1.53
1629797598968,-1.54
1629797598984,-1.34
1629797599000,-1.1
1629797599015,-0.93
1629797599031,-0.86
1629797599046,-0.89
1629797599062,-0.95
1629797599078,-1.02
1629797599093,-1.1
1629797599109,-1.22
1629797599125,-1.41
1629797599140,-1.67
1629797599156,-1.95
1629797599171,-2.2
1629797599187,-2.32
1629797599203,-2.24
1629797599218,-1.94
1629797599234,-1.46
1629797599250,-0.93
1629797599265,-0.5
1629797599281,-0.26
1629797599296,-0.22
1629797599312,-0.29
1629797599328,-0.36
1629797599343,-0.33
1629797599359,-0.19
1629797599375,0.03
1629797599390,0.29
1629797599406,0.6
1629797599421,0.97
1629797599437,1.42
1629797599453,1.87
1629797599468,2.23
1629797599484,2.43
1629797599500,2.45
1629797599515,2.32
1629797599531,2.11
1629797599546,1.82
1629797599562,1.45
1629797599578,1.0
1629797599593,0.52
1629797599609,0.17
1629797599625,0.09
1629797599640,0.37
1629797599656,0.92
1629797599671,1.51
1629797599687,1.87
1629797599703,1.81
1629797599718,1.29
1629797599734,0.47
1629797599750,-0.38
1629797599765,-1.03
1629797599781,-1.32
1629797599796,-1.24
1629797599812,-0.87
1629797599828,-0.4
1629797599843,0.03
1629797599859,0.31
1629797599875,0.39
1629797599890,0.27
1629797599906,-0.04
1629797599921,-0.45
1629797599937,-0.88
1629797599953,-1.18
1629797599968,-1.2
1629797599984,-0.89
1629797600000,-0.32
1629797600015,0.35
1629797600031,0.87
1629797600046,1.06
1629797600062,0.84
1629797600078,0.29
1629797600093,-0.44
1629797600109,-1.16
1629797600125,-1.7
1629797600140,-1.96
1629797600156,-1.96
1629797600171,-1.76
1629797600187,-1.49
1629797600203,-1.28
1629797600218,-1.18
1629797600234,-1.2
1629797600250,-1.3
1629797600265,-1.41
1629797600281,-1.46
1629797600296,-1.44
1629797600312,-1.3
1629797600328,-1.05
1629797600343,-0.68
1629797600359,-0.21
1629797600375,0.28
1629797600390,0.68
1629797600406,0.92
1629797600421,0.96
1629797600437,0.91
1629797600453,0.89
1629797600468,1.03
1629797600484,1.35
1629797600500,1.74
1629797600515,2.05
1629797600531,2.13
1629797600546,1.93
1629797600562,1.54
1629797600578,1.15
1629797600593,0.9
1629797600609,0.86
1629797600625,1.0
1629797600640,1.2
1629797600656,1.32
1629797600671,1.27
1629797600687,1.04
1629797600703,0.66
1629797600718,0.26
1629797600734,-0.06
1629797600750,-0.2
1629797600765,-0.14
1629797600781,0.09
1629797600796,0.38
1629797600812,0.64
1629797600828,0.77
1629797600843,0.74
1629797600859,0.59
1629797600875,0.34
1629797600890,0.03
1629797600906,-0.33
1629797600921,-0.71
1629797600937,-1.07
1629797600953,-1.34
1629797600968,-1.43
1629797600984,-1.29
1629797601000,-0.98
1629797601015,-0.6
1629797601031,-0.31
1629797601046,-0.24
1629797601062,-0.43
1629797601078,-0.8
1629797601093,-1.24
1629797601109,-1.58
1629797601125,-1.73
1629797601140,-1.64
1629797601156,-1.39
1629797601171,-1.06
1629797601187,-0.78
1629797601203,-0.59
1629797601218,-0.53
1629797601234,-0.55
1629797601250,-0.62
1629797601265,-0.7
1629797601281,-0.78
1629797601296,-0.86
1629797601312,-0.9
1629797601328,-0.86
1629797601343,-0.7
1629797601359,-0.39
1629797601375,0.02
1629797601390,0.44
1629797601406,0.74
1629797601421,0.85
1629797601437,0.75
1629797601453,0.53
1629797601468,0.32
1629797601484,0.23
1629797601500,0.31
1629797601515,0.54
1629797601531,0.85
1629797601546,1.14
1629797601562,1.35
1629797601578,1.48
1629797601593,1.52
1629797601609,1.48
1629797601625,1.34
1629797601640,1.04
1629797601656,0.61
1629797601671,0.08
1629797601687,-0.41
1629797601703,-0.73
1629797601718,-0.79
1629797601734,-0.59
1629797601750,-0.21
1629797601765,0.22
1629797601781,0.57
1629797601796,0.74
1629797601812,0.73
1629797601828,0.57
1629797601843,0.37
1629797601859,0.23
1629797601875,0.2
1629797601890,0.27
1629797601906,0.35
1629797601921,0.3
1629797601937,0.06
1629797601953,-0.34
1629797601968,-0.73
1629797601984,-0.96
1629797602000,-0.91
1629797602015,-0.65
1629797602031,-0.32
1629797602046,-0.13
1629797602062,-0.17
1629797602078,-0.42
1629797602093,-0.76
1629797602109,-1.04
1629797602125,-1.19
1629797602140,-1.2
1629797602156,-1.12
1629797602171,-1.0
1629797602187,-0.86
1629797602203,-0.7
1629797602218,-0.52
1629797602234,-0.36
1629797602250,-0.29
1629797602265,-0.36
1629797602281,-0.58
1629797602296,-0.9
1629797602312,-1.21
1629797602328,-1.42
1629797602343,-1.46
1629797602359,-1.32
1629797602375,-1.02
1629797602390,-0.61
1629797602406,-0.15
1629797602421,0.32
1629797602437,0.71
1629797602453,0.97
1629797602468,1.1
1629797602484,1.14
1629797602500,1.15
1629797602515,1.21
1629797602531,1.31
1629797602546,1.37
1629797602562,1.37
1629797602578,1.27
1629797602593,1.18
1629797602609,1.17
1629797602625,1.28
1629797602640,1.42
1629797602656,1.45
1629797602671,1.26
1629797602687,0.88
1629797602703,0.46
1629797602718,0.2
1629797602734,0.25
1629797602750,0.58
1629797602765,1.04
1629797602781,1.42
1629797602796,1.59
1629797602812,1.52
1629797602828,1.31
1629797602843,1.08
1629797602859,0.92
1629797602875,0.85
1629797602890,0.81
1629797602906,0.71
1629797602921,0.44
1629797602937,-0.03
1629797602953,-0.63
1629797602968,-1.21
1629797602984,-1.59
1629797603000,-1.67
1629797603015,-1.42
1629797603031,-0.98
1629797603046,-0.56
1629797603062,-0.33
1629797603078,-0.39
1629797603093,-0.68
1629797603109,-1.07
1629797603125,-1.43
1629797603140,-1.67
1629797603156,-1.79
1629797603171,-1.85
1629797603187,-1.88
1629797603203,-1.89
1629797603218,-1.86
1629797603234,-1.73
1629797603250,-1.48
1629797603265,-1.16
1629797603281,-0.82
1629797603296,-0.55
1629797603312,-0.39
1629797603328,-0.34
1629797603343,-0.32
1629797603359,-0.22
1629797603375,0.0
1629797603390,0.36
1629797603406,0.77
1629797603421,1.11
1629797603437,1.29
1629797603453,1.29
1629797603468,1.17
1629797603484,1.03
1629797603500,0.96
1629797603515,1.0
1629797603531,1.14
1629797603546,1.32
1629797603562,1.49
1629797603578,1.59
1629797603593,1.57
1629797603609,1.36
1629797603625,0.93
1629797603640,0.31
1629797603656,-0.38
1629797603671,-0.95
1629797603687,-1.22
1629797603703,-1.1
1629797603718,-0.68
1629797603734,-0.12
1629797603750,0.37
1629797603765,0.68
1629797603781,0.8
1629797603796,0.81
1629797603812,0.81
1629797603828,0.86
1629797603843,0.95
1629797603859,1.04
1629797603875,1.07
1629797603890,0.99
1629797603906,0.8
1629797603921,0.5
1629797603937,0.14
1629797603953,-0.2
1629797603968,-0.44
1629797603984,-0.51
1629797604000,-0.4
1629797604015,-0.22
1629797604031,-0.11
1629797604046,-0.18
1629797604062,-0.46
1629797604078,-0.86
1629797604093,-1.23
1629797604109,-1.47
1629797604125,-1.55
1629797604140,-1.51
1629797604156,-1.45
1629797604171,-1.42
1629797604187,-1.42
1629797604203,-1.4
1629797604218,-1.32
1629797604234,-1.19
1629797604250,-1.06
1629797604265,-0.98
1629797604281,-0.95
1629797604296,-0.94
1629797604312,-0.84
1629797604328,-0.63
1629797604343,-0.28
1629797604359,0.13
1629797604375,0.49
1629797604390,0.71
1629797604406,0.7
1629797604421,0.5
1629797604437,0.22
1629797604453,-0.0
1629797604468,-0.01
1629797604484,0.23
1629797604500,0.65
1629797604515,1.06
1629797604531,1.26
1629797604546,1.16
1629797604562,0.8
1629797604578,0.37
1629797604593,0.08
1629797604609,0.05
1629797604625,0.3
1629797604640,0.7
1629797604656,1.07
1629797604671,1.31
1629797604687,1.39
1629797604703,1.34
1629797604718,1.2
1629797604734,1.02
1629797604750,0.78
1629797604765,0.52
1629797604781,0.27
1629797604796,0.11
1629797604812,0.08
1629797604828,0.17
1629797604843,0.31
1629797604859,0.43
1629797604875,0.46
1629797604890,0.4
1629797604906,0.26
1629797604921,0.1
1629797604937,-0.06
1629797604953,-0.17
1629797604968,-0.25
1629797604984,-0.29
1629797605000,-0.34
1629797605015,-0.43
1629797605031,-0.63
1629797605046,-0.93
1629797605062,-1.28
1629797605078,-1.6
1629797605093,-1.81
1629797605109,-1.84
1629797605125,-1.71
1629797605140,-1.48
1629797605156,-1.21
1629797605171,-0.98
1629797605187,-0.83
1629797605203,-0.8
1629797605218,-0.9
1629797605234,-1.09
1629797605250,-1.32
1629797605265,-1.51
1629797605281,-1.58
1629797605296,-1.49
1629797605312,-1.26
1629797605328,-0.92
1629797605343,-0.53
1629797605359,-0.11
1629797605375,0.3
1629797605390,0.7
1629797605406,1.04
1629797605421,1.27
1629797605437,1.35
1629797605453,1.27
1629797605468,1.08
1629797605484,0.86
1629797605500,0.72
1629797605515,0.73
1629797605531,0.92
1629797605546,1.24
1629797605562,1.59
1629797605578,1.87
1629797605593,1.96
1629797605609,1.83
1629797605625,1.48
1629797605640,1.02
1629797605656,0.55
1629797605671,0.19
1629797605687,0.02
1629797605703,0.05
1629797605718,0.22
1629797605734,0.41
1629797605750,0.51
1629797605765,0.47
1629797605781,0.29
1629797605796,0.05
1629797605812,-0.15
1629797605828,-0.21
1629797605843,-0.09
1629797605859,0.19
1629797605875,0.53
1629797605890,0.8
1629797605906,0.88
1629797605921,0.7
1629797605937,0.28
1629797605953,-0.29
1629797605968,-0.83
1629797605984,-1.18
1629797606000,-1.25
1629797606015,-1.06
1629797606031,-0.73
1629797606046,-0.42
1629797606062,-0.24
1629797606078,-0.26
1629797606093,-0.46
1629797606109,-0.8
1629797606125,-1.2
1629797606140,-1.6
1629797606156,-1.9
1629797606171,-2.05
1629797606187,-2.01
1629797606203,-1.79
1629797606218,-1.51
1629797606234,-1.3
1629797606250,-1.25
1629797606265,-1.38
1629797606281,-1.54
1629797606296,-1.57
1629797606312,-1.3
1629797606328,-0.72
1629797606343,0.06
1629797606359,0.86
1629797606375,1.47
1629797606390,1.81
1629797606406,1.9
1629797606421,1.83
1629797606437,1.71
1629797606453,1.59
1629797606468,1.46
1629797606484,1.32
1629797606500,1.18
1629797606515,1.06
1629797606531,0.99
1629797606546,0.94
1629797606562,0.89
1629797606578,0.8
1629797606593,0.68
1629797606609,0.58
1629797606625,0.55
1629797606640,0.65
1629797606656,0.82
1629797606671,1.02
1629797606687,1.16
1629797606703,1.21
1629797606718,1.16
1629797606734,1.05
1629797606750,0.91
1629797606765,0.78
1629797606781,0.69
1629797606796,0.63
1629797606812,0.61
1629797606828,0.62
1629797606843,0.6
1629797606859,0.52
1629797606875,0.35
1629797606890,0.07
1629797606906,-0.28
1629797606921,-0.64
1629797606937,-0.95
1629797606953,-1.14
1629797606968,-1.22
1629797606984,-1.22
1629797607000,-1.21
1629797607015,-1.25
1629797607031,-1.38
1629797607046,-1.58
1629797607062,-1.78
1629797607078,-1.9
1629797607093,-1.88
1629797607109,-1.72
1629797607125,-1.46
1629797607140,-1.17
1629797607156,-0.93
1629797607171,-0.82
1629797607187,-0.85
1629797607203,-0.98
1629797607218,-1.1
1629797607234,-1.09
1629797607250,-0.85
1629797607265,-0.34
1629797607281,0.35
1629797607296,1.07
1629797607312,1.67
1629797607328,2.03
1629797607343,2.14
1629797607359,2.01
1629797607375,1.74
1629797607390,1.37
1629797607406,0.98
1629797607421,0.6
1629797607437,0.3
1629797607453,0.11
1629797607468,0.09
1629797607484,0.24
1629797607500,0.52
1629797607515,0.82
1629797607531,1.05
1629797607546,1.12
1629797607562,1.05
1629797607578,0.89
1629797607593,0.73
1629797607609,0.63
1629797607625,0.6
1629797607640,0.57
1629797607656,0.47
1629797607671,0.25
1629797607687,-0.05
1629797607703,-0.35
1629797607718,-0.54
1629797607734,-0.56
1629797607750,-0.37
1629797607765,-0.04
1629797607781,0.35
1629797607796,0.69
1629797607812,0.89
1629797607828,0.88
1629797607843,0.65
1629797607859,0.27
1629797607875,-0.18
1629797607890,-0.6
1629797607906,-0.9
1629797607921,-1.06
1629797607937,-1.05
1629797607953,-0.94
1629797607968,-0.77
1629797607984,-0.64
1629797608000,-0.63
1629797608015,-0.8
1629797608031,-1.11
1629797608046,-1.47
1629797608062,-1.76
1629797608078,-1.9
1629797608093,-1.87
1629797608109,-1.75
1629797608125,-1.62
1629797608140,-1.51
1629797608156,-1.41
1629797608171,-1.26
1629797608187,-1.04
1629797608203,-0.78
1629797608218,-0.53
1629797608234,-0.3
1629797608250,-0.05
1629797608265,0.28
1629797608281,0.72
1629797608296,1.15
1629797608312,1.41
1629797608328,1.4
1629797608343,1.14
1629797608359,0.81
1629797608375,0.65
1629797608390,0.79
1629797608406,1.2
1629797608421,1.68
1629797608437,1.98
1629797608453,1.97
1629797608468,1.65
1629797608484,1.18
1629797608500,0.73
1629797608515,0.43
1629797608531,0.33
1629797608546,0.39
1629797608562,0.52
1629797608578,0.66
1629797608593,0.78
1629797608609,0.85
1629797608625,0.85
1629797608640,0.76
1629797608656,0.59
1629797608671,0.33
1629797608687,0.04
1629797608703,-0.25
1629797608718,-0.48
1629797608734,-0.63
1629797608750,-0.69
1629797608765,-0.71
1629797608781,-0.72
1629797608796,-0.75
1629797608812,-0.8
1629797608828,-0.83
1629797608843,-0.81
1629797608859,-0.74
1629797608875,-0.68
1629797608890,-0.69
1629797608906,-0.83
1629797608921,-1.09
1629797608937,-1.39
1629797608953,-1.59
1629797608968,-1.61
1629797608984,-1.42
1629797609000,-1.09
1629797609015,-0.74
1629797609031,-0.49
1629797609046,-0.36
1629797609062,-0.33
1629797609078,-0.33
1629797609093,-0.32
1629797609109,-0.27
1629797609125,-0.21
1629797609140,-0.11
1629797609156,0.03
1629797609171,0.24
1629797609187,0.55
1629797609203,0.92
1629797609218,1.26
1629797609234,1.49
1629797609250,1.49
1629797609265,1.26
1629797609281,0.85
1629797609296,0.39
1629797609312,0.02
1629797609328,-0.16
1629797609343,-0.1
1629797609359,0.11
1629797609375,0.36
1629797609390,0.53
1629797609406,0.54
1629797609421,0.4
1629797609437,0.16
1629797609453,-0.09
1629797609468,-0.33
1629797609484,-0.5
1629797609500,-0.6
1629797609515,-0.59
1629797609531,-0.44
1629797609546,-0.14
1629797609562,0.23
1629797609578,0.58
1629797609593,0.79
1629797609609,0.81
1629797609625,0.64
1629797609640,0.37
1629797609656,0.09
1629797609671,-0.11
1629797609687,-0.24
1629797609703,-0.31
1629797609718,-0.37
1629797609734,-0.42
1629797609750,-0.47
1629797609765,-0.48
1629797609781,-0.42
1629797609796,-0.3
1629797609812,-0.13
1629797609828,0.05
1629797609843,0.19
1629797609859,0.25
1629797609875,0.23
1629797609890,0.11
1629797609906,-0.09
1629797609921,-0.31
1629797609937,-0.51
1629797609953,-0.61
1629797609968,-0.58
1629797609984,-0.41
1629797610000,-0.17
1629797610015,0.05
1629797610031,0.14
1629797610046,0.08
1629797610062,-0.12
1629797610078,-0.36
1629797610093,-0.5
1629797610109,-0.44
1629797610125,-0.12
1629797610140,0.37
1629797610156,0.92
1629797610171,1.35
1629797610187,1.54
1629797610203,1.46
1629797610218,1.15
1629797610234,0.73
1629797610250,0.3
1629797610265,-0.02
1629797610281,-0.21
1629797610296,-0.22
1629797610312,-0.05
1629797610328,0.31
1629797610343,0.81
1629797610359,1.37
1629797610375,1.83
1629797610390,2.03
1629797610406,1.87
1629797610421,1.38
1629797610437,0.71
1629797610453,0.09
1629797610468,-0.28
1629797610484,-0.32
1629797610500,-0.08
1629797610515,0.25
1629797610531,0.48
1629797610546,0.5
1629797610562,0.29
1629797610578,-0.09
1629797610593,-0.56
1629797610609,-1.02
1629797610625,-1.44
1629797610640,-1.78
1629797610656,-1.98
1629797610671,-1.99
1629797610687,-1.79
1629797610703,-1.41
1629797610718,-0.98
1629797610734,-0.62
1629797610750,-0.42
1629797610765,-0.42
1629797610781,-0.54
1629797610796,-0.71
1629797610812,-0.85
1629797610828,-0.93
1629797610843,-0.9
1629797610859,-0.76
1629797610875,-0.51
1629797610890,-0.14
1629797610906,0.28
1629797610921,0.72
1629797610937,1.1
1629797610953,1.36
1629797610968,1.44
1629797610984,1.3
1629797611000,0.96
1629797611015,0.49
1629797611031,0.06
1629797611046,-0.2
1629797611062,-0.17
1629797611078,0.12
1629797611093,0.53
1629797611109,0.91
1629797611125,1.14
1629797611140,1.17
1629797611156,1.06
1629797611171,0.88
1629797611187,0.64
1629797611203,0.34
1629797611218,-0.02
1629797611234,-0.41
1629797611250,-0.73
1629797611265,-0.87
1629797611281,-0.76
1629797611296,-0.41
1629797611312,0.12
1629797611328,0.69
1629797611343,1.17
1629797611359,1.42
1629797611375,1.38
1629797611390,1.02
1629797611406,0.43
1629797611421,-0.21
1629797611437,-0.7
1629797611453,-0.87
1629797611468,-0.7
1629797611484,-0.29
1629797611500,0.15
1629797611515,0.44
1629797611531,0.45
1629797611546,0.22
1629797611562,-0.15
1629797611578,-0.54
1629797611593,-0.88
1629797611609,-1.19
1629797611625,-1.49
1629797611640,-1.76
1629797611656,-1.95
1629797611671,-1.99
1629797611687,-1.84
1629797611703,-1.57
1629797611718,-1.31
1629797611734,-1.15
1629797611750,-1.12
1629797611765,-1.17
1629797611781,-1.19
1629797611796,-1.09
1629797611812,-0.88
1629797611828,-0.61
1629797611843,-0.34
1629797611859,-0.06
1629797611875,0.26
1629797611890,0.63
1629797611906,1.04
1629797611921,1.38
1629797611937,1.53
1629797611953,1.47
1629797611968,1.27
1629797611984,1.09
1629797612000,1.07
1629797612015,1.22
1629797612031,1.47
1629797612046,1.66
1629797612062,1.68
1629797612078,1.54
1629797612093,1.31
1629797612109,1.09
1629797612125,0.94
1629797612140,0.83
1629797612156,0.71
1629797612171,0.56
1629797612187,0.4
1629797612203,0.29
1629797612218,0.24
1629797612234,0.22
1629797612250,0.17
1629797612265,0.05
1629797612281,-0.12
1629797612296,-0.26
1629797612312,-0.31
1629797612328,-0.22
1629797612343,-0.03
1629797612359,0.19
1629797612375,0.41
1629797612390,0.56
1629797612406,0.62
1629797612421,0.51
1629797612437,0.2
1629797612453,-0.31
1629797612468,-0.94
1629797612484,-1.52
1629797612500,-1.87
1629797612515,-1.91
1629797612531,-1.66
1629797612546,-1.29
1629797612562,-0.98
1629797612578,-0.85
1629797612593,-0.94
1629797612609,-1.14
1629797612625,-1.35
1629797612640,-1.49
1629797612656,-1.53
1629797612671,-1.51
1629797612687,-1.44
1629797612703,-1.28
1629797612718,-1.01
1629797612734,-0.63
1629797612750,-0.19
1629797612765,0.18
1629797612781,0.36
1629797612796,0.31
1629797612812,0.05
1629797612828,-0.29
1629797612843,-0.57
1629797612859,-0.67
1629797612875,-0.54
1629797612890,-0.26
1629797612906,0.08
1629797612921,0.39
1629797612937,0.62
1629797612953,0.81
1629797612968,1.01
1629797612984,1.23
1629797613000,1.45
1629797613015,1.59
1629797613031,1.58
1629797613046,1.41
1629797613062,1.17
1629797613078,0.98
1629797613093,0.9
1629797613109,0.94
1629797613125,1.05
1629797613140,1.12
1629797613156,1.11
1629797613171,1.01
1629797613187,0.89
1629797613203,0.78
1629797613218,0.68
1629797613234,0.58
1629797613250,0.43
1629797613265,0.24
1629797613281,0.07
1629797613296,-0.02
1629797613312,0.05
1629797613328,0.26
1629797613343,0.55
1629797613359,0.79
1629797613375,0.85
1629797613390,0.68
1629797613406,0.31
1629797613421,-0.15
1629797613437,-0.6
1629797613453,-0.95
1629797613468,-1.18
1629797613484,-1.33
1629797613500,-1.41
1629797613515,-1.39
1629797613531,-1.26
1629797613546,-1.01
1629797613562,-0.71
1629797613578,-0.46
1629797613593,-0.39
1629797613609,-0.54
1629797613625,-0.88
1629797613640,-1.29
1629797613656,-1.64
1629797613671,-1.85
1629797613687,-1.89
1629797613703,-1.78
1629797613718,-1.55
1629797613734,-1.23
1629797613750,-0.87
1629797613765,-0.5
1629797613781,-0.21
1629797613796,-0.07
1629797613812,-0.1
1629797613828,-0.26
1629797613843,-0.47
1629797613859,-0.6
1629797613875,-0.58
1629797613890,-0.41
1629797613906,-0.14
1629797613921,0.16
1629797613937,0.47
1629797613953,0.78
1629797613968,1.16
1629797613984,1.56
1629797614000,1.92
1629797614015,2.1
1629797614031,2.03
1629797614046,1.76
1629797614062,1.41
1629797614078,1.16
1629797614093,1.09
1629797614109,1.19
1629797614125,1.35
1629797614140,1.45
1629797614156,1.42
1629797614171,1.28
1629797614187,1.1
1629797614203,0.91
1629797614218,0.76
1629797614234,0.65
1629797614250,0.56
1629797614265,0.54
1629797614281,0.59
1629797614296,0.69
1629797614312,0.78
1629797614328,0.75
1629797614343,0.57
1629797614359,0.25
1629797614375,-0.14
1629797614390,-0.5
1629797614406,-0.76
1629797614421,-0.9
1629797614437,-0.94
1629797614453,-0.92
1629797614468,-0.84
1629797614484,-0.7
1629797614500,-0.52
1629797614515,-0.3
1629797614531,-0.09
1629797614546,0.05
1629797614562,0.04
1629797614578,-0.16
1629797614593,-0.56
1629797614609,-1.09
1629797614625,-1.65
1629797614640,-2.11
1629797614656,-2.39
1629797614671,-2.43
1629797614687,-2.25
1629797614703,-1.92
1629797614718,-1.5
1629797614734,-1.1
1629797614750,-0.77
1629797614765,-0.56
1629797614781,-0.43
1629797614796,-0.35
1629797614812,-0.24
1629797614828,-0.06
1629797614843,0.16
1629797614859,0.38
1629797614875,0.48
1629797614890,0.4
1629797614906,0.17
1629797614921,-0.11
1629797614937,-0.3
1629797614953,-0.26
1629797614968,0.03
1629797614984,0.5
1629797615000,1.03
1629797615015,1.48
1629797615031,1.77
1629797615046,1.89
1629797615062,1.87
1629797615078,1.76
1629797615093,1.64
1629797615109,1.51
1629797615125,1.39
1629797615140,1.23
1629797615156,1.03
1629797615171,0.77
1629797615187,0.51
1629797615203,0.3
1629797615218,0.2
1629797615234,0.22
1629797615250,0.34
1629797615265,0.48
1629797615281,0.57
1629797615296,0.57
1629797615312,0.47
1629797615328,0.3
1629797615343,0.06
1629797615359,-0.17
1629797615375,-0.36
1629797615390,-0.45
1629797615406,-0.42
1629797615421,-0.28
1629797615437,-0.09
1629797615453,0.03
1629797615468,0.02
1629797615484,-0.14
1629797615500,-0.39
1629797615515,-0.63
1629797615531,-0.79
1629797615546,-0.86
1629797615562,-0.9
1629797615578,-0.96
1629797615593,-1.11
1629797615609,-1.31
1629797615625,-1.5
1629797615640,-1.59
1629797615656,-1.54
1629797615671,-1.39
1629797615687,-1.25
1629797615703,-1.21
1629797615718,-1.28
1629797615734,-1.39
1629797615750,-1.41
1629797615765,-1.28
1629797615781,-1.0
1629797615796,-0.71
1629797615812,-0.54
1629797615828,-0.54
1629797615843,-0.68
1629797615859,-0.81
1629797615875,-0.79
1629797615890,-0.52
1629797615906,-0.06
1629797615921,0.47
1629797615937,0.92
1629797615953,1.19
1629797615968,1.26
1629797615984,1.18
1629797616000,1.07
1629797616015,1.02
1629797616031,1.08
1629797616046,1.23
1629797616062,1.37
1629797616078,1.41
1629797616093,1.33
1629797616109,1.17
1629797616125,1.06
1629797616140,1.09
1629797616156,1.27
1629797616171,1.52
1629797616187,1.69
1629797616203,1.65
1629797616218,1.37
1629797616234,0.93
1629797616250,0.49
1629797616265,0.19
1629797616281,0.08
1629797616296,0.11
1629797616312,0.2
1629797616328,0.24
1629797616343,0.23
1629797616359,0.2
1629797616375,0.23
1629797616390,0.34
1629797616406,0.49
1629797616421,0.58
1629797616437,0.5
1629797616453,0.23
1629797616468,-0.18
1629797616484,-0.58
1629797616500,-0.82
1629797616515,-0.81
1629797616531,-0.61
1629797616546,-0.32
1629797616562,-0.08
1629797616578,0.01
1629797616593,-0.02
1629797616609,-0.14
1629797616625,-0.27
1629797616640,-0.41
1629797616656,-0.61
1629797616671,-0.94
1629797616687,-1.45
1629797616703,-2.09
1629797616718,-2.71
1629797616734,-3.16
1629797616750,-3.29
1629797616765,-3.06
1629797616781,-2.55
1629797616796,-1.91
1629797616812,-1.34
1629797616828,-0.95
1629797616843,-0.75
1629797616859,-0.65
1629797616875,-0.53
1629797616890,-0.28
1629797616906,0.08
1629797616921,0.47
1629797616937,0.8
1629797616953,1.0
1629797616968,1.11
1629797616984,1.21
1629797617000,1.33
1629797617015,1.47
1629797617031,1.56
1629797617046,1.5
1629797617062,1.28
1629797617078,0.95
1629797617093,0.62
1629797617109,0.42
1629797617125,0.43
1629797617140,0.59
1629797617156,0.81
1629797617171,0.95
1629797617187,0.93
1629797617203,0.74
1629797617218,0.47
1629797617234,0.24
1629797617250,0.14
1629797617265,0.2
1629797617281,0.32
1629797617296,0.43
1629797617312,0.42
1629797617328,0.28
1629797617343,0.07
1629797617359,-0.13
1629797617375,-0.25
1629797617390,-0.25
1629797617406,-0.13
1629797617421,0.07
1629797617437,0.33
1629797617453,0.57
1629797617468,0.7
1629797617484,0.66
1629797617500,0.4
1629797617515,-0.02
1629797617531,-0.47
1629797617546,-0.79
1629797617562,-0.89
1629797617578,-0.78
1629797617593,-0.56
1629797617609,-0.38
1629797617625,-0.32
1629797617640,-0.37
1629797617656,-0.49
1629797617671,-0.62
1629797617687,-0.75
1629797617703,-0.92
1629797617718,-1.12
1629797617734,-1.31
1629797617750,-1.41
1629797617765,-1.38
1629797617781,-1.26
1629797617796,-1.14
1629797617812,-1.09
1629797617828,-1.14
1629797617843,-1.19
1629797617859,-1.13
1629797617875,-0.86
1629797617890,-0.44
1629797617906,0.01
1629797617921,0.34
1629797617937,0.46
1629797617953,0.4
1629797617968,0.26
1629797617984,0.17
1629797618000,0.18
1629797618015,0.29
1629797618031,0.47
1629797618046,0.7
1629797618062,0.98
1629797618078,1.3
1629797618093,1.62
1629797618109,1.85
1629797618125,1.89
1629797618140,1.67
1629797618156,1.24
1629797618171,0.72
1629797618187,0.31
1629797618203,0.14
1629797618218,0.26
1629797618234,0.58
1629797618250,0.91
1629797618265,1.11
1629797618281,1.1
1629797618296,0.88
1629797618312,0.55
1629797618328,0.17
1629797618343,-0.18
1629797618359,-0.48
1629797618375,-0.66
1629797618390,-0.68
1629797618406,-0.49
1629797618421,-0.13
1629797618437,0.27
1629797618453,0.5
1629797618468,0.42
1629797618484,0.03
1629797618500,-0.52
1629797618515,-1.01
1629797618531,-1.24
1629797618546,-1.15
1629797618562,-0.84
1629797618578,-0.46
1629797618593,-0.17
1629797618609,-0.05
1629797618625,-0.1
1629797618640,-0.25
1629797618656,-0.46
1629797618671,-0.7
1629797618687,-0.95
1629797618703,-1.14
1629797618718,-1.2
1629797618734,-1.06
1629797618750,-0.69
1629797618765,-0.16
1629797618781,0.37
1629797618796,0.77
1629797618812,0.91
1629797618828,0.79
1629797618843,0.52
1629797618859,0.19
1629797618875,-0.09
1629797618890,-0.29
1629797618906,-0.43
1629797618921,-0.54
1629797618937,-0.62
1629797618953,-0.63
1629797618968,-0.53
1629797618984,-0.31
1629797619000,0.01
1629797619015,0.41
1629797619031,0.83
1629797619046,1.23
1629797619062,1.56
1629797619078,1.74
1629797619093,1.73
1629797619109,1.51
1629797619125,1.19
1629797619140,0.89
1629797619156,0.72
1629797619171,0.71
1629797619187,0.78
1629797619203,0.85
1629797619218,0.84
1629797619234,0.76
1629797619250,0.68
1629797619265,0.65
1629797619281,0.67
1629797619296,0.7
1629797619312,0.7
1629797619328,0.63
1629797619343,0.56
1629797619359,0.53
1629797619375,0.56
1629797619390,0.63
1629797619406,0.66
1629797619421,0.62
1629797619437,0.51
1629797619453,0.33
1629797619468,0.12
1629797619484,-0.11
1629797619500,-0.39
1629797619515,-0.69
1629797619531,-0.97
1629797619546,-1.16
1629797619562,-1.19
1629797619578,-1.06
1629797619593,-0.83
1629797619609,-0.63
1629797619625,-0.57
1629797619640,-0.7
1629797619656,-1.01
1629797619671,-1.39
1629797619687,-1.69
1629797619703,-1.82
1629797619718,-1.73
1629797619734,-1.46
1629797619750,-1.16
1629797619765,-0.95
1629797619781,-0.93
1629797619796,-1.11
1629797619812,-1.41
1629797619828,-1.67
1629797619843,-1.75
1629797619859,-1.52
1629797619875,-0.99
1629797619890,-0.28
1629797619906,0.42
1629797619921,0.92
1629797619937,1.12
1629797619953,1.02
1629797619968,0.71
1629797619984,0.36
1629797620000,0.1
1629797620015,0.01
1629797620031,0.09
1629797620046,0.29
1629797620062,0.56
1629797620078,0.82
1629797620093,1.02
1629797620109,1.1
1629797620125,1.07
1629797620140,0.95
1629797620156,0.84
1629797620171,0.82
1629797620187,0.93
1629797620203,1.12
1629797620218,1.33
1629797620234,1.48
1629797620250,1.55
1629797620265,1.56
1629797620281,1.52
1629797620296,1.41
1629797620312,1.16
1629797620328,0.74
1629797620343,0.15
1629797620359,-0.46
1629797620375,-0.92
1629797620390,-1.07
1629797620406,-0.86
1629797620421,-0.41
1629797620437,0.1
1629797620453,0.45
1629797620468,0.54
1629797620484,0.37
1629797620500,0.02
1629797620515,-0.4
1629797620531,-0.77
1629797620546,-1.05
1629797620562,-1.21
1629797620578,-1.25
1629797620593,-1.21
1629797620609,-1.07
1629797620625,-0.87
1629797620640,-0.65
1629797620656,-0.47
1629797620671,-0.42
1629797620687,-0.53
1629797620703,-0.8
1629797620718,-1.14
1629797620734,-1.38
1629797620750,-1.41
1629797620765,-1.19
1629797620781,-0.83
1629797620796,-0.47
1629797620812,-0.28
1629797620828,-0.32
1629797620843,-0.54
1629797620859,-0.81
1629797620875,-1.01
1629797620890,-1.05
1629797620906,-0.95
1629797620921,-0.75
1629797620937,-0.53
1629797620953,-0.33
1629797620968,-0.16
1629797620984,0.0
1629797621000,0.19
1629797621015,0.41
1629797621031,0.66
1629797621046,0.88
1629797621062,1.03
1629797621078,1.1
1629797621093,1.08
1629797621109,1.03
1629797621125,0.99
1629797621140,1.0
1629797621156,1.02
1629797621171,1.0
1629797621187,0.91
1629797621203,0.73
1629797621218,0.52
1629797621234,0.37
1629797621250,0.32
1629797621265,0.4
1629797621281,0.55
1629797621296,0.71
1629797621312,0.8
1629797621328,0.8
1629797621343,0.73
1629797621359,0.64
1629797621375,0.55
1629797621390,0.49
1629797621406,0.42
1629797621421,0.35
1629797621437,0.26
1629797621453,0.18
1629797621468,0.13
1629797621484,0.11
1629797621500,0.11
1629797621515,0.14
1629797621531,0.19
1629797621546,0.28
1629797621562,0.37
1629797621578,0.4
1629797621593,0.32
1629797621609,0.08
1629797621625,-0.26
1629797621640,-0.62
1629797621656,-0.87
1629797621671,-0.94
1629797621687,-0.86
1629797621703,-0.73
1629797621718,-0.68
1629797621734,-0.78
1629797621750,-0.99
1629797621765,-1.21
1629797621781,-1.32
1629797621796,-1.26
1629797621812,-1.07
1629797621828,-0.87
1629797621843,-0.78
1629797621859,-0.84
1629797621875,-1.03
1629797621890,-1.26
1629797621906,-1.46
1629797621921,-1.59
1629797621937,-1.65
1629797621953,-1.66
1629797621968,-1.59
1629797621984,-1.38
1629797622000,-0.98
1629797622015,-0.4
1629797622031,0.26
1629797622046,0.85
1629797622062,1.23
1629797622078,1.34
1629797622093,1.21
1629797622109,0.95
1629797622125,0.73
1629797622140,0.69
1629797622156,0.87
1629797622171,1.21
1629797622187,1.59
1629797622203,1.83
1629797622218,1.82
1629797622234,1.55
1629797622250,1.16
1629797622265,0.81
1629797622281,0.63
1629797622296,0.66
1629797622312,0.79
1629797622328,0.9
1629797622343,0.86
1629797622359,0.67
1629797622375,0.42
1629797622390,0.24
1629797622406,0.19
1629797622421,0.26
1629797622437,0.38
1629797622453,0.49
1629797622468,0.51
1629797622484,0.44
1629797622500,0.27
1629797622515,0.04
1629797622531,-0.23
1629797622546,-0.48
1629797622562,-0.66
1629797622578,-0.74
1629797622593,-0.68
1629797622609,-0.51
1629797622625,-0.28
1629797622640,-0.05
1629797622656,0.14
1629797622671,0.26
1629797622687,0.32
1629797622703,0.31
1629797622718,0.22
1629797622734,0.04
1629797622750,-0.24
1629797622765,-0.58
1629797622781,-0.92
1629797622796,-1.18
1629797622812,-1.33
1629797622828,-1.34
1629797622843,-1.25
1629797622859,-1.11
1629797622875,-1.0
1629797622890,-0.94
1629797622906,-0.95
1629797622921,-0.99
1629797622937,-1.01
1629797622953,-0.97
1629797622968,-0.84
1629797622984,-0.63
1629797623000,-0.37
1629797623015,-0.07
1629797623031,0.25
1629797623046,0.57
1629797623062,0.86
1629797623078,1.1
1629797623093,1.24
1629797623109,1.25
1629797623125,1.18
1629797623140,1.11
1629797623156,1.12
1629797623171,1.24
1629797623187,1.43
1629797623203,1.57
1629797623218,1.57
1629797623234,1.4
1629797623250,1.12
1629797623265,0.85
1629797623281,0.7
1629797623296,0.68
1629797623312,0.72
1629797623328,0.72
1629797623343,0.61
1629797623359,0.4
1629797623375,0.19
1629797623390,0.1
1629797623406,0.18
1629797623421,0.39
1629797623437,0.64
1629797623453,0.8
1629797623468,0.79
1629797623484,0.61
1629797623500,0.31
1629797623515,-0.0
1629797623531,-0.24
1629797623546,-0.39
1629797623562,-0.47
1629797623578,-0.54
1629797623593,-0.63
1629797623609,-0.75
1629797623625,-0.86
1629797623640,-0.93
1629797623656,-0.91
1629797623671,-0.81
1629797623687,-0.67
1629797623703,-0.53
1629797623718,-0.47
1629797623734,-0.52
1629797623750,-0.69
1629797623765,-0.95
1629797623781,-1.26
1629797623796,-1.55
1629797623812,-1.75
1629797623828,-1.8
1629797623843,-1.69
1629797623859,-1.47
1629797623875,-1.19
1629797623890,-0.94
1629797623906,-0.76
1629797623921,-0.67
1629797623937,-0.67
1629797623953,-0.69
1629797623968,-0.67
1629797623984,-0.54
1629797624000,-0.31
1629797624015,0.01
1629797624031,0.35
1629797624046,0.64
1629797624062,0.83
1629797624078,0.87
1629797624093,0.79
1629797624109,0.61
1629797624125,0.43
1629797624140,0.34
1629797624156,0.39
1629797624171,0.58
1629797624187,0.86
1629797624203,1.14
1629797624218,1.32
1629797624234,1.37
1629797624250,1.32
1629797624265,1.25
1629797624281,1.2
1629797624296,1.2
1629797624312,1.19
1629797624328,1.1
1629797624343,0.9
