timestamp,bvp
1631023450734,-0.39
1631023450750,-1.06
1631023450765,-1.52
1631023450781,-1.67
1631023450796,-1.49
1631023450812,-1.13
1631023450828,-0.86
1631023450843,-0.95
1631023450859,-1.57
1631023450875,-2.73
1631023450890,-4.3
1631023450906,-6.07
1631023450921,-7.82
1631023450937,-9.35
1631023450953,-10.44
1631023450968,-10.88
1631023450984,-10.48
1631023451000,-9.15
1631023451015,-6.98
1631023451031,-4.29
1631023451046,-1.51
1631023451062,0.91
1631023451078,2.65
1631023451093,3.57
1631023451109,3.79
1631023451125,3.57
1631023451140,3.22
1631023451156,3.01
1631023451171,3.05
1631023451187,3.3
1631023451203,3.6
1631023451218,3.81
1631023451234,3.81
1631023451250,3.64
1631023451265,3.38
1631023451281,3.13
1631023451296,2.95
1631023451312,2.8
1631023451328,2.63
1631023451343,2.41
1631023451359,2.18
1631023451375,1.99
1631023451390,1.91
1631023451406,1.87
1631023451421,1.79
1631023451437,1.55
1631023451453,1.14
1631023451468,0.66
1631023451484,0.29
1631023451500,0.19
1631023451515,0.39
1631023451531,0.75
1631023451546,1.09
1631023451562,1.23
1631023451578,1.1
1631023451593,0.77
1631023451609,0.35
1631023451625,-0.09
1631023451640,-0.54
1631023451656,-1.08
1631023451671,-1.78
1631023451687,-2.69
1631023451703,-3.78
1631023451718,-4.99
1631023451734,-6.21
1631023451750,-7.31
1631023451765,-8.13
1631023451781,-8.51
1631023451796,-8.37
1631023451812,-7.68
1631023451828,-6.54
1631023451843,-5.12
1631023451859,-3.58
1631023451875,-2.06
1631023451890,-0.67
1631023451906,0.48
1631023451921,1.32
1631023451937,1.81
1631023451953,2.0
1631023451968,2.02
1631023451984,2.01
1631023452000,2.13
1631023452015,2.42
1631023452031,2.85
1631023452046,3.37
1631023452062,3.88
1631023452078,4.3
1631023452093,4.55
1631023452109,4.55
1631023452125,4.28
1631023452140,3.77
1631023452156,3.11
1631023452171,2.41
1631023452187,1.76
1631023452203,1.22
1631023452218,0.77
1631023452234,0.4
1631023452250,0.12
1631023452265,-0.05
1631023452281,-0.07
1631023452296,0.04
1631023452312,0.23
1631023452328,0.46
1631023452343,0.68
1631023452359,0.88
1631023452375,1.1
1631023452390,1.3
1631023452406,1.46
1631023452421,1.5
1631023452437,1.35
1631023452453,0.96
1631023452468,0.37
1631023452484,-0.37
1631023452500,-1.16
1631023452515,-1.95
1631023452531,-2.68
1631023452546,-3.36
1631023452562,-4.03
1631023452578,-4.74
1631023452593,-5.55
1631023452609,-6.43
1631023452625,-7.3
1631023452640,-8.0
1631023452656,-8.32
1631023452671,-8.1
1631023452687,-7.24
1631023452703,-5.75
1631023452718,-3.8
1631023452734,-1.62
1631023452750,0.48
1631023452765,2.23
1631023452781,3.46
1631023452796,4.23
1631023452812,4.75
1631023452828,5.31
1631023452843,6.15
1631023452859,7.26
1631023452875,8.42
1631023452890,9.24
1631023452906,9.41
1631023452921,8.89
1631023452937,7.98
1631023452953,7.2
1631023452968,7.06
1631023452984,7.85
1631023453000,9.45
1631023453015,11.49
1631023453031,13.45
1631023453046,14.88
1631023453062,15.49
1631023453078,15.18
1631023453093,13.93
1631023453109,11.94
1631023453125,9.63
1631023453140,7.62
1631023453156,6.57
1631023453171,6.76
1631023453187,7.88
1631023453203,9.02
1631023453218,9.11
1631023453234,7.55
1631023453250,4.72
1631023453265,1.97
1631023453281,1.06
1631023453296,3.24
1631023453312,8.58
1631023453328,15.82
1631023453343,22.94
1631023453359,28.01
1631023453375,30.02
1631023453390,29.12
1631023453406,26.41
1631023453421,23.27
1631023453437,20.73
1631023453453,19.19
1631023453468,18.41
1631023453484,17.92
1631023453500,17.31
1631023453515,16.48
1631023453531,15.53
1631023453546,14.55
1631023453562,13.48
1631023453578,12.12
1631023453593,10.33
1631023453609,8.17
1631023453625,5.87
1631023453640,3.56
1631023453656,0.98
1631023453671,-2.63
1631023453687,-8.16
1631023453703,-16.04
1631023453718,-25.48
1631023453734,-34.35
1631023453750,-39.78
1631023453765,-39.29
1631023453781,-32.05
1631023453796,-19.41
1631023453812,-4.55
1631023453828,8.82
1631023453843,17.87
1631023453859,21.6
1631023453875,20.91
1631023453890,17.74
1631023453906,14.03
1631023453921,11.01
1631023453937,9.03
1631023453953,7.74
1631023453968,6.29
1631023453984,3.28
1631023454000,-3.13
1631023454015,-14.81
1631023454031,-32.69
1631023454046,-55.83
1631023454062,-81.02
1631023454078,-103.5
1631023454093,-118.58
1631023454109,-123.31
1631023454125,-117.37
1631023454140,-102.72
1631023454156,-82.35
1631023454171,-58.99
1631023454187,-34.52
1631023454203,-10.25
1631023454218,12.47
1631023454234,31.85
1631023454250,45.97
1631023454265,53.58
1631023454281,54.73
1631023454296,50.86
1631023454312,44.2
1631023454328,36.88
1631023454343,30.15
1631023454359,24.2
1631023454375,18.51
1631023454390,12.43
1631023454406,5.75
1631023454421,-1.21
1631023454437,-7.68
1631023454453,-12.91
1631023454468,-16.4
1631023454484,-18.17
1631023454500,-18.62
1631023454515,-18.34
1631023454531,-17.88
1631023454546,-17.49
1631023454562,-17.14
1631023454578,-16.53
1631023454593,-15.31
1631023454609,-13.25
1631023454625,-10.37
1631023454640,-6.99
1631023454656,-3.63
1631023454671,-0.81
1631023454687,1.04
1631023454703,1.76
1631023454718,1.44
1631023454734,0.33
1631023454750,-1.26
1631023454765,-3.07
1631023454781,-4.93
1631023454796,-6.78
1631023454812,-8.59
1631023454828,-10.33
1631023454843,-11.91
1631023454859,-13.19
1631023454875,-14.05
1631023454890,-14.4
1631023454906,-14.21
1631023454921,-13.55
1631023454937,-12.52
1631023454953,-11.24
1631023454968,-9.84
1631023454984,-8.51
1631023455000,-7.47
1631023455015,-6.91
1631023455031,-6.92
1631023455046,-7.4
1631023455062,-8.01
1631023455078,-8.28
1631023455093,-7.83
1631023455109,-6.49
1631023455125,-4.45
1631023455140,-2.13
1631023455156,-0.05
1631023455171,1.41
1631023455187,2.12
1631023455203,2.23
1631023455218,2.08
1631023455234,2.01
1631023455250,2.31
1631023455265,3.05
1631023455281,4.16
1631023455296,5.44
1631023455312,6.69
1631023455328,7.83
1631023455343,8.91
1631023455359,10.14
1631023455375,11.76
1631023455390,13.91
1631023455406,16.54
1631023455421,19.43
1631023455437,22.17
1631023455453,24.38
1631023455468,25.69
1631023455484,25.89
1631023455500,24.92
1631023455515,22.92
1631023455531,20.22
1631023455546,17.27
1631023455562,14.57
1631023455578,12.46
1631023455593,11.11
1631023455609,10.46
1631023455625,10.27
1631023455640,10.27
1631023455656,10.19
1631023455671,9.81
1631023455687,9.0
1631023455703,7.71
1631023455718,5.98
1631023455734,3.97
1631023455750,1.93
1631023455765,0.14
1631023455781,-1.2
1631023455796,-2.01
1631023455812,-2.39
1631023455828,-2.56
1631023455843,-2.81
1631023455859,-3.38
1631023455875,-4.39
1631023455890,-5.78
1631023455906,-7.39
1631023455921,-9.01
1631023455937,-10.42
1631023455953,-11.5
1631023455968,-12.2
1631023455984,-12.49
1631023456000,-12.37
1631023456015,-11.79
1631023456031,-10.7
1631023456046,-9.12
1631023456062,-7.18
1631023456078,-5.11
1631023456093,-3.18
1631023456109,-1.63
1631023456125,-0.56
1631023456140,0.06
1631023456156,0.35
1631023456171,0.44
1631023456187,0.43
1631023456203,0.33
1631023456218,0.14
1631023456234,-0.19
1631023456250,-0.62
1631023456265,-1.11
1631023456281,-1.54
1631023456296,-1.8
1631023456312,-1.78
1631023456328,-1.42
1631023456343,-0.73
1631023456359,0.18
1631023456375,1.14
1631023456390,1.91
1631023456406,2.26
1631023456421,1.99
1631023456437,0.96
1631023456453,-0.81
1631023456468,-3.14
1631023456484,-5.65
1631023456500,-7.8
1631023456515,-9.03
1631023456531,-8.93
1631023456546,-7.4
1631023456562,-4.76
1631023456578,-1.56
1631023456593,1.54
1631023456609,4.09
1631023456625,5.91
1631023456640,7.08
1631023456656,7.79
1631023456671,8.18
1631023456687,8.32
1631023456703,8.2
1631023456718,7.83
1631023456734,7.28
1631023456750,6.63
1631023456765,5.94
1631023456781,5.2
1631023456796,4.41
1631023456812,3.57
1631023456828,2.78
1631023456843,2.19
1631023456859,1.95
1631023456875,2.09
1631023456890,2.56
1631023456906,3.23
1631023456921,4.01
1631023456937,4.88
1631023456953,5.83
1631023456968,6.87
1631023456984,7.86
1631023457000,8.63
1631023457015,8.95
1631023457031,8.71
1631023457046,7.97
1631023457062,6.97
1631023457078,6.03
1631023457093,5.45
1631023457109,5.35
1631023457125,5.64
1631023457140,6.05
1631023457156,6.26
1631023457171,6.03
1631023457187,5.25
1631023457203,4.05
1631023457218,2.68
1631023457234,1.41
1631023457250,0.41
1631023457265,-0.32
1631023457281,-0.94
1631023457296,-1.63
1631023457312,-2.46
1631023457328,-3.29
1631023457343,-3.88
1631023457359,-3.99
1631023457375,-3.56
1631023457390,-2.75
1631023457406,-1.88
1631023457421,-1.24
1631023457437,-0.94
1631023457453,-0.86
1631023457468,-0.76
1631023457484,-0.43
1631023457500,0.16
1631023457515,0.84
1631023457531,1.36
1631023457546,1.54
1631023457562,1.35
1631023457578,0.92
1631023457593,0.48
1631023457609,0.18
1631023457625,0.06
1631023457640,0.06
1631023457656,0.04
1631023457671,-0.11
1631023457687,-0.41
1631023457703,-0.79
1631023457718,-1.08
1631023457734,-1.12
1631023457750,-0.87
1631023457765,-0.41
1631023457781,0.09
1631023457796,0.45
1631023457812,0.55
1631023457828,0.46
1631023457843,0.35
1631023457859,0.4
1631023457875,0.72
1631023457890,1.31
1631023457906,2.05
1631023457921,2.85
1631023457937,3.62
1631023457953,4.39
1631023457968,5.16
1631023457984,5.91
1631023458000,6.51
1631023458015,6.83
1631023458031,6.73
1631023458046,6.2
1631023458062,5.3
1631023458078,4.19
1631023458093,3.06
1631023458109,2.01
1631023458125,1.08
1631023458140,0.22
1631023458156,-0.71
1631023458171,-1.83
1631023458187,-3.21
1631023458203,-4.83
1631023458218,-6.52
1631023458234,-8.03
1631023458250,-9.05
1631023458265,-9.32
1631023458281,-8.73
1631023458296,-7.32
1631023458312,-5.34
1631023458328,-3.1
1631023458343,-0.92
1631023458359,0.93
1631023458375,2.3
1631023458390,3.16
1631023458406,3.59
1631023458421,3.77
1631023458437,3.88
1631023458453,4.06
1631023458468,4.35
1631023458484,4.66
1631023458500,4.87
1631023458515,4.88
1631023458531,4.67
1631023458546,4.35
1631023458562,4.01
1631023458578,3.77
1631023458593,3.65
1631023458609,3.62
1631023458625,3.65
1631023458640,3.71
1631023458656,3.8
1631023458671,3.94
1631023458687,4.11
1631023458703,4.31
1631023458718,4.5
1631023458734,4.69
1631023458750,4.84
1631023458765,4.95
1631023458781,5.0
1631023458796,4.94
1631023458812,4.73
1631023458828,4.33
1631023458843,3.78
1631023458859,3.11
1631023458875,2.41
1631023458890,1.74
1631023458906,1.12
1631023458921,0.56
1631023458937,0.01
1631023458953,-0.57
1631023458968,-1.21
1631023458984,-1.91
1631023459000,-2.66
1631023459015,-3.45
1631023459031,-4.28
1631023459046,-5.18
1631023459062,-6.14
1631023459078,-7.18
1631023459093,-8.22
1631023459109,-9.17
1631023459125,-9.86
1631023459140,-10.13
1631023459156,-9.84
1631023459171,-8.94
1631023459187,-7.53
1631023459203,-5.79
1631023459218,-3.99
1631023459234,-2.38
1631023459250,-1.13
1631023459265,-0.31
1631023459281,0.13
1631023459296,0.26
1631023459312,0.14
1631023459328,-0.17
1631023459343,-0.57
1631023459359,-0.89
1631023459375,-0.89
1631023459390,-0.36
1631023459406,0.78
1631023459421,2.38
1631023459437,4.09
1631023459453,5.48
1631023459468,6.22
1631023459484,6.2
1631023459500,5.61
1631023459515,4.8
1631023459531,4.13
1631023459546,3.8
1631023459562,3.8
1631023459578,3.96
1631023459593,4.09
1631023459609,4.07
1631023459625,3.91
1631023459640,3.65
1631023459656,3.38
1631023459671,3.13
1631023459687,2.91
1631023459703,2.71
1631023459718,2.51
1631023459734,2.29
1631023459750,2.06
1631023459765,1.81
1631023459781,1.55
1631023459796,1.28
1631023459812,0.99
1631023459828,0.63
1631023459843,0.15
1631023459859,-0.49
1631023459875,-1.26
1631023459890,-2.07
1631023459906,-2.79
1631023459921,-3.3
1631023459937,-3.59
1631023459953,-3.75
1631023459968,-3.95
1631023459984,-4.33
1631023460000,-4.98
1631023460015,-5.82
1631023460031,-6.7
1631023460046,-7.4
1631023460062,-7.74
1631023460078,-7.63
1631023460093,-7.09
1631023460109,-6.19
1631023460125,-5.05
1631023460140,-3.78
1631023460156,-2.47
1631023460171,-1.18
1631023460187,-0.01
1631023460203,0.94
1631023460218,1.6
1631023460234,1.94
1631023460250,2.01
1631023460265,1.93
1631023460281,1.83
1631023460296,1.84
1631023460312,1.99
1631023460328,2.22
1631023460343,2.46
1631023460359,2.63
1631023460375,2.69
1631023460390,2.64
1631023460406,2.52
1631023460421,2.31
1631023460437,1.98
1631023460453,1.5
1631023460468,0.87
1631023460484,0.23
1631023460500,-0.24
1631023460515,-0.35
1631023460531,-0.03
1631023460546,0.63
1631023460562,1.38
1631023460578,1.96
1631023460593,2.18
1631023460609,2.04
1631023460625,1.69
1631023460640,1.37
1631023460656,1.24
1631023460671,1.3
1631023460687,1.45
1631023460703,1.52
1631023460718,1.4
1631023460734,1.07
1631023460750,0.58
1631023460765,0.03
1631023460781,-0.54
1631023460796,-1.12
1631023460812,-1.72
1631023460828,-2.35
1631023460843,-3.01
1631023460859,-3.68
1631023460875,-4.36
1631023460890,-5.05
1631023460906,-5.73
1631023460921,-6.32
1631023460937,-6.72
1631023460953,-6.77
1631023460968,-6.4
1631023460984,-5.57
1631023461000,-4.33
1631023461015,-2.83
1631023461031,-1.26
1631023461046,0.15
1631023461062,1.19
1631023461078,1.74
1631023461093,1.78
1631023461109,1.42
1631023461125,0.91
1631023461140,0.51
1631023461156,0.4
1631023461171,0.63
1631023461187,1.08
1631023461203,1.56
1631023461218,1.86
1631023461234,1.91
1631023461250,1.73
1631023461265,1.48
1631023461281,1.32
1631023461296,1.33
1631023461312,1.51
1631023461328,1.78
1631023461343,2.05
1631023461359,2.26
1631023461375,2.38
1631023461390,2.45
1631023461406,2.5
1631023461421,2.56
1631023461437,2.59
1631023461453,2.57
1631023461468,2.46
1631023461484,2.27
1631023461500,2.03
1631023461515,1.81
1631023461531,1.68
1631023461546,1.66
1631023461562,1.69
1631023461578,1.68
1631023461593,1.51
1631023461609,1.1
1631023461625,0.48
1631023461640,-0.26
1631023461656,-0.97
1631023461671,-1.56
1631023461687,-2.02
1631023461703,-2.42
1631023461718,-2.88
1631023461734,-3.53
1631023461750,-4.47
1631023461765,-5.68
1631023461781,-7.04
1631023461796,-8.35
1631023461812,-9.33
1631023461828,-9.76
1631023461843,-9.5
1631023461859,-8.51
1631023461875,-6.9
1631023461890,-4.85
1631023461906,-2.62
1631023461921,-0.48
1631023461937,1.33
1631023461953,2.66
1631023461968,3.45
1631023461984,3.8
1631023462000,3.88
1631023462015,3.89
1631023462031,3.94
1631023462046,3.99
1631023462062,3.92
1631023462078,3.6
1631023462093,3.02
1631023462109,2.3
1631023462125,1.67
1631023462140,1.36
1631023462156,1.46
1631023462171,1.89
1631023462187,2.45
1631023462203,2.92
1631023462218,3.15
1631023462234,3.1
1631023462250,2.85
1631023462265,2.51
1631023462281,2.19
1631023462296,1.95
1631023462312,1.8
1631023462328,1.72
1631023462343,1.7
1631023462359,1.74
1631023462375,1.84
1631023462390,1.98
1631023462406,2.08
1631023462421,2.02
1631023462437,1.69
1631023462453,1.01
1631023462468,0.03
1631023462484,-1.13
1631023462500,-2.3
1631023462515,-3.3
1631023462531,-4.02
1631023462546,-4.44
1631023462562,-4.64
1631023462578,-4.74
1631023462593,-4.89
1631023462609,-5.22
1631023462625,-5.76
1631023462640,-6.48
1631023462656,-7.25
1631023462671,-7.85
1631023462687,-8.09
1631023462703,-7.85
1631023462718,-7.12
1631023462734,-6.03
1631023462750,-4.74
1631023462765,-3.46
1631023462781,-2.32
1631023462796,-1.41
1631023462812,-0.72
1631023462828,-0.23
1631023462843,0.15
1631023462859,0.51
1631023462875,0.88
1631023462890,1.27
1631023462906,1.64
1631023462921,1.96
1631023462937,2.18
1631023462953,2.29
1631023462968,2.34
1631023462984,2.32
1631023463000,2.26
1631023463015,2.18
1631023463031,2.1
1631023463046,2.05
1631023463062,2.04
1631023463078,2.05
1631023463093,1.98
1631023463109,1.73
1631023463125,1.28
1631023463140,0.7
1631023463156,0.18
1631023463171,-0.11
1631023463187,-0.06
1631023463203,0.32
1631023463218,0.87
1631023463234,1.38
1631023463250,1.71
1631023463265,1.79
1631023463281,1.67
1631023463296,1.41
1631023463312,1.07
1631023463328,0.68
1631023463343,0.24
1631023463359,-0.25
1631023463375,-0.79
1631023463390,-1.36
1631023463406,-1.93
1631023463421,-2.51
1631023463437,-3.13
1631023463453,-3.85
1631023463468,-4.68
1631023463484,-5.6
1631023463500,-6.44
1631023463515,-6.95
1631023463531,-6.91
1631023463546,-6.17
1631023463562,-4.78
1631023463578,-2.99
1631023463593,-1.16
1631023463609,0.38
1631023463625,1.44
1631023463640,2.0
1631023463656,2.19
1631023463671,2.22
1631023463687,2.23
1631023463703,2.29
1631023463718,2.41
1631023463734,2.52
1631023463750,2.59
1631023463765,2.62
1631023463781,2.64
1631023463796,2.64
1631023463812,2.61
1631023463828,2.51
1631023463843,2.3
1631023463859,2.0
1631023463875,1.74
1631023463890,1.67
1631023463906,1.9
1631023463921,2.4
1631023463937,3.02
1631023463953,3.54
1631023463968,3.8
1631023463984,3.78
1631023464000,3.59
1631023464015,3.41
1631023464031,3.37
1631023464046,3.53
1631023464062,3.82
1631023464078,4.16
1631023464093,4.45
1631023464109,4.63
1631023464125,4.67
1631023464140,4.52
1631023464156,4.11
1631023464171,3.42
1631023464187,2.46
1631023464203,1.32
1631023464218,0.16
1631023464234,-0.85
1631023464250,-1.58
1631023464265,-2.03
1631023464281,-2.32
1631023464296,-2.68
1631023464312,-3.33
1631023464328,-4.39
1631023464343,-5.77
1631023464359,-7.25
1631023464375,-8.46
1631023464390,-9.1
1631023464406,-8.95
1631023464421,-7.99
1631023464437,-6.35
1631023464453,-4.31
1631023464468,-2.18
1631023464484,-0.27
1631023464500,1.17
1631023464515,2.0
1631023464531,2.26
1631023464546,2.09
1631023464562,1.75
1631023464578,1.44
1631023464593,1.31
1631023464609,1.36
1631023464625,1.51
1631023464640,1.64
1631023464656,1.7
1631023464671,1.67
1631023464687,1.62
1631023464703,1.61
1631023464718,1.67
1631023464734,1.8
1631023464750,2.0
1631023464765,2.27
1631023464781,2.66
1631023464796,3.19
1631023464812,3.85
1631023464828,4.55
1631023464843,5.18
1631023464859,5.62
1631023464875,5.76
1631023464890,5.57
1631023464906,5.09
1631023464921,4.39
1631023464937,3.57
1631023464953,2.7
1631023464968,1.85
1631023464984,1.07
1631023465000,0.4
1631023465015,-0.12
1631023465031,-0.47
1631023465046,-0.62
1631023465062,-0.63
1631023465078,-0.61
1631023465093,-0.73
1631023465109,-1.16
1631023465125,-1.99
1631023465140,-3.21
1631023465156,-4.67
1631023465171,-6.13
1631023465187,-7.36
1631023465203,-8.14
1631023465218,-8.36
1631023465234,-8.0
1631023465250,-7.13
1631023465265,-5.87
1631023465281,-4.34
1631023465296,-2.72
1631023465312,-1.13
1631023465328,0.24
1631023465343,1.27
1631023465359,1.86
1631023465375,2.01
1631023465390,1.82
1631023465406,1.47
1631023465421,1.19
1631023465437,1.15
1631023465453,1.39
1631023465468,1.86
1631023465484,2.4
1631023465500,2.86
1631023465515,3.11
1631023465531,3.12
1631023465546,2.96
1631023465562,2.71
1631023465578,2.47
1631023465593,2.29
1631023465609,2.21
1631023465625,2.24
1631023465640,2.36
1631023465656,2.55
1631023465671,2.75
1631023465687,2.84
1631023465703,2.69
1631023465718,2.22
1631023465734,1.47
1631023465750,0.61
1631023465765,-0.11
1631023465781,-0.44
1631023465796,-0.32
1631023465812,0.14
1631023465828,0.69
1631023465843,1.05
1631023465859,1.07
1631023465875,0.74
1631023465890,0.21
1631023465906,-0.34
1631023465921,-0.81
1631023465937,-1.21
1631023465953,-1.68
1631023465968,-2.35
1631023465984,-3.3
1631023466000,-4.47
1631023466015,-5.73
1631023466031,-6.86
1631023466046,-7.69
1631023466062,-8.1
1631023466078,-8.06
1631023466093,-7.61
1631023466109,-6.8
1631023466125,-5.73
1631023466140,-4.48
1631023466156,-3.17
1631023466171,-1.94
1631023466187,-0.92
1631023466203,-0.21
1631023466218,0.21
1631023466234,0.45
1631023466250,0.66
1631023466265,1.01
1631023466281,1.55
1631023466296,2.2
1631023466312,2.81
1631023466328,3.21
1631023466343,3.29
1631023466359,3.1
1631023466375,2.79
1631023466390,2.51
1631023466406,2.36
1631023466421,2.35
1631023466437,2.4
1631023466453,2.41
1631023466468,2.32
1631023466484,2.14
1631023466500,1.95
1631023466515,1.81
1631023466531,1.78
1631023466546,1.85
1631023466562,1.94
1631023466578,2.0
1631023466593,2.0
1631023466609,1.98
1631023466625,1.99
1631023466640,2.12
1631023466656,2.4
1631023466671,2.78
1631023466687,3.15
1631023466703,3.37
1631023466718,3.32
1631023466734,2.94
1631023466750,2.26
1631023466765,1.34
1631023466781,0.3
1631023466796,-0.75
1631023466812,-1.68
1631023466828,-2.44
1631023466843,-3.02
1631023466859,-3.46
1631023466875,-3.84
1631023466890,-4.29
1631023466906,-4.85
1631023466921,-5.5
1631023466937,-6.16
1631023466953,-6.68
1631023466968,-6.92
1631023466984,-6.8
1631023467000,-6.28
1631023467015,-5.35
1631023467031,-4.08
1631023467046,-2.59
1631023467062,-1.07
1631023467078,0.26
1631023467093,1.2
1631023467109,1.68
1631023467125,1.78
1631023467140,1.67
1631023467156,1.56
1631023467171,1.58
1631023467187,1.74
1631023467203,1.95
1631023467218,2.11
1631023467234,2.2
1631023467250,2.26
1631023467265,2.4
1631023467281,2.71
1631023467296,3.19
1631023467312,3.76
1631023467328,4.3
1631023467343,4.69
1631023467359,4.9
1631023467375,4.94
1631023467390,4.89
1631023467406,4.8
1631023467421,4.73
1631023467437,4.7
1631023467453,4.68
1631023467468,4.66
1631023467484,4.6
1631023467500,4.45
1631023467515,4.18
1631023467531,3.8
1631023467546,3.33
1631023467562,2.8
1631023467578,2.28
1631023467593,1.78
1631023467609,1.34
1631023467625,0.99
1631023467640,0.73
1631023467656,0.54
1631023467671,0.36
1631023467687,0.11
1631023467703,-0.29
1631023467718,-0.83
1631023467734,-1.45
1631023467750,-2.08
1631023467765,-2.62
1631023467781,-3.07
1631023467796,-3.47
1631023467812,-3.88
1631023467828,-4.35
1631023467843,-4.86
1631023467859,-5.34
1631023467875,-5.69
1631023467890,-5.82
1631023467906,-5.64
1631023467921,-5.11
1631023467937,-4.22
1631023467953,-3.05
1631023467968,-1.74
1631023467984,-0.47
1631023468000,0.62
1631023468015,1.46
1631023468031,2.04
1631023468046,2.41
1631023468062,2.57
1631023468078,2.55
1631023468093,2.37
1631023468109,2.07
1631023468125,1.72
1631023468140,1.4
1631023468156,1.18
1631023468171,1.06
1631023468187,1.03
1631023468203,1.09
1631023468218,1.23
1631023468234,1.47
1631023468250,1.8
1631023468265,2.21
1631023468281,2.63
1631023468296,3.03
1631023468312,3.38
1631023468328,3.59
1631023468343,3.58
1631023468359,3.26
1631023468375,2.62
1631023468390,1.74
1631023468406,0.82
1631023468421,0.09
1631023468437,-0.3
1631023468453,-0.35
1631023468468,-0.21
1631023468484,-0.12
1631023468500,-0.28
1631023468515,-0.73
1631023468531,-1.39
1631023468546,-2.1
1631023468562,-2.68
1631023468578,-3.07
1631023468593,-3.3
1631023468609,-3.51
1631023468625,-3.86
1631023468640,-4.48
1631023468656,-5.38
1631023468671,-6.48
1631023468687,-7.62
1631023468703,-8.61
1631023468718,-9.27
1631023468734,-9.47
1631023468750,-9.15
1631023468765,-8.33
1631023468781,-7.07
1631023468796,-5.51
1631023468812,-3.8
1631023468828,-2.07
1631023468843,-0.49
1631023468859,0.82
1631023468875,1.81
1631023468890,2.49
1631023468906,2.9
1631023468921,3.17
1631023468937,3.38
1631023468953,3.59
1631023468968,3.81
1631023468984,4.05
1631023469000,4.26
1631023469015,4.42
1631023469031,4.54
1631023469046,4.57
1631023469062,4.52
1631023469078,4.35
1631023469093,4.06
1631023469109,3.69
1631023469125,3.32
1631023469140,3.03
1631023469156,2.85
1631023469171,2.75
1631023469187,2.65
1631023469203,2.46
1631023469218,2.18
1631023469234,1.86
1631023469250,1.58
1631023469265,1.43
1631023469281,1.41
1631023469296,1.47
1631023469312,1.51
1631023469328,1.45
1631023469343,1.27
1631023469359,1.01
1631023469375,0.71
1631023469390,0.42
1631023469406,0.13
1631023469421,-0.18
1631023469437,-0.56
1631023469453,-1.03
1631023469468,-1.6
1631023469484,-2.26
1631023469500,-2.98
1631023469515,-3.72
1631023469531,-4.46
1631023469546,-5.18
1631023469562,-5.89
1631023469578,-6.57
1631023469593,-7.17
1631023469609,-7.62
1631023469625,-7.83
1631023469640,-7.71
1631023469656,-7.22
1631023469671,-6.37
1631023469687,-5.25
1631023469703,-3.96
1631023469718,-2.62
1631023469734,-1.35
1631023469750,-0.28
1631023469765,0.53
1631023469781,1.04
1631023469796,1.28
1631023469812,1.35
1631023469828,1.34
1631023469843,1.36
1631023469859,1.47
1631023469875,1.65
1631023469890,1.88
1631023469906,2.09
1631023469921,2.25
1631023469937,2.34
1631023469953,2.41
1631023469968,2.48
1631023469984,2.58
1631023470000,2.7
1631023470015,2.8
1631023470031,2.83
1631023470046,2.78
1631023470062,2.66
1631023470078,2.53
1631023470093,2.44
1631023470109,2.46
1631023470125,2.58
1631023470140,2.78
1631023470156,2.98
1631023470171,3.1
1631023470187,3.1
1631023470203,2.96
1631023470218,2.75
1631023470234,2.52
1631023470250,2.36
1631023470265,2.28
1631023470281,2.24
1631023470296,2.14
1631023470312,1.9
1631023470328,1.51
1631023470343,0.95
1631023470359,0.26
1631023470375,-0.54
1631023470390,-1.44
1631023470406,-2.4
1631023470421,-3.38
1631023470437,-4.27
1631023470453,-5.01
1631023470468,-5.58
1631023470484,-6.01
1631023470500,-6.4
1631023470515,-6.8
1631023470531,-7.19
1631023470546,-7.45
1631023470562,-7.45
1631023470578,-7.06
1631023470593,-6.28
1631023470609,-5.16
1631023470625,-3.83
1631023470640,-2.43
1631023470656,-1.07
1631023470671,0.14
1631023470687,1.11
1631023470703,1.77
1631023470718,2.11
1631023470734,2.14
1631023470750,1.92
1631023470765,1.57
1631023470781,1.19
1631023470796,0.91
1631023470812,0.76
1631023470828,0.77
1631023470843,0.92
1631023470859,1.17
1631023470875,1.5
1631023470890,1.9
1631023470906,2.39
1631023470921,2.97
1631023470937,3.62
1631023470953,4.28
1631023470968,4.85
1631023470984,5.24
1631023471000,5.42
1631023471015,5.38
1631023471031,5.18
1631023471046,4.86
1631023471062,4.46
1631023471078,3.96
1631023471093,3.34
1631023471109,2.62
1631023471125,1.88
1631023471140,1.21
1631023471156,0.7
1631023471171,0.38
1631023471187,0.18
1631023471203,0.02
1631023471218,-0.18
1631023471234,-0.46
1631023471250,-0.84
1631023471265,-1.33
1631023471281,-1.98
1631023471296,-2.81
1631023471312,-3.87
1631023471328,-5.11
1631023471343,-6.46
1631023471359,-7.78
1631023471375,-8.91
1631023471390,-9.67
1631023471406,-9.88
1631023471421,-9.4
1631023471437,-8.22
1631023471453,-6.43
1631023471468,-4.26
1631023471484,-2.04
1631023471500,-0.05
1631023471515,1.54
1631023471531,2.7
1631023471546,3.49
1631023471562,3.99
1631023471578,4.23
1631023471593,4.19
1631023471609,3.84
1631023471625,3.25
1631023471640,2.58
1631023471656,2.02
1631023471671,1.75
1631023471687,1.8
1631023471703,2.09
1631023471718,2.43
1631023471734,2.68
1631023471750,2.76
1631023471765,2.71
1631023471781,2.58
1631023471796,2.45
1631023471812,2.32
1631023471828,2.2
1631023471843,2.09
1631023471859,2.03
1631023471875,2.08
1631023471890,2.26
1631023471906,2.53
1631023471921,2.79
1631023471937,2.94
1631023471953,2.91
1631023471968,2.71
1631023471984,2.39
1631023472000,1.99
1631023472015,1.53
1631023472031,0.98
1631023472046,0.32
1631023472062,-0.47
1631023472078,-1.36
1631023472093,-2.27
1631023472109,-3.12
1631023472125,-3.88
1631023472140,-4.57
1631023472156,-5.26
1631023472171,-6.02
1631023472187,-6.84
1631023472203,-7.65
1631023472218,-8.26
1631023472234,-8.49
1631023472250,-8.23
1631023472265,-7.49
1631023472281,-6.38
1631023472296,-5.07
1631023472312,-3.74
1631023472328,-2.47
1631023472343,-1.32
1631023472359,-0.3
1631023472375,0.54
1631023472390,1.17
1631023472406,1.58
1631023472421,1.79
1631023472437,1.85
1631023472453,1.85
1631023472468,1.86
1631023472484,1.95
1631023472500,2.14
1631023472515,2.42
1631023472531,2.71
1631023472546,2.93
1631023472562,3.0
1631023472578,2.83
1631023472593,2.46
1631023472609,1.96
1631023472625,1.45
1631023472640,1.05
1631023472656,0.85
1631023472671,0.88
1631023472687,1.13
1631023472703,1.56
1631023472718,2.06
1631023472734,2.53
1631023472750,2.85
1631023472765,2.93
1631023472781,2.78
1631023472796,2.51
1631023472812,2.3
1631023472828,2.27
1631023472843,2.45
1631023472859,2.7
1631023472875,2.81
1631023472890,2.6
1631023472906,1.99
1631023472921,1.08
1631023472937,0.08
1631023472953,-0.81
1631023472968,-1.48
1631023472984,-1.96
1631023473000,-2.39
1631023473015,-2.96
1631023473031,-3.75
1631023473046,-4.77
1631023473062,-5.87
1631023473078,-6.86
1631023473093,-7.55
1631023473109,-7.83
1631023473125,-7.65
1631023473140,-7.05
1631023473156,-6.08
1631023473171,-4.8
1631023473187,-3.3
1631023473203,-1.67
1631023473218,-0.1
1631023473234,1.19
1631023473250,2.02
1631023473265,2.27
1631023473281,2.04
1631023473296,1.57
1631023473312,1.15
1631023473328,1.07
1631023473343,1.46
1631023473359,2.25
1631023473375,3.25
1631023473390,4.2
1631023473406,4.9
1631023473421,5.26
1631023473437,5.3
1631023473453,5.13
1631023473468,4.9
1631023473484,4.7
1631023473500,4.62
1631023473515,4.67
1631023473531,4.83
1631023473546,5.04
1631023473562,5.21
1631023473578,5.23
1631023473593,4.98
1631023473609,4.43
1631023473625,3.62
1631023473640,2.69
1631023473656,1.86
1631023473671,1.3
1631023473687,1.08
1631023473703,1.15
1631023473718,1.39
1631023473734,1.62
1631023473750,1.74
1631023473765,1.68
1631023473781,1.43
1631023473796,1.0
1631023473812,0.38
1631023473828,-0.41
1631023473843,-1.29
1631023473859,-2.18
1631023473875,-3.04
1631023473890,-3.89
1631023473906,-4.82
1631023473921,-5.98
1631023473937,-7.39
1631023473953,-8.9
1631023473968,-10.21
1631023473984,-10.93
1631023474000,-10.78
1631023474015,-9.65
1631023474031,-7.67
1631023474046,-5.11
1631023474062,-2.32
1631023474078,0.34
1631023474093,2.61
1631023474109,4.29
1631023474125,5.29
1631023474140,5.66
1631023474156,5.53
1631023474171,5.11
1631023474187,4.61
1631023474203,4.18
1631023474218,3.89
1631023474234,3.71
1631023474250,3.58
1631023474265,3.45
1631023474281,3.31
1631023474296,3.18
1631023474312,3.07
1631023474328,2.96
1631023474343,2.83
1631023474359,2.67
1631023474375,2.53
1631023474390,2.48
1631023474406,2.64
1631023474421,3.05
1631023474437,3.64
1631023474453,4.27
1631023474468,4.72
1631023474484,4.82
1631023474500,4.54
1631023474515,3.93
1631023474531,3.18
1631023474546,2.45
1631023474562,1.87
1631023474578,1.49
1631023474593,1.26
1631023474609,1.08
1631023474625,0.84
1631023474640,0.5
1631023474656,0.03
1631023474671,-0.52
1631023474687,-1.07
1631023474703,-1.61
1631023474718,-2.16
1631023474734,-2.81
1631023474750,-3.67
1631023474765,-4.77
1631023474781,-6.04
1631023474796,-7.29
1631023474812,-8.26
1631023474828,-8.73
1631023474843,-8.58
1631023474859,-7.81
1631023474875,-6.56
1631023474890,-5.01
1631023474906,-3.36
1631023474921,-1.73
1631023474937,-0.27
1631023474953,0.97
1631023474968,1.9
1631023474984,2.51
1631023475000,2.8
1631023475015,2.84
1631023475031,2.71
1631023475046,2.51
1631023475062,2.32
1631023475078,2.19
1631023475093,2.14
1631023475109,2.18
1631023475125,2.29
1631023475140,2.44
1631023475156,2.56
1631023475171,2.59
1631023475187,2.47
1631023475203,2.18
1631023475218,1.77
1631023475234,1.35
1631023475250,1.04
1631023475265,0.94
1631023475281,1.04
1631023475296,1.27
1631023475312,1.5
1631023475328,1.58
1631023475343,1.47
1631023475359,1.16
1631023475375,0.78
1631023475390,0.44
1631023475406,0.21
1631023475421,0.13
1631023475437,0.16
1631023475453,0.23
1631023475468,0.26
1631023475484,0.21
1631023475500,0.05
1631023475515,-0.23
1631023475531,-0.64
1631023475546,-1.21
1631023475562,-1.93
1631023475578,-2.8
1631023475593,-3.78
1631023475609,-4.73
1631023475625,-5.55
1631023475640,-6.18
1631023475656,-6.63
1631023475671,-6.97
1631023475687,-7.28
1631023475703,-7.57
1631023475718,-7.72
1631023475734,-7.57
1631023475750,-6.97
1631023475765,-5.9
1631023475781,-4.52
1631023475796,-3.05
1631023475812,-1.74
1631023475828,-0.76
1631023475843,-0.11
1631023475859,0.24
1631023475875,0.42
1631023475890,0.55
1631023475906,0.72
1631023475921,0.98
1631023475937,1.36
1631023475953,1.83
1631023475968,2.33
1631023475984,2.79
1631023476000,3.13
1631023476015,3.31
1631023476031,3.29
1631023476046,3.12
1631023476062,2.85
1631023476078,2.56
1631023476093,2.35
1631023476109,2.33
1631023476125,2.53
1631023476140,2.89
1631023476156,3.28
1631023476171,3.57
1631023476187,3.66
1631023476203,3.59
1631023476218,3.43
1631023476234,3.27
1631023476250,3.14
1631023476265,3.02
1631023476281,2.91
1631023476296,2.84
1631023476312,2.89
1631023476328,3.15
1631023476343,3.62
1631023476359,4.18
1631023476375,4.63
1631023476390,4.78
1631023476406,4.55
1631023476421,3.98
1631023476437,3.19
1631023476453,2.34
1631023476468,1.5
1631023476484,0.66
1631023476500,-0.2
1631023476515,-1.06
1631023476531,-1.9
1631023476546,-2.68
1631023476562,-3.41
1631023476578,-4.19
1631023476593,-5.14
1631023476609,-6.34
1631023476625,-7.7
1631023476640,-8.96
1631023476656,-9.79
1631023476671,-9.91
1631023476687,-9.21
1631023476703,-7.76
1631023476718,-5.8
1631023476734,-3.61
1631023476750,-1.45
1631023476765,0.45
1631023476781,1.94
1631023476796,2.91
1631023476812,3.33
1631023476828,3.3
1631023476843,3.01
1631023476859,2.67
1631023476875,2.45
1631023476890,2.38
1631023476906,2.39
1631023476921,2.39
1631023476937,2.36
1631023476953,2.37
1631023476968,2.54
1631023476984,2.92
1631023477000,3.44
1631023477015,3.94
1631023477031,4.22
1631023477046,4.19
1631023477062,3.85
1631023477078,3.35
1631023477093,2.91
1631023477109,2.66
1631023477125,2.65
1631023477140,2.83
1631023477156,3.02
1631023477171,3.09
1631023477187,2.96
1631023477203,2.65
1631023477218,2.23
1631023477234,1.81
1631023477250,1.43
1631023477265,1.04
1631023477281,0.57
1631023477296,-0.06
1631023477312,-0.8
1631023477328,-1.54
1631023477343,-2.15
1631023477359,-2.56
1631023477375,-2.83
1631023477390,-3.12
1631023477406,-3.57
1631023477421,-4.24
1631023477437,-5.11
1631023477453,-6.08
1631023477468,-7.06
1631023477484,-7.96
1631023477500,-8.73
1631023477515,-9.25
1631023477531,-9.41
1631023477546,-9.09
1631023477562,-8.23
1631023477578,-6.91
1631023477593,-5.31
1631023477609,-3.66
1631023477625,-2.16
1631023477640,-0.94
1631023477656,-0.04
1631023477671,0.55
1631023477687,0.91
1631023477703,1.13
1631023477718,1.29
1631023477734,1.44
1631023477750,1.58
1631023477765,1.74
1631023477781,1.91
1631023477796,2.11
1631023477812,2.35
1631023477828,2.65
1631023477843,2.95
1631023477859,3.24
1631023477875,3.48
1631023477890,3.66
1631023477906,3.83
1631023477921,4.0
1631023477937,4.18
1631023477953,4.33
1631023477968,4.35
1631023477984,4.17
1631023478000,3.8
1631023478015,3.32
1631023478031,2.86
1631023478046,2.57
1631023478062,2.52
1631023478078,2.65
1631023478093,2.82
1631023478109,2.83
1631023478125,2.59
1631023478140,2.12
1631023478156,1.58
1631023478171,1.14
1631023478187,0.89
1631023478203,0.79
1631023478218,0.71
1631023478234,0.49
1631023478250,0.05
1631023478265,-0.6
1631023478281,-1.38
1631023478296,-2.23
1631023478312,-3.1
1631023478328,-3.99
1631023478343,-4.86
1631023478359,-5.66
1631023478375,-6.3
1631023478390,-6.75
1631023478406,-6.99
1631023478421,-7.08
1631023478437,-7.08
1631023478453,-7.02
1631023478468,-6.86
1631023478484,-6.55
1631023478500,-5.98
1631023478515,-5.12
1631023478531,-3.98
1631023478546,-2.65
1631023478562,-1.3
1631023478578,-0.15
1631023478593,0.64
1631023478609,0.98
1631023478625,0.92
1631023478640,0.63
1631023478656,0.34
1631023478671,0.23
1631023478687,0.34
1631023478703,0.61
1631023478718,0.91
1631023478734,1.16
1631023478750,1.35
1631023478765,1.5
1631023478781,1.65
1631023478796,1.76
1631023478812,1.78
1631023478828,1.68
1631023478843,1.5
1631023478859,1.35
1631023478875,1.35
1631023478890,1.56
1631023478906,1.95
1631023478921,2.41
1631023478937,2.82
1631023478953,3.12
1631023478968,3.29
1631023478984,3.36
1631023479000,3.34
1631023479015,3.27
1631023479031,3.15
1631023479046,3.04
1631023479062,2.98
1631023479078,3.0
1631023479093,3.14
1631023479109,3.36
1631023479125,3.6
1631023479140,3.74
1631023479156,3.66
1631023479171,3.24
1631023479187,2.45
1631023479203,1.38
1631023479218,0.15
1631023479234,-1.04
1631023479250,-2.06
1631023479265,-2.84
1631023479281,-3.41
1631023479296,-3.83
1631023479312,-4.16
1631023479328,-4.49
1631023479343,-4.89
1631023479359,-5.4
1631023479375,-6.04
1631023479390,-6.72
1631023479406,-7.24
1631023479421,-7.36
1631023479437,-6.89
1631023479453,-5.76
1631023479468,-4.11
1631023479484,-2.2
1631023479500,-0.34
1631023479515,1.2
1631023479531,2.25
1631023479546,2.75
1631023479562,2.71
1631023479578,2.22
1631023479593,1.46
1631023479609,0.64
1631023479625,-0.04
1631023479640,-0.44
1631023479656,-0.54
1631023479671,-0.4
1631023479687,-0.13
1631023479703,0.19
1631023479718,0.55
1631023479734,0.99
1631023479750,1.54
1631023479765,2.16
1631023479781,2.78
1631023479796,3.3
1631023479812,3.64
1631023479828,3.84
1631023479843,3.97
1631023479859,4.13
1631023479875,4.35
1631023479890,4.55
1631023479906,4.61
1631023479921,4.4
1631023479937,3.91
1631023479953,3.18
1631023479968,2.39
1631023479984,1.68
1631023480000,1.14
1631023480015,0.73
1631023480031,0.37
1631023480046,-0.02
1631023480062,-0.48
1631023480078,-0.95
1631023480093,-1.36
1631023480109,-1.68
1631023480125,-1.93
1631023480140,-2.23
1631023480156,-2.67
1631023480171,-3.33
1631023480187,-4.18
1631023480203,-5.16
1631023480218,-6.17
1631023480234,-7.14
1631023480250,-8.0
1631023480265,-8.65
1631023480281,-8.96
1631023480296,-8.78
1631023480312,-7.97
1631023480328,-6.48
1631023480343,-4.44
1631023480359,-2.12
1631023480375,0.14
1631023480390,1.99
1631023480406,3.2
1631023480421,3.74
1631023480437,3.75
1631023480453,3.44
1631023480468,3.06
1631023480484,2.77
1631023480500,2.65
1631023480515,2.66
1631023480531,2.74
1631023480546,2.83
1631023480562,2.88
1631023480578,2.88
1631023480593,2.82
1631023480609,2.76
1631023480625,2.75
1631023480640,2.87
1631023480656,3.13
1631023480671,3.5
1631023480687,3.89
1631023480703,4.15
1631023480718,4.18
1631023480734,3.88
1631023480750,3.25
1631023480765,2.35
1631023480781,1.28
1631023480796,0.22
1631023480812,-0.65
1631023480828,-1.17
1631023480843,-1.26
1631023480859,-0.99
1631023480875,-0.51
1631023480890,-0.06
1631023480906,0.18
1631023480921,0.1
1631023480937,-0.3
1631023480953,-0.97
1631023480968,-1.8
1631023480984,-2.72
1631023481000,-3.63
1631023481015,-4.46
1631023481031,-5.15
1631023481046,-5.69
1631023481062,-6.14
1631023481078,-6.59
1631023481093,-7.12
1631023481109,-7.71
1631023481125,-8.27
1631023481140,-8.59
1631023481156,-8.51
1631023481171,-7.92
1631023481187,-6.8
1631023481203,-5.31
1631023481218,-3.64
1631023481234,-2.0
1631023481250,-0.55
1631023481265,0.66
1631023481281,1.61
1631023481296,2.37
1631023481312,2.94
1631023481328,3.34
1631023481343,3.52
1631023481359,3.5
1631023481375,3.33
1631023481390,3.1
1631023481406,2.92
1631023481421,2.85
1631023481437,2.88
1631023481453,2.97
1631023481468,3.04
1631023481484,3.07
1631023481500,3.07
1631023481515,3.02
1631023481531,2.92
1631023481546,2.74
1631023481562,2.45
1631023481578,2.1
1631023481593,1.76
1631023481609,1.53
1631023481625,1.45
1631023481640,1.54
1631023481656,1.69
1631023481671,1.82
1631023481687,1.88
1631023481703,1.88
1631023481718,1.91
1631023481734,2.01
1631023481750,2.18
1631023481765,2.31
1631023481781,2.27
1631023481796,1.96
1631023481812,1.39
1631023481828,0.62
1631023481843,-0.25
1631023481859,-1.11
1631023481875,-1.97
1631023481890,-2.83
1631023481906,-3.71
1631023481921,-4.57
1631023481937,-5.36
1631023481953,-5.99
1631023481968,-6.48
1631023481984,-6.86
1631023482000,-7.21
1631023482015,-7.52
1631023482031,-7.71
1631023482046,-7.61
1631023482062,-7.07
1631023482078,-6.04
1631023482093,-4.58
1631023482109,-2.9
1631023482125,-1.26
1631023482140,0.07
1631023482156,0.94
1631023482171,1.31
1631023482187,1.3
1631023482203,1.13
1631023482218,1.03
1631023482234,1.17
1631023482250,1.61
1631023482265,2.25
1631023482281,2.94
1631023482296,3.52
1631023482312,3.95
1631023482328,4.2
1631023482343,4.33
1631023482359,4.35
1631023482375,4.21
1631023482390,3.89
1631023482406,3.4
1631023482421,2.84
1631023482437,2.39
1631023482453,2.17
1631023482468,2.23
1631023482484,2.52
1631023482500,2.9
1631023482515,3.24
1631023482531,3.44
1631023482546,3.49
1631023482562,3.43
1631023482578,3.33
1631023482593,3.25
1631023482609,3.22
1631023482625,3.22
1631023482640,3.26
1631023482656,3.28
1631023482671,3.31
1631023482687,3.34
1631023482703,3.36
1631023482718,3.34
1631023482734,3.19
1631023482750,2.82
1631023482765,2.16
1631023482781,1.26
1631023482796,0.19
1631023482812,-0.91
1631023482828,-1.93
1631023482843,-2.85
1631023482859,-3.73
1631023482875,-4.64
1631023482890,-5.63
1631023482906,-6.65
1631023482921,-7.59
1631023482937,-8.31
1631023482953,-8.65
1631023482968,-8.51
1631023482984,-7.88
1631023483000,-6.78
1631023483015,-5.33
1631023483031,-3.68
1631023483046,-2.02
1631023483062,-0.5
1631023483078,0.73
1631023483093,1.62
1631023483109,2.21
1631023483125,2.55
1631023483140,2.72
1631023483156,2.75
1631023483171,2.64
1631023483187,2.36
1631023483203,1.96
1631023483218,1.54
1631023483234,1.28
1631023483250,1.35
1631023483265,1.85
1631023483281,2.76
1631023483296,3.92
1631023483312,5.13
1631023483328,6.21
1631023483343,6.98
1631023483359,7.36
1631023483375,7.32
1631023483390,6.91
1631023483406,6.26
1631023483421,5.55
1631023483437,4.9
1631023483453,4.42
1631023483468,4.08
1631023483484,3.8
1631023483500,3.49
1631023483515,3.09
1631023483531,2.59
1631023483546,2.03
1631023483562,1.42
1631023483578,0.76
1631023483593,0.04
1631023483609,-0.72
1631023483625,-1.47
1631023483640,-2.14
1631023483656,-2.66
1631023483671,-3.05
1631023483687,-3.41
1631023483703,-3.85
1631023483718,-4.49
1631023483734,-5.37
1631023483750,-6.47
1631023483765,-7.72
1631023483781,-9.0
1631023483796,-10.2
1631023483812,-11.17
1631023483828,-11.72
1631023483843,-11.64
1631023483859,-10.72
1631023483875,-8.88
1631023483890,-6.24
1631023483906,-3.11
1631023483921,0.08
1631023483937,2.87
1631023483953,4.94
1631023483968,6.17
1631023483984,6.65
1631023484000,6.6
1631023484015,6.26
1631023484031,5.82
1631023484046,5.43
1631023484062,5.14
1631023484078,4.97
1631023484093,4.91
1631023484109,4.93
1631023484125,4.94
1631023484140,4.88
1631023484156,4.7
1631023484171,4.39
1631023484187,4.03
1631023484203,3.72
1631023484218,3.52
1631023484234,3.46
1631023484250,3.45
1631023484265,3.4
1631023484281,3.19
1631023484296,2.78
1631023484312,2.24
1631023484328,1.69
1631023484343,1.27
1631023484359,1.08
1631023484375,1.1
1631023484390,1.27
1631023484406,1.46
1631023484421,1.54
1631023484437,1.41
1631023484453,1.01
1631023484468,0.32
1631023484484,-0.64
1631023484500,-1.81
1631023484515,-3.06
1631023484531,-4.22
1631023484546,-5.14
1631023484562,-5.73
1631023484578,-6.06
1631023484593,-6.25
1631023484609,-6.47
1631023484625,-6.82
1631023484640,-7.31
1631023484656,-7.79
1631023484671,-8.08
1631023484687,-8.01
1631023484703,-7.5
1631023484718,-6.53
1631023484734,-5.19
1631023484750,-3.64
1631023484765,-2.02
1631023484781,-0.47
1631023484796,0.91
1631023484812,2.07
1631023484828,3.0
1631023484843,3.68
1631023484859,4.08
1631023484875,4.14
1631023484890,3.87
1631023484906,3.34
1631023484921,2.74
1631023484937,2.27
1631023484953,2.07
1631023484968,2.2
1631023484984,2.56
1631023485000,3.03
1631023485015,3.48
1631023485031,3.84
1631023485046,4.11
1631023485062,4.29
1631023485078,4.35
1631023485093,4.21
1631023485109,3.83
1631023485125,3.23
1631023485140,2.55
1631023485156,1.92
1631023485171,1.49
1631023485187,1.26
1631023485203,1.19
1631023485218,1.14
1631023485234,1.06
1631023485250,0.93
1631023485265,0.83
1631023485281,0.82
1631023485296,0.96
1631023485312,1.2
1631023485328,1.42
1631023485343,1.48
1631023485359,1.27
1631023485375,0.77
1631023485390,0.02
1631023485406,-0.86
1631023485421,-1.77
1631023485437,-2.64
1631023485453,-3.43
1631023485468,-4.19
1631023485484,-4.98
1631023485500,-5.82
1631023485515,-6.64
1631023485531,-7.34
1631023485546,-7.77
1631023485562,-7.84
1631023485578,-7.51
1631023485593,-6.79
1631023485609,-5.74
1631023485625,-4.38
1631023485640,-2.8
1631023485656,-1.13
1631023485671,0.43
1631023485687,1.67
1631023485703,2.45
1631023485718,2.75
1631023485734,2.73
1631023485750,2.62
1631023485765,2.6
1631023485781,2.75
1631023485796,3.02
1631023485812,3.25
1631023485828,3.34
1631023485843,3.29
1631023485859,3.21
1631023485875,3.25
1631023485890,3.5
1631023485906,3.92
1631023485921,4.39
1631023485937,4.74
1631023485953,4.87
1631023485968,4.79
1631023485984,4.61
1631023486000,4.48
1631023486015,4.48
1631023486031,4.59
1631023486046,4.7
1631023486062,4.67
1631023486078,4.44
1631023486093,4.03
1631023486109,3.6
1631023486125,3.31
1631023486140,3.25
1631023486156,3.42
1631023486171,3.7
1631023486187,3.95
1631023486203,4.04
1631023486218,3.94
1631023486234,3.66
1631023486250,3.21
1631023486265,2.58
1631023486281,1.74
1631023486296,0.72
1631023486312,-0.43
1631023486328,-1.59
1631023486343,-2.64
1631023486359,-3.57
1631023486375,-4.45
1631023486390,-5.44
1631023486406,-6.65
1631023486421,-8.08
1631023486437,-9.53
1631023486453,-10.7
1631023486468,-11.22
1631023486484,-10.87
1631023486500,-9.59
1631023486515,-7.56
1631023486531,-5.13
1631023486546,-2.69
1631023486562,-0.56
1631023486578,1.1
1631023486593,2.24
1631023486609,2.96
1631023486625,3.37
1631023486640,3.54
1631023486656,3.56
1631023486671,3.46
1631023486687,3.3
1631023486703,3.13
1631023486718,3.03
1631023486734,3.07
1631023486750,3.24
1631023486765,3.48
1631023486781,3.68
1631023486796,3.74
1631023486812,3.61
1631023486828,3.36
1631023486843,3.11
1631023486859,2.99
1631023486875,3.09
1631023486890,3.35
1631023486906,3.63
1631023486921,3.79
1631023486937,3.73
1631023486953,3.45
1631023486968,3.03
1631023486984,2.56
1631023487000,2.08
1631023487015,1.6
1631023487031,1.09
1631023487046,0.55
1631023487062,0.01
1631023487078,-0.44
1631023487093,-0.75
1631023487109,-0.94
1631023487125,-1.08
1631023487140,-1.34
1631023487156,-1.82
1631023487171,-2.51
1631023487187,-3.34
1631023487203,-4.18
1631023487218,-4.94
1631023487234,-5.67
1631023487250,-6.47
1631023487265,-7.44
1631023487281,-8.55
1631023487296,-9.62
1631023487312,-10.36
1631023487328,-10.43
1631023487343,-9.63
1631023487359,-7.93
1631023487375,-5.52
1631023487390,-2.77
1631023487406,-0.15
1631023487421,1.9
1631023487437,3.12
1631023487453,3.48
1631023487468,3.19
1631023487484,2.62
1631023487500,2.11
1631023487515,1.9
1631023487531,2.03
1631023487546,2.37
1631023487562,2.77
1631023487578,3.09
1631023487593,3.33
1631023487609,3.5
1631023487625,3.65
1631023487640,3.79
1631023487656,3.87
1631023487671,3.84
1631023487687,3.7
1631023487703,3.48
1631023487718,3.28
1631023487734,3.16
1631023487750,3.1
1631023487765,3.03
1631023487781,2.87
1631023487796,2.57
1631023487812,2.17
1631023487828,1.78
1631023487843,1.52
1631023487859,1.43
1631023487875,1.49
1631023487890,1.6
1631023487906,1.66
1631023487921,1.65
1631023487937,1.57
1631023487953,1.46
1631023487968,1.31
1631023487984,1.07
1631023488000,0.67
1631023488015,0.03
1631023488031,-0.81
1631023488046,-1.77
1631023488062,-2.69
1631023488078,-3.47
1631023488093,-4.1
1631023488109,-4.66
1631023488125,-5.27
1631023488140,-6.04
1631023488156,-6.94
1631023488171,-7.85
1631023488187,-8.57
1631023488203,-8.89
1631023488218,-8.71
1631023488234,-8.01
1631023488250,-6.9
1631023488265,-5.53
1631023488281,-4.07
1631023488296,-2.64
1631023488312,-1.36
1631023488328,-0.28
1631023488343,0.55
1631023488359,1.12
1631023488375,1.44
1631023488390,1.55
1631023488406,1.55
1631023488421,1.52
1631023488437,1.53
1631023488453,1.61
1631023488468,1.7
1631023488484,1.78
1631023488500,1.83
1631023488515,1.9
1631023488531,2.04
1631023488546,2.27
1631023488562,2.54
1631023488578,2.76
1631023488593,2.86
1631023488609,2.81
1631023488625,2.69
1631023488640,2.58
1631023488656,2.57
1631023488671,2.63
1631023488687,2.71
1631023488703,2.76
1631023488718,2.78
1631023488734,2.83
1631023488750,3.01
1631023488765,3.34
1631023488781,3.78
1631023488796,4.2
1631023488812,4.46
1631023488828,4.49
1631023488843,4.27
1631023488859,3.85
1631023488875,3.29
1631023488890,2.62
1631023488906,1.86
1631023488921,0.99
1631023488937,0.03
1631023488953,-0.98
1631023488968,-1.98
1631023488984,-2.89
1631023489000,-3.66
1631023489015,-4.34
1631023489031,-5.01
1631023489046,-5.78
1631023489062,-6.73
1631023489078,-7.84
1631023489093,-8.93
1631023489109,-9.74
1631023489125,-10.01
1631023489140,-9.55
1631023489156,-8.39
1631023489171,-6.68
1631023489187,-4.7
1631023489203,-2.69
1631023489218,-0.83
1631023489234,0.78
1631023489250,2.09
1631023489265,3.06
1631023489281,3.64
1631023489296,3.83
1631023489312,3.7
1631023489328,3.41
1631023489343,3.12
1631023489359,2.97
1631023489375,2.98
1631023489390,3.07
1631023489406,3.15
1631023489421,3.15
1631023489437,3.12
1631023489453,3.17
1631023489468,3.43
1631023489484,3.89
1631023489500,4.43
1631023489515,4.88
1631023489531,5.07
1631023489546,4.98
1631023489562,4.7
1631023489578,4.36
1631023489593,4.03
1631023489609,3.69
1631023489625,3.26
1631023489640,2.7
1631023489656,2.06
1631023489671,1.48
1631023489687,1.1
1631023489703,0.99
1631023489718,1.06
1631023489734,1.17
1631023489750,1.13
1631023489765,0.85
1631023489781,0.31
1631023489796,-0.39
1631023489812,-1.17
1631023489828,-1.93
1631023489843,-2.64
1631023489859,-3.29
1631023489875,-3.9
1631023489890,-4.55
1631023489906,-5.28
1631023489921,-6.16
1631023489937,-7.22
1631023489953,-8.42
1631023489968,-9.63
1631023489984,-10.64
1631023490000,-11.22
1631023490015,-11.14
1631023490031,-10.26
1631023490046,-8.58
1631023490062,-6.27
1631023490078,-3.63
1631023490093,-1.03
1631023490109,1.18
1631023490125,2.75
1631023490140,3.63
1631023490156,3.9
1631023490171,3.77
1631023490187,3.45
1631023490203,3.13
1631023490218,2.89
1631023490234,2.72
1631023490250,2.59
1631023490265,2.43
1631023490281,2.23
1631023490296,2.01
1631023490312,1.81
1631023490328,1.7
1631023490343,1.73
1631023490359,1.94
1631023490375,2.31
1631023490390,2.76
1631023490406,3.21
1631023490421,3.52
1631023490437,3.64
1631023490453,3.56
1631023490468,3.34
1631023490484,3.07
1631023490500,2.8
1631023490515,2.56
1631023490531,2.39
1631023490546,2.31
1631023490562,2.35
1631023490578,2.51
1631023490593,2.74
1631023490609,2.89
1631023490625,2.79
1631023490640,2.34
1631023490656,1.51
1631023490671,0.41
1631023490687,-0.75
1631023490703,-1.8
1631023490718,-2.63
1631023490734,-3.22
1631023490750,-3.61
1631023490765,-3.94
1631023490781,-4.29
1631023490796,-4.79
1631023490812,-5.49
1631023490828,-6.36
1631023490843,-7.3
1631023490859,-8.1
1631023490875,-8.55
1631023490890,-8.48
1631023490906,-7.84
1631023490921,-6.7
1631023490937,-5.23
1631023490953,-3.66
1631023490968,-2.18
1631023490984,-0.91
1631023491000,0.05
1631023491015,0.72
1631023491031,1.13
1631023491046,1.34
1631023491062,1.46
1631023491078,1.57
1631023491093,1.75
1631023491109,2.02
1631023491125,2.34
1631023491140,2.68
1631023491156,2.96
1631023491171,3.15
1631023491187,3.22
1631023491203,3.17
1631023491218,3.02
1631023491234,2.8
1631023491250,2.53
1631023491265,2.25
1631023491281,2.02
1631023491296,1.88
1631023491312,1.86
1631023491328,1.94
1631023491343,2.09
1631023491359,2.24
1631023491375,2.33
1631023491390,2.34
1631023491406,2.28
1631023491421,2.18
1631023491437,2.04
1631023491453,1.9
1631023491468,1.78
1631023491484,1.71
1631023491500,1.68
1631023491515,1.65
1631023491531,1.58
1631023491546,1.43
1631023491562,1.15
1631023491578,0.75
1631023491593,0.23
1631023491609,-0.39
1631023491625,-1.07
1631023491640,-1.77
1631023491656,-2.4
1631023491671,-2.92
1631023491687,-3.35
1631023491703,-3.79
1631023491718,-4.4
1631023491734,-5.3
1631023491750,-6.47
1631023491765,-7.7
1631023491781,-8.67
1631023491796,-9.05
1631023491812,-8.63
1631023491828,-7.44
1631023491843,-5.73
1631023491859,-3.88
1631023491875,-2.23
1631023491890,-1.04
1631023491906,-0.37
1631023491921,-0.13
1631023491937,-0.12
1631023491953,-0.11
1631023491968,0.01
1631023491984,0.3
1631023492000,0.7
1631023492015,1.12
1631023492031,1.47
1631023492046,1.73
1631023492062,1.92
1631023492078,2.09
1631023492093,2.3
1631023492109,2.58
1631023492125,2.94
1631023492140,3.35
1631023492156,3.76
1631023492171,4.13
1631023492187,4.44
1631023492203,4.66
1631023492218,4.83
1631023492234,4.94
1631023492250,5.0
1631023492265,4.99
1631023492281,4.86
1631023492296,4.58
1631023492312,4.15
1631023492328,3.66
1631023492343,3.21
1631023492359,2.96
1631023492375,2.98
1631023492390,3.24
1631023492406,3.63
1631023492421,3.93
1631023492437,3.96
1631023492453,3.62
1631023492468,2.93
1631023492484,1.99
1631023492500,0.92
1631023492515,-0.19
1631023492531,-1.27
1631023492546,-2.29
1631023492562,-3.22
1631023492578,-4.04
1631023492593,-4.78
1631023492609,-5.5
1631023492625,-6.27
1631023492640,-7.12
1631023492656,-8.01
1631023492671,-8.83
1631023492687,-9.4
1631023492703,-9.51
1631023492718,-9.0
1631023492734,-7.79
1631023492750,-5.95
1631023492765,-3.69
1631023492781,-1.36
1631023492796,0.69
1631023492812,2.24
1631023492828,3.22
1631023492843,3.78
1631023492859,4.09
1631023492875,4.3
1631023492890,4.47
1631023492906,4.55
1631023492921,4.54
1631023492937,4.45
1631023492953,4.33
1631023492968,4.22
1631023492984,4.1
1631023493000,3.92
1631023493015,3.66
1631023493031,3.38
1631023493046,3.18
1631023493062,3.14
1631023493078,3.24
1631023493093,3.38
1631023493109,3.45
1631023493125,3.38
1631023493140,3.18
1631023493156,2.91
1631023493171,2.63
1631023493187,2.33
1631023493203,2.01
1631023493218,1.67
1631023493234,1.38
1631023493250,1.24
1631023493265,1.28
1631023493281,1.44
1631023493296,1.59
1631023493312,1.55
1631023493328,1.22
1631023493343,0.59
1631023493359,-0.25
1631023493375,-1.2
1631023493390,-2.13
1631023493406,-2.98
1631023493421,-3.68
1631023493437,-4.27
1631023493453,-4.77
1631023493468,-5.3
1631023493484,-5.97
1631023493500,-6.88
1631023493515,-8.03
1631023493531,-9.31
1631023493546,-10.45
1631023493562,-11.16
1631023493578,-11.16
1631023493593,-10.32
1631023493609,-8.68
1631023493625,-6.5
1631023493640,-4.1
1631023493656,-1.83
1631023493671,0.04
1631023493687,1.42
1631023493703,2.32
1631023493718,2.86
1631023493734,3.19
1631023493750,3.39
1631023493765,3.47
1631023493781,3.43
1631023493796,3.26
1631023493812,3.0
1631023493828,2.75
1631023493843,2.61
1631023493859,2.63
1631023493875,2.8
1631023493890,3.03
1631023493906,3.21
1631023493921,3.26
1631023493937,3.17
1631023493953,2.97
1631023493968,2.74
1631023493984,2.54
1631023494000,2.42
1631023494015,2.4
1631023494031,2.44
1631023494046,2.51
1631023494062,2.54
1631023494078,2.46
1631023494093,2.25
1631023494109,1.94
1631023494125,1.6
1631023494140,1.28
1631023494156,1.05
1631023494171,0.87
1631023494187,0.69
1631023494203,0.44
1631023494218,0.09
1631023494234,-0.34
1631023494250,-0.81
1631023494265,-1.3
1631023494281,-1.85
1631023494296,-2.48
1631023494312,-3.24
1631023494328,-4.12
1631023494343,-5.08
1631023494359,-6.02
1631023494375,-6.86
1631023494390,-7.52
1631023494406,-7.93
1631023494421,-8.04
1631023494437,-7.79
1631023494453,-7.13
1631023494468,-6.05
1631023494484,-4.65
1631023494500,-3.07
1631023494515,-1.51
1631023494531,-0.21
1631023494546,0.7
1631023494562,1.16
1631023494578,1.27
1631023494593,1.16
1631023494609,1.03
1631023494625,1.01
1631023494640,1.11
1631023494656,1.33
1631023494671,1.6
1631023494687,1.88
1631023494703,2.18
1631023494718,2.51
1631023494734,2.85
1631023494750,3.14
1631023494765,3.32
1631023494781,3.37
1631023494796,3.3
1631023494812,3.16
1631023494828,3.02
1631023494843,2.91
1631023494859,2.8
1631023494875,2.71
1631023494890,2.65
1631023494906,2.67
1631023494921,2.82
1631023494937,3.08
1631023494953,3.37
1631023494968,3.6
1631023494984,3.71
1631023495000,3.71
1631023495015,3.65
1631023495031,3.58
1631023495046,3.44
1631023495062,3.17
1631023495078,2.67
1631023495093,1.93
1631023495109,1.01
1631023495125,0.06
1631023495140,-0.8
1631023495156,-1.47
1631023495171,-1.97
1631023495187,-2.37
1631023495203,-2.78
1631023495218,-3.3
1631023495234,-4.02
1631023495250,-4.93
1631023495265,-6.02
1631023495281,-7.15
1631023495296,-8.19
1631023495312,-8.97
1631023495328,-9.32
1631023495343,-9.14
1631023495359,-8.37
1631023495375,-7.0
1631023495390,-5.16
1631023495406,-3.03
1631023495421,-0.88
1631023495437,1.01
1631023495453,2.46
1631023495468,3.39
1631023495484,3.88
1631023495500,4.09
1631023495515,4.19
1631023495531,4.29
1631023495546,4.4
1631023495562,4.48
1631023495578,4.51
1631023495593,4.51
1631023495609,4.53
1631023495625,4.63
1631023495640,4.84
1631023495656,5.11
1631023495671,5.37
1631023495687,5.5
1631023495703,5.45
1631023495718,5.22
1631023495734,4.87
1631023495750,4.47
1631023495765,4.04
1631023495781,3.59
1631023495796,3.07
1631023495812,2.5
1631023495828,1.92
1631023495843,1.42
1631023495859,1.12
1631023495875,1.05
1631023495890,1.15
1631023495906,1.26
1631023495921,1.19
1631023495937,0.8
1631023495953,0.07
1631023495968,-0.9
1631023495984,-1.94
1631023496000,-2.9
1631023496015,-3.7
1631023496031,-4.34
1631023496046,-4.88
1631023496062,-5.43
1631023496078,-6.08
1631023496093,-6.91
1631023496109,-7.9
1631023496125,-8.94
1631023496140,-9.82
1631023496156,-10.27
1631023496171,-10.09
1631023496187,-9.17
1631023496203,-7.58
1631023496218,-5.52
1631023496234,-3.29
1631023496250,-1.15
1631023496265,0.68
1631023496281,2.1
1631023496296,3.09
1631023496312,3.68
1631023496328,3.95
1631023496343,3.97
1631023496359,3.83
1631023496375,3.61
1631023496390,3.36
1631023496406,3.13
1631023496421,2.96
1631023496437,2.86
1631023496453,2.85
1631023496468,2.9
1631023496484,2.98
1631023496500,3.04
1631023496515,3.06
1631023496531,3.03
1631023496546,2.96
1631023496562,2.81
1631023496578,2.6
1631023496593,2.33
1631023496609,2.08
1631023496625,1.89
1631023496640,1.84
1631023496656,1.94
1631023496671,2.13
1631023496687,2.36
1631023496703,2.54
1631023496718,2.6
1631023496734,2.47
1631023496750,2.09
1631023496765,1.42
1631023496781,0.47
1631023496796,-0.66
1631023496812,-1.82
1631023496828,-2.84
1631023496843,-3.61
1631023496859,-4.12
1631023496875,-4.49
1631023496890,-4.91
1631023496906,-5.5
1631023496921,-6.27
1631023496937,-7.08
1631023496953,-7.72
1631023496968,-7.95
1631023496984,-7.67
1631023497000,-6.89
1631023497015,-5.72
1631023497031,-4.33
1631023497046,-2.91
1631023497062,-1.56
1631023497078,-0.41
1631023497093,0.48
1631023497109,1.07
1631023497125,1.39
1631023497140,1.55
1631023497156,1.73
1631023497171,2.05
1631023497187,2.56
1631023497203,3.17
1631023497218,3.7
1631023497234,4.01
1631023497250,4.06
1631023497265,3.92
1631023497281,3.68
1631023497296,3.46
1631023497312,3.26
1631023497328,3.08
1631023497343,2.88
1631023497359,2.66
1631023497375,2.41
1631023497390,2.09
1631023497406,1.7
1631023497421,1.23
1631023497437,0.8
1631023497453,0.5
1631023497468,0.46
1631023497484,0.7
1631023497500,1.12
1631023497515,1.59
1631023497531,1.98
1631023497546,2.24
1631023497562,2.4
1631023497578,2.52
1631023497593,2.57
1631023497609,2.43
1631023497625,1.93
1631023497640,0.99
1631023497656,-0.33
1631023497671,-1.81
1631023497687,-3.15
1631023497703,-4.15
1631023497718,-4.78
1631023497734,-5.2
1631023497750,-5.68
1631023497765,-6.41
1631023497781,-7.42
1631023497796,-8.53
1631023497812,-9.47
1631023497828,-9.97
1631023497843,-9.88
1631023497859,-9.21
1631023497875,-8.04
1631023497890,-6.51
1631023497906,-4.74
1631023497921,-2.89
1631023497937,-1.17
1631023497953,0.23
1631023497968,1.17
1631023497984,1.65
1631023498000,1.84
1631023498015,1.99
1631023498031,2.31
1631023498046,2.83
1631023498062,3.43
1631023498078,3.92
1631023498093,4.18
1631023498109,4.22
1631023498125,4.2
1631023498140,4.28
1631023498156,4.51
1631023498171,4.82
1631023498187,5.07
1631023498203,5.2
1631023498218,5.22
1631023498234,5.28
1631023498250,5.49
1631023498265,5.86
1631023498281,6.29
1631023498296,6.6
1631023498312,6.66
1631023498328,6.45
1631023498343,6.07
1631023498359,5.61
1631023498375,5.18
1631023498390,4.76
1631023498406,4.3
1631023498421,3.77
1631023498437,3.18
1631023498453,2.56
1631023498468,1.95
1631023498484,1.39
1631023498500,0.87
1631023498515,0.39
1631023498531,-0.04
1631023498546,-0.41
1631023498562,-0.76
1631023498578,-1.16
1631023498593,-1.73
1631023498609,-2.57
1631023498625,-3.73
1631023498640,-5.14
1631023498656,-6.67
1631023498671,-8.09
1631023498687,-9.2
1631023498703,-9.83
1631023498718,-9.87
1631023498734,-9.3
1631023498750,-8.14
1631023498765,-6.49
1631023498781,-4.47
1631023498796,-2.28
1631023498812,-0.15
1631023498828,1.7
1631023498843,3.09
1631023498859,3.99
1631023498875,4.49
1631023498890,4.79
1631023498906,5.03
1631023498921,5.26
1631023498937,5.41
1631023498953,5.3
1631023498968,4.86
1631023498984,4.18
1631023499000,3.51
1631023499015,3.13
1631023499031,3.15
1631023499046,3.49
1631023499062,3.86
1631023499078,4.04
1631023499093,3.93
1631023499109,3.69
1631023499125,3.55
1631023499140,3.64
1631023499156,3.92
1631023499171,4.16
1631023499187,4.1
1631023499203,3.6
1631023499218,2.74
1631023499234,1.71
1631023499250,0.77
1631023499265,0.05
1631023499281,-0.42
1631023499296,-0.69
1631023499312,-0.85
1631023499328,-1.02
1631023499343,-1.29
1631023499359,-1.77
1631023499375,-2.5
1631023499390,-3.44
1631023499406,-4.51
1631023499421,-5.58
1631023499437,-6.6
1631023499453,-7.56
1631023499468,-8.5
1631023499484,-9.39
1631023499500,-10.13
1631023499515,-10.55
1631023499531,-10.5
1631023499546,-9.95
1631023499562,-8.94
1631023499578,-7.63
1631023499593,-6.14
1631023499609,-4.55
1631023499625,-2.91
1631023499640,-1.3
1631023499656,0.18
1631023499671,1.39
1631023499687,2.25
1631023499703,2.75
1631023499718,2.96
1631023499734,3.04
1631023499750,3.14
1631023499765,3.34
1631023499781,3.67
1631023499796,4.07
1631023499812,4.44
1631023499828,4.66
1631023499843,4.66
1631023499859,4.44
1631023499875,4.1
1631023499890,3.75
1631023499906,3.49
1631023499921,3.39
1631023499937,3.41
1631023499953,3.53
1631023499968,3.72
1631023499984,3.92
1631023500000,4.07
1631023500015,4.11
1631023500031,3.94
1631023500046,3.54
1631023500062,2.97
1631023500078,2.36
1631023500093,1.85
1631023500109,1.53
1631023500125,1.39
1631023500140,1.32
1631023500156,1.18
1631023500171,0.89
1631023500187,0.47
1631023500203,-0.03
1631023500218,-0.53
1631023500234,-0.97
1631023500250,-1.36
1631023500265,-1.75
1631023500281,-2.19
1631023500296,-2.76
1631023500312,-3.51
1631023500328,-4.45
1631023500343,-5.56
1631023500359,-6.72
1631023500375,-7.8
1631023500390,-8.6
1631023500406,-9.0
1631023500421,-8.94
1631023500437,-8.43
1631023500453,-7.54
1631023500468,-6.33
1631023500484,-4.84
1631023500500,-3.15
1631023500515,-1.36
1631023500531,0.31
1631023500546,1.63
1631023500562,2.42
1631023500578,2.64
1631023500593,2.46
1631023500609,2.15
1631023500625,2.02
1631023500640,2.21
1631023500656,2.68
1631023500671,3.22
1631023500687,3.59
1631023500703,3.64
1631023500718,3.42
1631023500734,3.1
1631023500750,2.89
1631023500765,2.86
1631023500781,2.95
1631023500796,3.01
1631023500812,2.89
1631023500828,2.55
1631023500843,2.07
1631023500859,1.6
1631023500875,1.3
1631023500890,1.22
1631023500906,1.36
1631023500921,1.61
1631023500937,1.85
1631023500953,2.0
1631023500968,2.07
1631023500984,2.14
1631023501000,2.32
1631023501015,2.69
1631023501031,3.17
1631023501046,3.6
1631023501062,3.77
1631023501078,3.54
1631023501093,2.94
1631023501109,2.13
1631023501125,1.32
1631023501140,0.63
1631023501156,0.04
1631023501171,-0.53
1631023501187,-1.14
1631023501203,-1.78
1631023501218,-2.38
1631023501234,-2.9
1631023501250,-3.43
1631023501265,-4.11
1631023501281,-5.09
1631023501296,-6.34
1631023501312,-7.63
1631023501328,-8.59
1631023501343,-8.85
1631023501359,-8.25
1631023501375,-6.84
1631023501390,-4.95
1631023501406,-2.97
1631023501421,-1.26
1631023501437,-0.01
1631023501453,0.76
1631023501468,1.21
1631023501484,1.52
1631023501500,1.88
1631023501515,2.34
1631023501531,2.84
1631023501546,3.28
1631023501562,3.52
1631023501578,3.51
1631023501593,3.28
1631023501609,2.95
1631023501625,2.65
1631023501640,2.47
1631023501656,2.45
1631023501671,2.55
1631023501687,2.72
1631023501703,2.9
1631023501718,3.07
1631023501734,3.22
1631023501750,3.37
1631023501765,3.51
1631023501781,3.64
1631023501796,3.73
1631023501812,3.75
1631023501828,3.65
1631023501843,3.4
1631023501859,2.99
1631023501875,2.48
1631023501890,1.97
1631023501906,1.57
1631023501921,1.35
1631023501937,1.27
1631023501953,1.24
1631023501968,1.12
1631023501984,0.79
1631023502000,0.24
1631023502015,-0.44
1631023502031,-1.13
1631023502046,-1.74
1631023502062,-2.28
1631023502078,-2.82
1631023502093,-3.5
1631023502109,-4.4
1631023502125,-5.51
1631023502140,-6.75
1631023502156,-7.97
1631023502171,-9.03
1631023502187,-9.8
1631023502203,-10.17
1631023502218,-10.01
1631023502234,-9.23
1631023502250,-7.76
1631023502265,-5.66
1631023502281,-3.15
1631023502296,-0.57
1631023502312,1.67
1631023502328,3.25
1631023502343,4.05
1631023502359,4.15
1631023502375,3.83
1631023502390,3.38
1631023502406,3.03
1631023502421,2.86
1631023502437,2.81
1631023502453,2.8
1631023502468,2.78
1631023502484,2.79
1631023502500,2.89
1631023502515,3.16
1631023502531,3.54
1631023502546,3.89
1631023502562,4.04
1631023502578,3.89
1631023502593,3.5
1631023502609,3.08
1631023502625,2.85
1631023502640,2.94
1631023502656,3.28
1631023502671,3.63
1631023502687,3.74
1631023502703,3.48
1631023502718,2.91
1631023502734,2.26
1631023502750,1.75
1631023502765,1.54
1631023502781,1.6
1631023502796,1.8
1631023502812,1.93
1631023502828,1.86
1631023502843,1.48
1631023502859,0.8
1631023502875,-0.16
1631023502890,-1.3
1631023502906,-2.49
1631023502921,-3.58
1631023502937,-4.44
1631023502953,-5.0
1631023502968,-5.33
1631023502984,-5.53
1631023503000,-5.79
1631023503015,-6.23
1631023503031,-6.86
1631023503046,-7.6
1631023503062,-8.25
1631023503078,-8.58
1631023503093,-8.38
1631023503109,-7.56
1631023503125,-6.19
1631023503140,-4.46
1631023503156,-2.68
1631023503171,-1.12
1631023503187,0.06
1631023503203,0.83
1631023503218,1.29
1631023503234,1.6
1631023503250,1.87
1631023503265,2.17
1631023503281,2.46
1631023503296,2.69
1631023503312,2.78
1631023503328,2.68
1631023503343,2.4
1631023503359,2.01
1631023503375,1.62
1631023503390,1.35
1631023503406,1.32
1631023503421,1.58
1631023503437,2.15
1631023503453,2.95
1631023503468,3.82
1631023503484,4.57
1631023503500,4.99
1631023503515,4.93
1631023503531,4.39
1631023503546,3.5
1631023503562,2.49
1631023503578,1.62
1631023503593,1.06
1631023503609,0.83
1631023503625,0.84
1631023503640,0.9
1631023503656,0.88
1631023503671,0.74
1631023503687,0.55
1631023503703,0.4
1631023503718,0.37
1631023503734,0.41
1631023503750,0.41
1631023503765,0.2
1631023503781,-0.31
1631023503796,-1.15
1631023503812,-2.22
1631023503828,-3.39
1631023503843,-4.53
1631023503859,-5.55
1631023503875,-6.46
1631023503890,-7.27
1631023503906,-8.02
1631023503921,-8.72
1631023503937,-9.31
1631023503953,-9.73
1631023503968,-9.89
1631023503984,-9.7
1631023504000,-9.09
1631023504015,-8.04
1631023504031,-6.56
1631023504046,-4.8
1631023504062,-2.92
1631023504078,-1.13
1631023504093,0.44
1631023504109,1.71
1631023504125,2.65
1631023504140,3.28
1631023504156,3.6
1631023504171,3.64
1631023504187,3.43
1631023504203,3.06
1631023504218,2.66
1631023504234,2.37
1631023504250,2.28
1631023504265,2.41
1631023504281,2.73
1631023504296,3.16
1631023504312,3.61
1631023504328,4.0
1631023504343,4.32
1631023504359,4.58
1631023504375,4.82
1631023504390,5.09
1631023504406,5.41
1631023504421,5.71
1631023504437,5.9
1631023504453,5.89
1631023504468,5.63
1631023504484,5.15
1631023504500,4.56
1631023504515,3.96
1631023504531,3.46
1631023504546,3.09
1631023504562,2.86
1631023504578,2.71
1631023504593,2.58
1631023504609,2.38
1631023504625,2.01
1631023504640,1.44
1631023504656,0.68
1631023504671,-0.21
1631023504687,-1.1
1631023504703,-1.88
1631023504718,-2.53
1631023504734,-3.06
1631023504750,-3.57
1631023504765,-4.16
1631023504781,-4.93
1631023504796,-5.94
1631023504812,-7.18
1631023504828,-8.56
1631023504843,-9.83
1631023504859,-10.71
1631023504875,-10.87
1631023504890,-10.1
1631023504906,-8.4
1631023504921,-5.96
1631023504937,-3.19
1631023504953,-0.5
1631023504968,1.75
1631023504984,3.36
1631023505000,4.32
1631023505015,4.75
1631023505031,4.86
1631023505046,4.86
1631023505062,4.9
1631023505078,5.06
1631023505093,5.3
1631023505109,5.51
1631023505125,5.56
1631023505140,5.34
1631023505156,4.83
1631023505171,4.11
1631023505187,3.36
1631023505203,2.78
1631023505218,2.56
1631023505234,2.73
1631023505250,3.23
1631023505265,3.89
1631023505281,4.47
1631023505296,4.81
1631023505312,4.81
1631023505328,4.49
1631023505343,3.92
1631023505359,3.21
1631023505375,2.43
1631023505390,1.62
1631023505406,0.83
1631023505421,0.12
1631023505437,-0.43
1631023505453,-0.8
1631023505468,-1.01
1631023505484,-1.2
1631023505500,-1.54
1631023505515,-2.13
1631023505531,-2.93
1631023505546,-3.81
1631023505562,-4.6
1631023505578,-5.22
1631023505593,-5.73
1631023505609,-6.3
1631023505625,-7.12
1631023505640,-8.23
1631023505656,-9.5
1631023505671,-10.63
1631023505687,-11.3
1631023505703,-11.27
1631023505718,-10.44
1631023505734,-8.89
1631023505750,-6.81
1631023505765,-4.47
1631023505781,-2.2
1631023505796,-0.25
1631023505812,1.18
1631023505828,2.07
1631023505843,2.55
1631023505859,2.84
1631023505875,3.12
1631023505890,3.48
1631023505906,3.87
1631023505921,4.19
1631023505937,4.32
1631023505953,4.26
1631023505968,4.09
1631023505984,3.93
1631023506000,3.88
1631023506015,3.95
1631023506031,4.08
1631023506046,4.17
1631023506062,4.12
1631023506078,3.92
1631023506093,3.58
1631023506109,3.17
1631023506125,2.76
1631023506140,2.42
1631023506156,2.17
1631023506171,1.99
1631023506187,1.89
1631023506203,1.84
1631023506218,1.83
1631023506234,1.89
1631023506250,2.02
1631023506265,2.2
1631023506281,2.36
1631023506296,2.4
1631023506312,2.17
1631023506328,1.6
1631023506343,0.72
1631023506359,-0.38
1631023506375,-1.55
1631023506390,-2.64
1631023506406,-3.58
1631023506421,-4.33
1631023506437,-4.93
1631023506453,-5.44
1631023506468,-5.91
1631023506484,-6.42
1631023506500,-6.98
1631023506515,-7.59
1631023506531,-8.15
1631023506546,-8.52
1631023506562,-8.5
1631023506578,-7.93
1631023506593,-6.76
1631023506609,-5.09
1631023506625,-3.16
1631023506640,-1.29
1631023506656,0.2
1631023506671,1.13
1631023506687,1.48
1631023506703,1.37
1631023506718,1.06
1631023506734,0.76
1631023506750,0.64
1631023506765,0.71
1631023506781,0.95
1631023506796,1.29
1631023506812,1.69
1631023506828,2.15
1631023506843,2.64
1631023506859,3.12
1631023506875,3.52
1631023506890,3.79
1631023506906,3.95
1631023506921,4.03
1631023506937,4.13
1631023506953,4.29
1631023506968,4.5
1631023506984,4.74
1631023507000,4.97
1631023507015,5.19
1631023507031,5.43
1631023507046,5.73
1631023507062,6.05
1631023507078,6.33
1631023507093,6.42
1631023507109,6.22
1631023507125,5.75
1631023507140,5.11
1631023507156,4.45
1631023507171,3.9
1631023507187,3.5
1631023507203,3.13
1631023507218,2.64
1631023507234,1.91
1631023507250,0.91
1631023507265,-0.22
1631023507281,-1.27
1631023507296,-2.1
1631023507312,-2.67
1631023507328,-3.12
1631023507343,-3.7
1631023507359,-4.63
1631023507375,-6.0
1631023507390,-7.73
1631023507406,-9.53
1631023507421,-11.05
1631023507437,-11.97
1631023507453,-12.08
1631023507468,-11.34
1631023507484,-9.82
1631023507500,-7.68
1631023507515,-5.13
1631023507531,-2.47
1631023507546,-0.05
1631023507562,1.79
1631023507578,2.85
1631023507593,3.13
1631023507609,2.83
1631023507625,2.35
1631023507640,2.06
1631023507656,2.2
1631023507671,2.75
1631023507687,3.55
1631023507703,4.32
1631023507718,4.87
1631023507734,5.1
1631023507750,5.06
1631023507765,4.84
1631023507781,4.58
1631023507796,4.35
1631023507812,4.21
1631023507828,4.13
1631023507843,4.11
1631023507859,4.13
1631023507875,4.15
1631023507890,4.18
1631023507906,4.21
1631023507921,4.22
1631023507937,4.15
1631023507953,3.96
1631023507968,3.61
1631023507984,3.09
1631023508000,2.49
1631023508015,1.9
1631023508031,1.38
1631023508046,0.94
1631023508062,0.54
1631023508078,0.08
1631023508093,-0.51
1631023508109,-1.22
1631023508125,-2.01
1631023508140,-2.8
1631023508156,-3.51
1631023508171,-4.17
1631023508187,-4.86
1631023508203,-5.66
1631023508218,-6.63
1631023508234,-7.72
1631023508250,-8.78
1631023508265,-9.62
1631023508281,-10.03
1631023508296,-9.88
1631023508312,-9.15
1631023508328,-7.92
1631023508343,-6.31
1631023508359,-4.51
1631023508375,-2.71
1631023508390,-1.08
1631023508406,0.25
1631023508421,1.24
1631023508437,1.92
1631023508453,2.4
1631023508468,2.78
1631023508484,3.13
1631023508500,3.42
1631023508515,3.59
1631023508531,3.59
1631023508546,3.37
1631023508562,3.02
1631023508578,2.62
1631023508593,2.31
1631023508609,2.17
1631023508625,2.24
1631023508640,2.48
1631023508656,2.85
1631023508671,3.27
1631023508687,3.66
1631023508703,3.98
1631023508718,4.16
1631023508734,4.18
1631023508750,4.05
1631023508765,3.83
1631023508781,3.61
1631023508796,3.48
1631023508812,3.49
1631023508828,3.59
1631023508843,3.74
1631023508859,3.83
1631023508875,3.81
1631023508890,3.66
1631023508906,3.41
1631023508921,3.11
1631023508937,2.73
1631023508953,2.22
1631023508968,1.5
1631023508984,0.54
1631023509000,-0.59
1631023509015,-1.76
1631023509031,-2.8
1631023509046,-3.61
1631023509062,-4.2
1631023509078,-4.69
1631023509093,-5.22
1631023509109,-5.92
1631023509125,-6.76
1631023509140,-7.64
1631023509156,-8.34
1631023509171,-8.69
1631023509187,-8.56
1631023509203,-7.92
1631023509218,-6.81
1631023509234,-5.34
1631023509250,-3.69
1631023509265,-2.04
1631023509281,-0.61
1631023509296,0.41
1631023509312,0.93
1631023509328,0.98
1631023509343,0.74
1631023509359,0.46
1631023509375,0.39
1631023509390,0.65
1631023509406,1.23
1631023509421,1.97
1631023509437,2.69
1631023509453,3.26
1631023509468,3.63
1631023509484,3.84
1631023509500,3.95
1631023509515,3.99
1631023509531,3.91
1631023509546,3.67
1631023509562,3.25
1631023509578,2.74
1631023509593,2.27
1631023509609,1.99
1631023509625,1.95
1631023509640,2.1
1631023509656,2.34
1631023509671,2.54
1631023509687,2.65
1631023509703,2.7
1631023509718,2.75
1631023509734,2.88
1631023509750,3.14
1631023509765,3.5
1631023509781,3.88
1631023509796,4.18
1631023509812,4.32
1631023509828,4.27
1631023509843,4.03
1631023509859,3.68
1631023509875,3.28
1631023509890,2.85
1631023509906,2.38
1631023509921,1.81
1631023509937,1.1
1631023509953,0.21
1631023509968,-0.8
1631023509984,-1.88
1631023510000,-2.95
1631023510015,-3.97
1631023510031,-4.99
1631023510046,-6.05
1631023510062,-7.18
1631023510078,-8.34
1631023510093,-9.38
1631023510109,-10.12
1631023510125,-10.35
1631023510140,-9.92
1631023510156,-8.78
1631023510171,-7.0
1631023510187,-4.79
1631023510203,-2.43
1631023510218,-0.26
1631023510234,1.41
1631023510250,2.43
1631023510265,2.82
1631023510281,2.81
1631023510296,2.67
1631023510312,2.66
1631023510328,2.82
1631023510343,3.04
1631023510359,3.11
1631023510375,2.88
1631023510390,2.36
1631023510406,1.72
1631023510421,1.2
1631023510437,0.96
1631023510453,1.05
1631023510468,1.4
1631023510484,1.87
1631023510500,2.35
1631023510515,2.8
1631023510531,3.17
1631023510546,3.48
1631023510562,3.72
1631023510578,3.86
1631023510593,3.91
1631023510609,3.83
1631023510625,3.62
1631023510640,3.26
1631023510656,2.79
1631023510671,2.3
1631023510687,1.86
1631023510703,1.57
1631023510718,1.41
1631023510734,1.29
1631023510750,1.09
1631023510765,0.68
1631023510781,0.02
1631023510796,-0.85
1631023510812,-1.84
1631023510828,-2.83
1631023510843,-3.72
1631023510859,-4.47
1631023510875,-5.06
1631023510890,-5.54
1631023510906,-6.0
1631023510921,-6.55
1631023510937,-7.29
1631023510953,-8.21
1631023510968,-9.18
1631023510984,-9.92
1631023511000,-10.15
1631023511015,-9.69
1631023511031,-8.52
1631023511046,-6.79
1631023511062,-4.74
1631023511078,-2.65
1631023511093,-0.74
1631023511109,0.79
1631023511125,1.82
1631023511140,2.28
1631023511156,2.22
1631023511171,1.81
1631023511187,1.32
1631023511203,1.01
1631023511218,1.05
1631023511234,1.48
1631023511250,2.17
1631023511265,2.95
1631023511281,3.63
1631023511296,4.1
1631023511312,4.34
1631023511328,4.38
1631023511343,4.29
1631023511359,4.13
1631023511375,4.0
1631023511390,3.94
1631023511406,3.98
1631023511421,4.06
1631023511437,4.09
1631023511453,3.98
1631023511468,3.67
1631023511484,3.21
1631023511500,2.72
1631023511515,2.34
1631023511531,2.12
1631023511546,2.05
1631023511562,2.02
1631023511578,1.94
1631023511593,1.76
1631023511609,1.53
1631023511625,1.27
1631023511640,1.0
1631023511656,0.64
1631023511671,0.1
1631023511687,-0.65
1631023511703,-1.59
1631023511718,-2.57
1631023511734,-3.44
1631023511750,-4.14
1631023511765,-4.67
1631023511781,-5.13
1631023511796,-5.62
1631023511812,-6.21
1631023511828,-6.87
1631023511843,-7.51
1631023511859,-7.99
1631023511875,-8.21
1631023511890,-8.09
1631023511906,-7.57
1631023511921,-6.66
1631023511937,-5.43
1631023511953,-3.97
1631023511968,-2.42
1631023511984,-0.96
1631023512000,0.25
1631023512015,1.12
1631023512031,1.63
1631023512046,1.89
1631023512062,2.01
1631023512078,2.08
1631023512093,2.14
1631023512109,2.15
1631023512125,2.06
1631023512140,1.87
1631023512156,1.64
1631023512171,1.49
1631023512187,1.52
1631023512203,1.79
1631023512218,2.22
1631023512234,2.72
1631023512250,3.19
1631023512265,3.58
1631023512281,3.88
1631023512296,4.12
1631023512312,4.29
1631023512328,4.36
1631023512343,4.27
1631023512359,4.01
1631023512375,3.62
1631023512390,3.18
1631023512406,2.8
1631023512421,2.54
1631023512437,2.46
1631023512453,2.51
1631023512468,2.67
1631023512484,2.85
1631023512500,3.01
1631023512515,3.07
1631023512531,3.01
1631023512546,2.8
1631023512562,2.43
1631023512578,1.9
1631023512593,1.22
1631023512609,0.42
1631023512625,-0.51
1631023512640,-1.5
1631023512656,-2.51
1631023512671,-3.5
1631023512687,-4.5
1631023512703,-5.54
1631023512718,-6.68
1631023512734,-7.92
1631023512750,-9.13
1631023512765,-10.14
1631023512781,-10.71
1631023512796,-10.68
1631023512812,-10.01
1631023512828,-8.76
1631023512843,-7.1
1631023512859,-5.22
1631023512875,-3.27
1631023512890,-1.4
1631023512906,0.28
1631023512921,1.64
1631023512937,2.59
1631023512953,3.07
1631023512968,3.12
1631023512984,2.86
1631023513000,2.48
1631023513015,2.16
1631023513031,2.02
1631023513046,2.08
1631023513062,2.27
1631023513078,2.49
1631023513093,2.71
1631023513109,2.92
1631023513125,3.18
1631023513140,3.49
1631023513156,3.8
1631023513171,4.01
1631023513187,4.08
1631023513203,4.04
1631023513218,3.97
1631023513234,3.96
1631023513250,4.0
1631023513265,3.98
1631023513281,3.77
1631023513296,3.28
1631023513312,2.61
1631023513328,1.94
1631023513343,1.46
1631023513359,1.24
1631023513375,1.21
1631023513390,1.18
1631023513406,0.93
1631023513421,0.38
1631023513437,-0.44
1631023513453,-1.37
1631023513468,-2.23
1631023513484,-2.89
1631023513500,-3.29
1631023513515,-3.51
1631023513531,-3.7
1631023513546,-4.06
1631023513562,-4.73
1631023513578,-5.77
1631023513593,-7.09
1631023513609,-8.48
1631023513625,-9.68
1631023513640,-10.42
1631023513656,-10.49
1631023513671,-9.83
1631023513687,-8.44
1631023513703,-6.45
1631023513718,-4.06
1631023513734,-1.54
1631023513750,0.79
1631023513765,2.68
1631023513781,3.95
1631023513796,4.59
1631023513812,4.7
1631023513828,4.49
1631023513843,4.16
1631023513859,3.89
1631023513875,3.71
1631023513890,3.63
1631023513906,3.58
1631023513921,3.53
1631023513937,3.45
1631023513953,3.39
1631023513968,3.41
1631023513984,3.53
1631023514000,3.74
1631023514015,3.98
1631023514031,4.17
1631023514046,4.26
1631023514062,4.24
1631023514078,4.16
1631023514093,4.09
1631023514109,4.07
1631023514125,4.06
1631023514140,4.0
1631023514156,3.83
1631023514171,3.53
1631023514187,3.14
1631023514203,2.73
1631023514218,2.36
1631023514234,2.05
1631023514250,1.73
1631023514265,1.31
1631023514281,0.72
1631023514296,-0.06
1631023514312,-0.99
1631023514328,-1.98
1631023514343,-2.95
1631023514359,-3.84
1631023514375,-4.64
1631023514390,-5.36
1631023514406,-6.07
1631023514421,-6.79
1631023514437,-7.53
1631023514453,-8.21
1631023514468,-8.77
1631023514484,-9.09
1631023514500,-9.1
1631023514515,-8.72
1631023514531,-7.94
1631023514546,-6.77
1631023514562,-5.31
1631023514578,-3.71
1631023514593,-2.16
1631023514609,-0.88
1631023514625,-0.01
1631023514640,0.41
1631023514656,0.45
1631023514671,0.31
1631023514687,0.19
1631023514703,0.25
1631023514718,0.58
1631023514734,1.16
1631023514750,1.87
1631023514765,2.58
1631023514781,3.18
1631023514796,3.61
1631023514812,3.91
1631023514828,4.11
1631023514843,4.25
1631023514859,4.33
1631023514875,4.36
1631023514890,4.31
1631023514906,4.23
1631023514921,4.12
1631023514937,4.01
1631023514953,3.83
1631023514968,3.51
1631023514984,3.04
1631023515000,2.49
1631023515015,2.03
1631023515031,1.84
1631023515046,2.02
1631023515062,2.48
1631023515078,3.0
1631023515093,3.35
1631023515109,3.38
1631023515125,3.09
1631023515140,2.59
1631023515156,1.98
1631023515171,1.29
1631023515187,0.5
1631023515203,-0.42
1631023515218,-1.43
1631023515234,-2.42
1631023515250,-3.22
1631023515265,-3.8
1631023515281,-4.2
1631023515296,-4.6
1631023515312,-5.18
1631023515328,-6.02
1631023515343,-7.03
1631023515359,-8.02
1631023515375,-8.72
1631023515390,-8.92
1631023515406,-8.52
1631023515421,-7.53
1631023515437,-6.02
1631023515453,-4.15
1631023515468,-2.09
1631023515484,-0.1
1631023515500,1.54
1631023515515,2.58
1631023515531,2.9
1631023515546,2.6
1631023515562,2.0
1631023515578,1.48
1631023515593,1.38
1631023515609,1.81
1631023515625,2.65
1631023515640,3.65
1631023515656,4.54
1631023515671,5.13
1631023515687,5.39
1631023515703,5.4
1631023515718,5.28
1631023515734,5.17
1631023515750,5.13
1631023515765,5.21
1631023515781,5.39
1631023515796,5.63
1631023515812,5.89
1631023515828,6.12
1631023515843,6.28
1631023515859,6.32
1631023515875,6.18
1631023515890,5.84
1631023515906,5.31
1631023515921,4.69
1631023515937,4.09
1631023515953,3.63
1631023515968,3.34
1631023515984,3.16
1631023516000,2.97
1631023516015,2.62
1631023516031,2.07
1631023516046,1.31
1631023516062,0.41
1631023516078,-0.57
1631023516093,-1.6
1631023516109,-2.64
1631023516125,-3.68
1631023516140,-4.66
1631023516156,-5.56
1631023516171,-6.41
1631023516187,-7.3
1631023516203,-8.29
1631023516218,-9.36
1631023516234,-10.36
1631023516250,-10.99
1631023516265,-10.93
1631023516281,-9.97
1631023516296,-8.03
1631023516312,-5.29
1631023516328,-2.13
1631023516343,0.96
1631023516359,3.53
1631023516375,5.25
1631023516390,6.08
1631023516406,6.21
1631023516421,5.97
1631023516437,5.68
1631023516453,5.49
1631023516468,5.36
1631023516484,5.19
1631023516500,4.88
1631023516515,4.46
1631023516531,4.07
1631023516546,3.87
1631023516562,3.89
1631023516578,4.04
1631023516593,4.15
1631023516609,4.07
1631023516625,3.78
1631023516640,3.39
1631023516656,3.03
1631023516671,2.81
1631023516687,2.73
1631023516703,2.7
1631023516718,2.63
1631023516734,2.44
1631023516750,2.17
1631023516765,1.87
1631023516781,1.6
1631023516796,1.35
1631023516812,1.0
1631023516828,0.43
1631023516843,-0.43
1631023516859,-1.51
1631023516875,-2.64
1631023516890,-3.62
1631023516906,-4.32
1631023516921,-4.77
1631023516937,-5.13
1631023516953,-5.61
1631023516968,-6.37
1631023516984,-7.45
1631023517000,-8.73
1631023517015,-10.01
1631023517031,-11.07
1631023517046,-11.71
1631023517062,-11.82
1631023517078,-11.31
1631023517093,-10.18
1631023517109,-8.47
1631023517125,-6.28
1631023517140,-3.8
1631023517156,-1.29
1631023517171,0.97
1631023517187,2.76
1631023517203,3.93
1631023517218,4.51
1631023517234,4.65
1631023517250,4.56
1631023517265,4.42
1631023517281,4.3
1631023517296,4.19
1631023517312,3.99
1631023517328,3.66
1631023517343,3.23
1631023517359,2.8
1631023517375,2.52
1631023517390,2.5
1631023517406,2.75
1631023517421,3.2
1631023517437,3.69
1631023517453,4.06
1631023517468,4.19
1631023517484,4.07
1631023517500,3.75
1631023517515,3.31
1631023517531,2.85
1631023517546,2.43
1631023517562,2.08
1631023517578,1.81
1631023517593,1.6
1631023517609,1.43
1631023517625,1.29
1631023517640,1.12
1631023517656,0.86
1631023517671,0.45
1631023517687,-0.12
1631023517703,-0.84
1631023517718,-1.6
1631023517734,-2.26
1631023517750,-2.73
1631023517765,-2.99
1631023517781,-3.1
1631023517796,-3.25
1631023517812,-3.64
1631023517828,-4.38
1631023517843,-5.47
1631023517859,-6.72
1631023517875,-7.86
1631023517890,-8.6
1631023517906,-8.74
1631023517921,-8.26
1631023517937,-7.22
1631023517953,-5.82
1631023517968,-4.22
1631023517984,-2.58
1631023518000,-1.0
1631023518015,0.43
1631023518031,1.62
1631023518046,2.48
1631023518062,2.96
1631023518078,3.12
1631023518093,3.11
1631023518109,3.16
1631023518125,3.44
1631023518140,3.99
1631023518156,4.7
1631023518171,5.37
1631023518187,5.82
1631023518203,5.96
1631023518218,5.81
1631023518234,5.47
1631023518250,5.08
1631023518265,4.7
1631023518281,4.35
1631023518296,3.99
1631023518312,3.63
1631023518328,3.24
1631023518343,2.88
1631023518359,2.61
1631023518375,2.5
1631023518390,2.62
1631023518406,2.98
1631023518421,3.51
1631023518437,4.06
1631023518453,4.5
1631023518468,4.74
1631023518484,4.76
1631023518500,4.65
1631023518515,4.46
1631023518531,4.21
1631023518546,3.83
1631023518562,3.22
1631023518578,2.33
1631023518593,1.23
1631023518609,0.06
1631023518625,-0.99
1631023518640,-1.77
1631023518656,-2.31
1631023518671,-2.73
1631023518687,-3.25
1631023518703,-4.06
1631023518718,-5.23
1631023518734,-6.67
1631023518750,-8.15
1631023518765,-9.37
1631023518781,-10.06
1631023518796,-10.04
1631023518812,-9.29
1631023518828,-7.89
1631023518843,-6.02
1631023518859,-3.89
1631023518875,-1.75
1631023518890,0.2
1631023518906,1.77
1631023518921,2.88
1631023518937,3.52
1631023518953,3.79
1631023518968,3.83
1631023518984,3.79
1631023519000,3.74
1631023519015,3.68
1631023519031,3.58
1631023519046,3.4
1631023519062,3.16
1631023519078,2.89
1631023519093,2.66
1631023519109,2.51
1631023519125,2.47
1631023519140,2.57
1631023519156,2.8
1631023519171,3.15
1631023519187,3.58
1631023519203,4.02
1631023519218,4.34
1631023519234,4.44
1631023519250,4.25
1631023519265,3.78
1631023519281,3.12
1631023519296,2.42
1631023519312,1.82
1631023519328,1.41
1631023519343,1.21
1631023519359,1.14
1631023519375,1.08
1631023519390,0.89
1631023519406,0.48
1631023519421,-0.18
1631023519437,-1.05
1631023519453,-2.04
1631023519468,-3.04
1631023519484,-3.96
1631023519500,-4.74
1631023519515,-5.37
1631023519531,-5.9
1631023519546,-6.47
1631023519562,-7.16
1631023519578,-8.06
1631023519593,-9.12
1631023519609,-10.12
1631023519625,-10.81
1631023519640,-10.88
1631023519656,-10.15
1631023519671,-8.63
1631023519687,-6.49
1631023519703,-4.03
1631023519718,-1.6
1631023519734,0.52
1631023519750,2.15
1631023519765,3.28
1631023519781,3.96
1631023519796,4.33
1631023519812,4.5
1631023519828,4.54
1631023519843,4.44
1631023519859,4.22
1631023519875,3.89
1631023519890,3.54
1631023519906,3.25
1631023519921,3.09
1631023519937,3.07
1631023519953,3.15
1631023519968,3.24
1631023519984,3.29
1631023520000,3.32
1631023520015,3.39
1631023520031,3.56
1631023520046,3.82
1631023520062,4.07
1631023520078,4.18
1631023520093,4.07
1631023520109,3.73
1631023520125,3.26
1631023520140,2.79
1631023520156,2.45
1631023520171,2.27
1631023520187,2.24
1631023520203,2.27
1631023520218,2.27
1631023520234,2.14
1631023520250,1.82
1631023520265,1.27
1631023520281,0.47
1631023520296,-0.53
1631023520312,-1.63
1631023520328,-2.7
1631023520343,-3.62
1631023520359,-4.36
1631023520375,-4.99
1631023520390,-5.64
1631023520406,-6.4
1631023520421,-7.29
1631023520437,-8.18
1631023520453,-8.91
1631023520468,-9.32
1631023520484,-9.31
1631023520500,-8.86
1631023520515,-7.99
1631023520531,-6.74
1631023520546,-5.19
1631023520562,-3.5
1631023520578,-1.85
1631023520593,-0.49
1631023520609,0.44
1631023520625,0.92
1631023520640,1.12
1631023520656,1.27
1631023520671,1.53
1631023520687,1.95
1631023520703,2.44
1631023520718,2.85
1631023520734,3.11
1631023520750,3.2
1631023520765,3.19
1631023520781,3.13
1631023520796,3.01
1631023520812,2.8
1631023520828,2.51
1631023520843,2.19
1631023520859,1.93
1631023520875,1.82
1631023520890,1.89
1631023520906,2.04
1631023520921,2.16
1631023520937,2.16
1631023520953,2.04
1631023520968,1.89
1631023520984,1.85
1631023521000,1.98
1631023521015,2.28
1631023521031,2.65
1631023521046,2.98
1631023521062,3.21
1631023521078,3.29
1631023521093,3.26
1631023521109,3.1
1631023521125,2.79
1631023521140,2.28
1631023521156,1.55
1631023521171,0.59
1631023521187,-0.47
1631023521203,-1.53
1631023521218,-2.48
1631023521234,-3.31
1631023521250,-4.08
1631023521265,-4.9
1631023521281,-5.85
1631023521296,-6.89
1631023521312,-7.95
1631023521328,-8.83
1631023521343,-9.4
1631023521359,-9.5
1631023521375,-9.07
1631023521390,-8.08
1631023521406,-6.6
1631023521421,-4.81
1631023521437,-2.97
1631023521453,-1.39
1631023521468,-0.29
1631023521484,0.27
1631023521500,0.43
1631023521515,0.47
1631023521531,0.64
1631023521546,1.05
1631023521562,1.64
1631023521578,2.22
1631023521593,2.64
1631023521609,2.85
1631023521625,2.94
1631023521640,3.04
1631023521656,3.24
1631023521671,3.51
1631023521687,3.79
1631023521703,4.0
1631023521718,4.15
1631023521734,4.3
1631023521750,4.54
1631023521765,4.89
1631023521781,5.29
1631023521796,5.65
1631023521812,5.86
1631023521828,5.9
1631023521843,5.8
1631023521859,5.61
1631023521875,5.36
1631023521890,5.06
1631023521906,4.69
1631023521921,4.25
1631023521937,3.77
1631023521953,3.3
1631023521968,2.88
1631023521984,2.51
1631023522000,2.13
1631023522015,1.65
1631023522031,1.0
1631023522046,0.16
1631023522062,-0.84
1631023522078,-1.93
1631023522093,-3.05
1631023522109,-4.19
1631023522125,-5.34
1631023522140,-6.5
1631023522156,-7.64
1631023522171,-8.68
1631023522187,-9.49
1631023522203,-9.94
1631023522218,-9.91
1631023522234,-9.36
1631023522250,-8.31
1631023522265,-6.8
1631023522281,-4.95
1631023522296,-2.91
1631023522312,-0.85
1631023522328,1.02
1631023522343,2.54
1631023522359,3.63
1631023522375,4.27
1631023522390,4.55
1631023522406,4.57
1631023522421,4.45
1631023522437,4.22
1631023522453,3.85
1631023522468,3.34
1631023522484,2.69
1631023522500,2.01
1631023522515,1.49
1631023522531,1.25
1631023522546,1.35
1631023522562,1.71
1631023522578,2.17
1631023522593,2.55
1631023522609,2.8
1631023522625,2.94
1631023522640,3.05
1631023522656,3.13
1631023522671,3.13
1631023522687,2.93
1631023522703,2.47
1631023522718,1.81
1631023522734,1.09
1631023522750,0.52
1631023522765,0.2
1631023522781,0.14
1631023522796,0.2
1631023522812,0.2
1631023522828,-0.0
1631023522843,-0.47
1631023522859,-1.17
1631023522875,-2.01
1631023522890,-2.9
1631023522906,-3.83
1631023522921,-4.83
1631023522937,-5.96
1631023522953,-7.21
1631023522968,-8.49
1631023522984,-9.59
1631023523000,-10.3
1631023523015,-10.42
1631023523031,-9.88
1631023523046,-8.71
1631023523062,-7.05
1631023523078,-5.1
1631023523093,-3.06
1631023523109,-1.16
1631023523125,0.44
1631023523140,1.61
1631023523156,2.36
1631023523171,2.77
1631023523187,3.0
1631023523203,3.17
1631023523218,3.34
1631023523234,3.49
1631023523250,3.53
1631023523265,3.41
1631023523281,3.14
1631023523296,2.85
1631023523312,2.65
1631023523328,2.67
1631023523343,2.92
1631023523359,3.33
1631023523375,3.71
1631023523390,3.9
1631023523406,3.76
1631023523421,3.31
1631023523437,2.66
1631023523453,1.99
1631023523468,1.51
1631023523484,1.34
1631023523500,1.49
1631023523515,1.84
1631023523531,2.23
1631023523546,2.52
1631023523562,2.63
1631023523578,2.51
1631023523593,2.2
1631023523609,1.71
1631023523625,1.06
1631023523640,0.29
1631023523656,-0.55
1631023523671,-1.45
1631023523687,-2.36
1631023523703,-3.3
1631023523718,-4.28
1631023523734,-5.29
1631023523750,-6.28
1631023523765,-7.21
1631023523781,-7.98
1631023523796,-8.54
1631023523812,-8.8
1631023523828,-8.71
1631023523843,-8.18
1631023523859,-7.19
1631023523875,-5.76
1631023523890,-4.02
1631023523906,-2.15
1631023523921,-0.41
1631023523937,1.02
1631023523953,2.01
1631023523968,2.57
1631023523984,2.81
1631023524000,2.86
1631023524015,2.9
1631023524031,3.04
1631023524046,3.32
1631023524062,3.66
1631023524078,4.0
1631023524093,4.24
1631023524109,4.33
1631023524125,4.3
1631023524140,4.18
1631023524156,4.04
1631023524171,3.91
1631023524187,3.76
1631023524203,3.58
1631023524218,3.35
1631023524234,3.08
1631023524250,2.81
1631023524265,2.58
1631023524281,2.44
1631023524296,2.39
1631023524312,2.4
1631023524328,2.42
1631023524343,2.4
1631023524359,2.29
1631023524375,2.13
1631023524390,1.93
1631023524406,1.74
1631023524421,1.55
1631023524437,1.35
1631023524453,1.06
1631023524468,0.68
1631023524484,0.18
1631023524500,-0.39
1631023524515,-1.0
1631023524531,-1.61
1631023524546,-2.22
1631023524562,-2.85
1631023524578,-3.52
1631023524593,-4.22
1631023524609,-4.95
1631023524625,-5.69
1631023524640,-6.42
1631023524656,-7.09
1631023524671,-7.65
1631023524687,-7.99
1631023524703,-8.02
1631023524718,-7.64
1631023524734,-6.85
1631023524750,-5.68
1631023524765,-4.24
1631023524781,-2.67
1631023524796,-1.12
1631023524812,0.24
1631023524828,1.3
1631023524843,1.98
1631023524859,2.3
1631023524875,2.36
1631023524890,2.33
1631023524906,2.35
1631023524921,2.5
1631023524937,2.73
1631023524953,2.95
1631023524968,3.07
1631023524984,3.07
1631023525000,3.0
1631023525015,2.92
1631023525031,2.87
1631023525046,2.83
1631023525062,2.77
1631023525078,2.65
1631023525093,2.5
1631023525109,2.36
1631023525125,2.26
1631023525140,2.22
1631023525156,2.25
1631023525171,2.34
1631023525187,2.51
1631023525203,2.72
1631023525218,2.95
1631023525234,3.1
1631023525250,3.12
1631023525265,3.0
1631023525281,2.82
1631023525296,2.7
1631023525312,2.72
1631023525328,2.9
1631023525343,3.13
1631023525359,3.26
1631023525375,3.2
1631023525390,2.89
1631023525406,2.35
1631023525421,1.59
1631023525437,0.63
1631023525453,-0.53
1631023525468,-1.84
1631023525484,-3.18
1631023525500,-4.42
1631023525515,-5.44
1631023525531,-6.2
1631023525546,-6.77
1631023525562,-7.26
1631023525578,-7.73
1631023525593,-8.17
1631023525609,-8.46
1631023525625,-8.44
1631023525640,-7.99
1631023525656,-7.05
1631023525671,-5.66
1631023525687,-3.92
1631023525703,-1.99
1631023525718,-0.12
1631023525734,1.46
1631023525750,2.53
1631023525765,3.03
1631023525781,3.01
1631023525796,2.64
1631023525812,2.11
1631023525828,1.59
1631023525843,1.14
1631023525859,0.8
1631023525875,0.63
1631023525890,0.74
1631023525906,1.2
1631023525921,1.97
1631023525937,2.9
1631023525953,3.75
1631023525968,4.34
1631023525984,4.61
1631023526000,4.63
1631023526015,4.56
1631023526031,4.53
1631023526046,4.57
1631023526062,4.63
1631023526078,4.64
1631023526093,4.53
1631023526109,4.27
1631023526125,3.88
1631023526140,3.38
1631023526156,2.79
1631023526171,2.18
1631023526187,1.59
1631023526203,1.07
1631023526218,0.65
1631023526234,0.31
1631023526250,0.04
1631023526265,-0.16
1631023526281,-0.3
1631023526296,-0.41
1631023526312,-0.52
1631023526328,-0.74
1631023526343,-1.16
1631023526359,-1.83
1631023526375,-2.77
1631023526390,-3.91
1631023526406,-5.19
1631023526421,-6.49
1631023526437,-7.7
1631023526453,-8.68
1631023526468,-9.31
1631023526484,-9.48
1631023526500,-9.11
1631023526515,-8.22
1631023526531,-6.88
1631023526546,-5.2
1631023526562,-3.37
1631023526578,-1.55
1631023526593,0.08
1631023526609,1.36
1631023526625,2.22
1631023526640,2.67
1631023526656,2.78
1631023526671,2.7
1631023526687,2.55
1631023526703,2.38
1631023526718,2.18
1631023526734,1.92
1631023526750,1.59
1631023526765,1.25
1631023526781,1.02
1631023526796,1.01
1631023526812,1.3
1631023526828,1.92
1631023526843,2.77
1631023526859,3.66
1631023526875,4.42
1631023526890,4.87
1631023526906,4.97
1631023526921,4.75
1631023526937,4.32
1631023526953,3.8
1631023526968,3.28
1631023526984,2.75
1631023527000,2.19
1631023527015,1.58
1631023527031,0.95
1631023527046,0.38
1631023527062,-0.05
1631023527078,-0.3
1631023527093,-0.43
1631023527109,-0.59
1631023527125,-0.92
1631023527140,-1.5
1631023527156,-2.27
1631023527171,-3.1
1631023527187,-3.8
1631023527203,-4.29
1631023527218,-4.61
1631023527234,-4.93
1631023527250,-5.43
1631023527265,-6.22
1631023527281,-7.21
1631023527296,-8.16
1631023527312,-8.74
1631023527328,-8.68
1631023527343,-7.88
1631023527359,-6.46
1631023527375,-4.69
1631023527390,-2.88
1631023527406,-1.24
1631023527421,0.14
1631023527437,1.31
1631023527453,2.3
1631023527468,3.15
1631023527484,3.78
1631023527500,4.12
1631023527515,4.13
1631023527531,3.88
1631023527546,3.5
1631023527562,3.17
1631023527578,2.96
1631023527593,2.87
1631023527609,2.83
1631023527625,2.77
1631023527640,2.66
1631023527656,2.55
1631023527671,2.51
1631023527687,2.59
1631023527703,2.77
1631023527718,3.01
1631023527734,3.26
1631023527750,3.45
1631023527765,3.58
1631023527781,3.61
1631023527796,3.55
1631023527812,3.38
1631023527828,3.12
1631023527843,2.79
1631023527859,2.41
1631023527875,1.99
1631023527890,1.54
1631023527906,1.05
1631023527921,0.56
1631023527937,0.13
1631023527953,-0.2
1631023527968,-0.48
1631023527984,-0.81
1631023528000,-1.34
1631023528015,-2.13
1631023528031,-3.14
1631023528046,-4.23
1631023528062,-5.23
1631023528078,-6.01
1631023528093,-6.62
1631023528109,-7.15
1631023528125,-7.7
1631023528140,-8.29
1631023528156,-8.77
1631023528171,-8.96
1631023528187,-8.69
1631023528203,-7.91
1631023528218,-6.66
1631023528234,-5.09
1631023528250,-3.34
1631023528265,-1.57
1631023528281,0.09
1631023528296,1.51
1631023528312,2.6
1631023528328,3.35
1631023528343,3.81
1631023528359,4.07
1631023528375,4.23
1631023528390,4.34
1631023528406,4.38
1631023528421,4.34
1631023528437,4.2
1631023528453,4.01
1631023528468,3.84
1631023528484,3.74
1631023528500,3.71
1631023528515,3.7
1631023528531,3.64
1631023528546,3.51
1631023528562,3.32
1631023528578,3.13
1631023528593,3.02
1631023528609,3.0
1631023528625,3.01
1631023528640,3.0
1631023528656,2.94
1631023528671,2.84
1631023528687,2.79
1631023528703,2.84
1631023528718,2.96
1631023528734,3.07
1631023528750,3.01
1631023528765,2.72
1631023528781,2.21
1631023528796,1.64
1631023528812,1.18
1631023528828,0.92
1631023528843,0.85
1631023528859,0.82
1631023528875,0.67
1631023528890,0.27
1631023528906,-0.42
1631023528921,-1.39
1631023528937,-2.52
1631023528953,-3.71
1631023528968,-4.85
1631023528984,-5.86
1631023529000,-6.74
1631023529015,-7.49
1631023529031,-8.13
1631023529046,-8.63
1631023529062,-8.91
1631023529078,-8.91
1631023529093,-8.58
1631023529109,-7.95
1631023529125,-7.05
1631023529140,-5.97
1631023529156,-4.77
1631023529171,-3.49
1631023529187,-2.18
1631023529203,-0.93
1631023529218,0.12
1631023529234,0.92
1631023529250,1.43
1631023529265,1.76
1631023529281,2.02
1631023529296,2.31
1631023529312,2.68
1631023529328,3.12
1631023529343,3.55
1631023529359,3.93
1631023529375,4.24
1631023529390,4.44
1631023529406,4.55
1631023529421,4.53
1631023529437,4.4
1631023529453,4.18
1631023529468,3.91
1631023529484,3.65
1631023529500,3.43
1631023529515,3.28
1631023529531,3.15
1631023529546,3.03
1631023529562,2.89
1631023529578,2.72
1631023529593,2.58
1631023529609,2.54
1631023529625,2.66
1631023529640,2.96
1631023529656,3.42
1631023529671,3.92
1631023529687,4.35
1631023529703,4.57
1631023529718,4.51
1631023529734,4.15
1631023529750,3.53
1631023529765,2.71
1631023529781,1.78
1631023529796,0.82
1631023529812,-0.09
1631023529828,-0.89
1631023529843,-1.59
1631023529859,-2.23
1631023529875,-2.85
1631023529890,-3.49
1631023529906,-4.15
1631023529921,-4.79
1631023529937,-5.41
1631023529953,-6.03
1631023529968,-6.72
1631023529984,-7.53
1631023530000,-8.41
1631023530015,-9.2
1631023530031,-9.61
1631023530046,-9.41
1631023530062,-8.5
1631023530078,-6.99
1631023530093,-5.1
1631023530109,-3.16
1631023530125,-1.42
1631023530140,-0.02
1631023530156,0.99
1631023530171,1.69
1631023530187,2.17
1631023530203,2.52
1631023530218,2.81
1631023530234,3.03
1631023530250,3.15
1631023530265,3.12
1631023530281,2.92
1631023530296,2.58
1631023530312,2.19
1631023530328,1.88
1631023530343,1.79
1631023530359,2.03
1631023530375,2.61
1631023530390,3.46
1631023530406,4.39
1631023530421,5.21
1631023530437,5.7
1631023530453,5.76
1631023530468,5.42
1631023530484,4.8
1631023530500,4.1
1631023530515,3.47
1631023530531,2.94
1631023530546,2.47
1631023530562,1.97
1631023530578,1.36
1631023530593,0.67
1631023530609,-0.02
1631023530625,-0.59
1631023530640,-0.95
1631023530656,-1.11
1631023530671,-1.17
1631023530687,-1.24
1631023530703,-1.46
1631023530718,-1.88
1631023530734,-2.5
1631023530750,-3.22
1631023530765,-3.96
1631023530781,-4.66
1631023530796,-5.31
1631023530812,-5.96
1631023530828,-6.71
1631023530843,-7.66
1631023530859,-8.8
1631023530875,-10.01
1631023530890,-11.09
1631023530906,-11.76
1631023530921,-11.79
1631023530937,-11.01
1631023530953,-9.41
1631023530968,-7.11
1631023530984,-4.33
1631023531000,-1.38
1631023531015,1.41
1631023531031,3.7
1631023531046,5.25
1631023531062,6.0
1631023531078,6.04
1631023531093,5.65
1631023531109,5.15
1631023531125,4.78
1631023531140,4.61
1631023531156,4.55
1631023531171,4.42
1631023531187,4.13
1631023531203,3.72
1631023531218,3.35
1631023531234,3.21
1631023531250,3.38
1631023531265,3.79
1631023531281,4.26
1631023531296,4.62
1631023531312,4.79
1631023531328,4.82
1631023531343,4.83
1631023531359,4.88
1631023531375,4.95
1631023531390,4.93
1631023531406,4.73
1631023531421,4.32
1631023531437,3.78
1631023531453,3.22
1631023531468,2.7
1631023531484,2.18
1631023531500,1.55
1631023531515,0.68
1631023531531,-0.5
1631023531546,-1.93
1631023531562,-3.48
1631023531578,-4.97
1631023531593,-6.27
1631023531609,-7.3
1631023531625,-8.08
1631023531640,-8.71
1631023531656,-9.35
1631023531671,-10.11
1631023531687,-11.04
1631023531703,-12.11
1631023531718,-13.17
1631023531734,-14.04
1631023531750,-14.49
1631023531765,-14.34
1631023531781,-13.49
1631023531796,-11.92
1631023531812,-9.74
1631023531828,-7.15
1631023531843,-4.47
1631023531859,-2.01
1631023531875,-0.04
1631023531890,1.33
1631023531906,2.13
1631023531921,2.56
1631023531937,2.86
1631023531953,3.22
1631023531968,3.73
1631023531984,4.36
1631023532000,4.99
1631023532015,5.51
1631023532031,5.82
1631023532046,5.95
1631023532062,5.92
1631023532078,5.84
1631023532093,5.75
1631023532109,5.7
1631023532125,5.68
1631023532140,5.69
1631023532156,5.66
1631023532171,5.59
1631023532187,5.45
1631023532203,5.29
1631023532218,5.13
1631023532234,5.0
1631023532250,4.86
1631023532265,4.7
1631023532281,4.45
1631023532296,4.15
1631023532312,3.84
1631023532328,3.58
1631023532343,3.39
1631023532359,3.2
1631023532375,2.89
1631023532390,2.36
1631023532406,1.58
1631023532421,0.6
1631023532437,-0.47
1631023532453,-1.54
1631023532468,-2.55
1631023532484,-3.55
1631023532500,-4.6
1631023532515,-5.8
1631023532531,-7.18
1631023532546,-8.73
1631023532562,-10.33
1631023532578,-11.77
1631023532593,-12.82
1631023532609,-13.25
1631023532625,-12.94
1631023532640,-11.87
1631023532656,-10.12
1631023532671,-7.84
1631023532687,-5.24
1631023532703,-2.55
1631023532718,-0.02
1631023532734,2.1
1631023532750,3.64
1631023532765,4.54
1631023532781,4.9
1631023532796,4.94
1631023532812,4.93
1631023532828,5.02
1631023532843,5.25
1631023532859,5.52
1631023532875,5.7
1631023532890,5.71
1631023532906,5.57
1631023532921,5.37
1631023532937,5.24
1631023532953,5.21
1631023532968,5.23
1631023532984,5.21
1631023533000,5.05
1631023533015,4.71
1631023533031,4.3
1631023533046,3.96
1631023533062,3.82
1631023533078,3.91
1631023533093,4.16
1631023533109,4.42
1631023533125,4.55
1631023533140,4.49
1631023533156,4.28
1631023533171,4.02
1631023533187,3.83
1631023533203,3.79
1631023533218,3.83
1631023533234,3.82
1631023533250,3.56
1631023533265,2.9
1631023533281,1.79
1631023533296,0.3
1631023533312,-1.38
1631023533328,-2.99
1631023533343,-4.33
1631023533359,-5.3
1631023533375,-5.96
1631023533390,-6.46
1631023533406,-7.03
1631023533421,-7.8
1631023533437,-8.83
1631023533453,-10.01
1631023533468,-11.13
1631023533484,-11.94
1631023533500,-12.22
1631023533515,-11.81
1631023533531,-10.63
1631023533546,-8.71
1631023533562,-6.2
1631023533578,-3.37
1631023533593,-0.56
1631023533609,1.88
1631023533625,3.65
1631023533640,4.65
1631023533656,4.95
1631023533671,4.82
1631023533687,4.55
1631023533703,4.4
1631023533718,4.48
1631023533734,4.79
1631023533750,5.22
1631023533765,5.69
1631023533781,6.12
1631023533796,6.44
1631023533812,6.62
1631023533828,6.6
1631023533843,6.4
1631023533859,6.13
1631023533875,5.96
1631023533890,6.05
1631023533906,6.51
1631023533921,7.24
1631023533937,8.02
1631023533953,8.59
1631023533968,8.75
1631023533984,8.45
1631023534000,7.76
1631023534015,6.82
1631023534031,5.75
1631023534046,4.63
1631023534062,3.54
1631023534078,2.56
1631023534093,1.77
1631023534109,1.19
1631023534125,0.75
1631023534140,0.25
1631023534156,-0.46
1631023534171,-1.44
1631023534187,-2.58
1631023534203,-3.65
1631023534218,-4.46
1631023534234,-5.01
1631023534250,-5.51
1631023534265,-6.3
1631023534281,-7.63
1631023534296,-9.5
1631023534312,-11.6
1631023534328,-13.42
1631023534343,-14.4
1631023534359,-14.18
1631023534375,-12.68
1631023534390,-10.07
1631023534406,-6.75
1631023534421,-3.16
1631023534437,0.29
1631023534453,3.32
1631023534468,5.73
1631023534484,7.46
1631023534500,8.48
1631023534515,8.88
1631023534531,8.8
1631023534546,8.42
1631023534562,8.0
1631023534578,7.71
1631023534593,7.59
1631023534609,7.55
1631023534625,7.41
1631023534640,7.0
1631023534656,6.31
1631023534671,5.53
1631023534687,4.9
1631023534703,4.67
1631023534718,4.9
1631023534734,5.49
1631023534750,6.19
1631023534765,6.75
1631023534781,6.94
1631023534796,6.68
1631023534812,6.03
1631023534828,5.11
1631023534843,4.11
1631023534859,3.19
1631023534875,2.41
1631023534890,1.74
1631023534906,1.07
1631023534921,0.25
1631023534937,-0.77
1631023534953,-1.93
1631023534968,-3.07
1631023534984,-4.02
1631023535000,-4.73
1631023535015,-5.31
1631023535031,-6.0
1631023535046,-7.01
1631023535062,-8.44
1631023535078,-10.18
1631023535093,-12.02
1631023535109,-13.66
1631023535125,-14.87
1631023535140,-15.45
1631023535156,-15.24
1631023535171,-14.1
1631023535187,-11.97
1631023535203,-8.95
1631023535218,-5.29
1631023535234,-1.46
1631023535250,2.02
1631023535265,4.72
1631023535281,6.42
1631023535296,7.14
1631023535312,7.11
1631023535328,6.62
1631023535343,5.93
1631023535359,5.18
1631023535375,4.42
1631023535390,3.66
1631023535406,2.89
1631023535421,2.17
1631023535437,1.59
1631023535453,1.27
1631023535468,1.28
1631023535484,1.64
1631023535500,2.3
1631023535515,3.15
1631023535531,4.06
1631023535546,4.93
1631023535562,5.69
1631023535578,6.28
1631023535593,6.66
1631023535609,6.73
1631023535625,6.42
1631023535640,5.73
1631023535656,4.75
1631023535671,3.69
1631023535687,2.81
1631023535703,2.27
1631023535718,2.08
1631023535734,2.03
1631023535750,1.83
1631023535765,1.21
1631023535781,0.1
1631023535796,-1.33
1631023535812,-2.77
1631023535828,-3.92
1631023535843,-4.67
1631023535859,-5.13
1631023535875,-5.6
1631023535890,-6.36
1631023535906,-7.53
1631023535921,-8.99
1631023535937,-10.46
1631023535953,-11.58
1631023535968,-12.03
1631023535984,-11.68
1631023536000,-10.54
1631023536015,-8.8
1631023536031,-6.66
1631023536046,-4.3
1631023536062,-1.87
1631023536078,0.53
1631023536093,2.77
1631023536109,4.71
1631023536125,6.2
1631023536140,7.15
1631023536156,7.56
1631023536171,7.54
1631023536187,7.28
1631023536203,6.97
1631023536218,6.75
1631023536234,6.66
1631023536250,6.66
1631023536265,6.69
1631023536281,6.66
1631023536296,6.52
1631023536312,6.24
1631023536328,5.87
1631023536343,5.46
1631023536359,5.07
1631023536375,4.71
1631023536390,4.35
1631023536406,3.94
1631023536421,3.48
1631023536437,3.05
1631023536453,2.76
1631023536468,2.66
1631023536484,2.73
1631023536500,2.84
1631023536515,2.85
1631023536531,2.72
1631023536546,2.51
1631023536562,2.36
1631023536578,2.33
1631023536593,2.38
1631023536609,2.33
1631023536625,2.0
1631023536640,1.31
1631023536656,0.35
1631023536671,-0.69
1631023536687,-1.59
1631023536703,-2.24
1631023536718,-2.66
1631023536734,-3.03
1631023536750,-3.6
1631023536765,-4.55
1631023536781,-5.94
1631023536796,-7.66
1631023536812,-9.47
1631023536828,-11.02
1631023536843,-12.01
1631023536859,-12.23
1631023536875,-11.61
1631023536890,-10.18
1631023536906,-8.06
1631023536921,-5.47
1631023536937,-2.7
1631023536953,-0.09
1631023536968,2.04
1631023536984,3.47
1631023537000,4.17
1631023537015,4.28
1631023537031,4.07
1631023537046,3.79
1631023537062,3.6
1631023537078,3.58
1631023537093,3.71
1631023537109,3.97
1631023537125,4.35
1631023537140,4.85
1631023537156,5.44
1631023537171,6.0
1631023537187,6.42
1631023537203,6.61
1631023537218,6.52
1631023537234,6.22
1631023537250,5.86
1631023537265,5.57
1631023537281,5.45
1631023537296,5.52
1631023537312,5.7
1631023537328,5.85
1631023537343,5.84
1631023537359,5.61
1631023537375,5.17
1631023537390,4.57
1631023537406,3.85
1631023537421,3.04
1631023537437,2.1
1631023537453,1.02
1631023537468,-0.15
1631023537484,-1.29
1631023537500,-2.27
1631023537515,-2.98
1631023537531,-3.42
1631023537546,-3.7
1631023537562,-4.0
1631023537578,-4.5
1631023537593,-5.33
1631023537609,-6.53
1631023537625,-8.07
1631023537640,-9.83
1631023537656,-11.57
1631023537671,-13.0
1631023537687,-13.78
1631023537703,-13.59
1631023537718,-12.25
1631023537734,-9.77
1631023537750,-6.42
1631023537765,-2.65
1631023537781,1.0
1631023537796,4.05
1631023537812,6.21
1631023537828,7.45
1631023537843,7.93
1631023537859,7.94
1631023537875,7.74
1631023537890,7.5
1631023537906,7.25
1631023537921,7.0
1631023537937,6.74
1631023537953,6.5
1631023537968,6.34
1631023537984,6.27
1631023538000,6.27
1631023538015,6.26
1631023538031,6.15
1631023538046,5.87
1631023538062,5.42
1631023538078,4.85
1631023538093,4.22
1631023538109,3.58
1631023538125,2.92
1631023538140,2.22
1631023538156,1.41
1631023538171,0.49
1631023538187,-0.5
1631023538203,-1.45
1631023538218,-2.23
1631023538234,-2.77
1631023538250,-3.07
1631023538265,-3.24
1631023538281,-3.36
1631023538296,-3.52
1631023538312,-3.73
1631023538328,-3.93
1631023538343,-4.09
1631023538359,-4.23
1631023538375,-4.45
1631023538390,-4.91
1631023538406,-5.72
1631023538421,-6.92
1631023538437,-8.42
1631023538453,-9.99
1631023538468,-11.35
1631023538484,-12.15
1631023538500,-12.16
1631023538515,-11.23
1631023538531,-9.43
1631023538546,-7.02
1631023538562,-4.38
1631023538578,-1.91
1631023538593,0.08
1631023538609,1.46
1631023538625,2.27
1631023538640,2.66
1631023538656,2.88
1631023538671,3.17
1631023538687,3.67
1631023538703,4.42
1631023538718,5.29
1631023538734,6.1
1631023538750,6.66
1631023538765,6.86
1631023538781,6.67
1631023538796,6.2
1631023538812,5.6
1631023538828,5.0
1631023538843,4.49
1631023538859,4.1
1631023538875,3.83
1631023538890,3.63
1631023538906,3.47
1631023538921,3.3
1631023538937,3.06
1631023538953,2.68
1631023538968,2.18
1631023538984,1.61
1631023539000,1.07
1631023539015,0.67
1631023539031,0.43
1631023539046,0.3
1631023539062,0.2
1631023539078,0.05
1631023539093,-0.17
1631023539109,-0.42
1631023539125,-0.67
1631023539140,-0.95
1631023539156,-1.37
1631023539171,-2.05
1631023539187,-3.04
1631023539203,-4.26
1631023539218,-5.5
1631023539234,-6.54
1631023539250,-7.25
1631023539265,-7.68
1631023539281,-8.05
1631023539296,-8.56
1631023539312,-9.27
1631023539328,-10.01
1631023539343,-10.46
1631023539359,-10.25
1631023539375,-9.22
1631023539390,-7.44
1631023539406,-5.24
1631023539421,-3.0
1631023539437,-1.02
1631023539453,0.61
1631023539468,1.91
1631023539484,2.97
1631023539500,3.85
1631023539515,4.52
1631023539531,4.94
1631023539546,5.12
1631023539562,5.16
1631023539578,5.18
1631023539593,5.25
1631023539609,5.34
1631023539625,5.35
1631023539640,5.17
1631023539656,4.79
1631023539671,4.27
1631023539687,3.79
1631023539703,3.46
1631023539718,3.33
1631023539734,3.31
1631023539750,3.25
1631023539765,3.05
1631023539781,2.67
1631023539796,2.2
1631023539812,1.78
1631023539828,1.58
1631023539843,1.67
1631023539859,2.04
1631023539875,2.61
1631023539890,3.22
1631023539906,3.72
1631023539921,4.01
1631023539937,4.04
1631023539953,3.87
1631023539968,3.59
1631023539984,3.28
1631023540000,2.94
1631023540015,2.55
1631023540031,2.02
1631023540046,1.28
1631023540062,0.34
1631023540078,-0.75
1631023540093,-1.86
1631023540109,-2.88
1631023540125,-3.79
1631023540140,-4.65
1631023540156,-5.55
1631023540171,-6.54
1631023540187,-7.59
1631023540203,-8.57
1631023540218,-9.33
1631023540234,-9.74
1631023540250,-9.73
1631023540265,-9.33
1631023540281,-8.53
1631023540296,-7.35
1631023540312,-5.79
1631023540328,-3.89
1631023540343,-1.82
1631023540359,0.14
1631023540375,1.66
1631023540390,2.53
1631023540406,2.75
1631023540421,2.55
1631023540437,2.26
1631023540453,2.14
1631023540468,2.3
1631023540484,2.62
1631023540500,2.92
1631023540515,3.02
1631023540531,2.88
1631023540546,2.59
1631023540562,2.32
1631023540578,2.17
1631023540593,2.21
1631023540609,2.38
1631023540625,2.62
1631023540640,2.85
1631023540656,3.07
1631023540671,3.28
1631023540687,3.49
1631023540703,3.65
1631023540718,3.68
1631023540734,3.5
1631023540750,3.09
1631023540765,2.47
1631023540781,1.77
1631023540796,1.14
1631023540812,0.7
1631023540828,0.49
1631023540843,0.47
1631023540859,0.52
1631023540875,0.48
1631023540890,0.22
1631023540906,-0.29
1631023540921,-1.0
1631023540937,-1.79
1631023540953,-2.53
1631023540968,-3.2
1631023540984,-3.9
1631023541000,-4.81
1631023541015,-6.06
1631023541031,-7.66
1631023541046,-9.39
1631023541062,-10.91
1631023541078,-11.83
1631023541093,-11.89
1631023541109,-11.03
1631023541125,-9.36
1631023541140,-7.12
1631023541156,-4.59
1631023541171,-2.05
1631023541187,0.25
1631023541203,2.14
1631023541218,3.53
1631023541234,4.4
1631023541250,4.86
1631023541265,5.04
1631023541281,5.1
1631023541296,5.16
1631023541312,5.27
1631023541328,5.36
1631023541343,5.33
1631023541359,5.09
1631023541375,4.61
1631023541390,4.02
1631023541406,3.5
1631023541421,3.24
1631023541437,3.3
1631023541453,3.57
1631023541468,3.86
1631023541484,3.97
1631023541500,3.85
1631023541515,3.57
1631023541531,3.27
1631023541546,3.05
1631023541562,2.89
1631023541578,2.67
1631023541593,2.28
1631023541609,1.73
1631023541625,1.11
1631023541640,0.54
1631023541656,0.05
1631023541671,-0.41
1631023541687,-0.93
1631023541703,-1.59
1631023541718,-2.34
1631023541734,-3.07
1631023541750,-3.68
1631023541765,-4.16
1631023541781,-4.61
1631023541796,-5.18
1631023541812,-5.96
1631023541828,-6.97
1631023541843,-8.15
1631023541859,-9.38
1631023541875,-10.52
1631023541890,-11.41
1631023541906,-11.89
1631023541921,-11.79
1631023541937,-11.01
1631023541953,-9.58
1631023541968,-7.66
1631023541984,-5.56
1631023542000,-3.56
1631023542015,-1.91
1631023542031,-0.7
1631023542046,0.1
1631023542062,0.62
1631023542078,0.98
1631023542093,1.31
1631023542109,1.68
1631023542125,2.08
1631023542140,2.5
1631023542156,2.89
1631023542171,3.17
1631023542187,3.33
1631023542203,3.42
1631023542218,3.49
1631023542234,3.65
1631023542250,3.93
1631023542265,4.3
1631023542281,4.67
1631023542296,4.93
1631023542312,4.98
1631023542328,4.79
1631023542343,4.37
1631023542359,3.79
1631023542375,3.1
1631023542390,2.34
1631023542406,1.54
1631023542421,0.76
1631023542437,0.09
1631023542453,-0.36
1631023542468,-0.5
1631023542484,-0.33
1631023542500,0.05
1631023542515,0.47
1631023542531,0.78
1631023542546,0.9
1631023542562,0.81
1631023542578,0.56
1631023542593,0.2
1631023542609,-0.27
1631023542625,-0.88
1631023542640,-1.65
1631023542656,-2.57
1631023542671,-3.6
1631023542687,-4.68
1631023542703,-5.78
1631023542718,-6.83
1631023542734,-7.81
1631023542750,-8.63
1631023542765,-9.2
1631023542781,-9.39
1631023542796,-9.11
1631023542812,-8.3
1631023542828,-6.95
1631023542843,-5.13
1631023542859,-3.02
1631023542875,-0.86
1631023542890,1.06
1631023542906,2.49
1631023542921,3.31
1631023542937,3.55
1631023542953,3.4
1631023542968,3.14
1631023542984,3.01
1631023543000,3.14
1631023543015,3.52
1631023543031,4.01
1631023543046,4.45
1631023543062,4.69
1631023543078,4.71
1631023543093,4.56
1631023543109,4.33
1631023543125,4.1
1631023543140,3.86
1631023543156,3.56
1631023543171,3.13
1631023543187,2.58
1631023543203,1.99
1631023543218,1.49
1631023543234,1.16
1631023543250,1.02
1631023543265,0.98
1631023543281,0.96
1631023543296,0.88
1631023543312,0.76
1631023543328,0.71
1631023543343,0.82
1631023543359,1.12
1631023543375,1.57
1631023543390,2.03
1631023543406,2.38
1631023543421,2.53
1631023543437,2.43
1631023543453,2.11
1631023543468,1.62
1631023543484,0.99
1631023543500,0.26
1631023543515,-0.57
1631023543531,-1.5
1631023543546,-2.49
1631023543562,-3.5
1631023543578,-4.47
1631023543593,-5.34
1631023543609,-6.11
1631023543625,-6.82
1631023543640,-7.49
1631023543656,-8.12
1631023543671,-8.62
1631023543687,-8.81
1631023543703,-8.56
1631023543718,-7.76
1631023543734,-6.47
1631023543750,-4.86
1631023543765,-3.13
1631023543781,-1.53
1631023543796,-0.22
1631023543812,0.7
1631023543828,1.23
1631023543843,1.46
1631023543859,1.53
1631023543875,1.6
1631023543890,1.76
1631023543906,2.03
1631023543921,2.33
1631023543937,2.61
1631023543953,2.8
1631023543968,2.93
1631023543984,3.03
1631023544000,3.16
1631023544015,3.3
1631023544031,3.46
1631023544046,3.62
1631023544062,3.82
1631023544078,4.08
1631023544093,4.39
1631023544109,4.68
1631023544125,4.87
1631023544140,4.88
1631023544156,4.73
1631023544171,4.47
1631023544187,4.16
1631023544203,3.86
1631023544218,3.58
1631023544234,3.32
1631023544250,3.12
1631023544265,3.03
1631023544281,3.09
1631023544296,3.28
1631023544312,3.52
1631023544328,3.68
1631023544343,3.64
1631023544359,3.33
1631023544375,2.73
1631023544390,1.85
1631023544406,0.76
1631023544421,-0.42
1631023544437,-1.54
1631023544453,-2.44
1631023544468,-3.02
1631023544484,-3.31
1631023544500,-3.47
1631023544515,-3.77
1631023544531,-4.43
1631023544546,-5.55
1631023544562,-6.97
1631023544578,-8.41
1631023544593,-9.47
1631023544609,-9.86
1631023544625,-9.43
1631023544640,-8.26
1631023544656,-6.54
1631023544671,-4.52
1631023544687,-2.45
1631023544703,-0.51
1631023544718,1.15
1631023544734,2.42
1631023544750,3.24
1631023544765,3.61
1631023544781,3.61
1631023544796,3.4
1631023544812,3.16
1631023544828,3.02
1631023544843,3.01
1631023544859,3.06
1631023544875,3.08
1631023544890,3.02
1631023544906,2.87
1631023544921,2.7
1631023544937,2.57
1631023544953,2.54
1631023544968,2.62
1631023544984,2.77
1631023545000,2.93
1631023545015,3.06
1631023545031,3.15
1631023545046,3.22
1631023545062,3.3
1631023545078,3.36
1631023545093,3.35
1631023545109,3.2
1631023545125,2.83
1631023545140,2.24
1631023545156,1.5
1631023545171,0.75
1631023545187,0.14
1631023545203,-0.21
1631023545218,-0.28
1631023545234,-0.18
1631023545250,-0.05
1631023545265,-0.06
1631023545281,-0.26
1631023545296,-0.67
1631023545312,-1.23
1631023545328,-1.89
1631023545343,-2.68
1631023545359,-3.62
1631023545375,-4.77
1631023545390,-6.11
1631023545406,-7.51
1631023545421,-8.77
1631023545437,-9.62
1631023545453,-9.87
1631023545468,-9.42
1631023545484,-8.3
1631023545500,-6.66
1631023545515,-4.72
1631023545531,-2.72
1631023545546,-0.87
1631023545562,0.66
1631023545578,1.81
1631023545593,2.6
1631023545609,3.11
1631023545625,3.41
1631023545640,3.56
1631023545656,3.6
1631023545671,3.58
1631023545687,3.51
1631023545703,3.42
1631023545718,3.31
1631023545734,3.16
1631023545750,2.92
1631023545765,2.6
1631023545781,2.26
1631023545796,2.04
1631023545812,2.04
1631023545828,2.33
1631023545843,2.83
1631023545859,3.35
1631023545875,3.71
1631023545890,3.8
1631023545906,3.63
1631023545921,3.32
1631023545937,2.97
1631023545953,2.66
1631023545968,2.38
1631023545984,2.13
1631023546000,1.91
1631023546015,1.75
1631023546031,1.66
1631023546046,1.56
1631023546062,1.33
1631023546078,0.83
1631023546093,0.04
1631023546109,-0.93
1631023546125,-1.89
1631023546140,-2.68
1631023546156,-3.29
1631023546171,-3.82
1631023546187,-4.43
1631023546203,-5.19
1631023546218,-6.08
1631023546234,-6.95
1631023546250,-7.69
1631023546265,-8.25
1631023546281,-8.67
1631023546296,-8.95
1631023546312,-9.02
1631023546328,-8.63
1631023546343,-7.56
1631023546359,-5.71
1631023546375,-3.29
1631023546390,-0.73
1631023546406,1.46
1631023546421,2.9
1631023546437,3.54
1631023546453,3.6
1631023546468,3.42
1631023546484,3.29
1631023546500,3.31
1631023546515,3.39
1631023546531,3.39
1631023546546,3.25
1631023546562,3.01
1631023546578,2.82
1631023546593,2.78
1631023546609,2.92
1631023546625,3.16
1631023546640,3.38
1631023546656,3.49
1631023546671,3.45
1631023546687,3.31
1631023546703,3.15
1631023546718,3.01
1631023546734,2.93
1631023546750,2.88
1631023546765,2.86
1631023546781,2.8
1631023546796,2.71
1631023546812,2.56
1631023546828,2.37
1631023546843,2.13
1631023546859,1.89
1631023546875,1.67
1631023546890,1.49
1631023546906,1.34
1631023546921,1.15
1631023546937,0.87
1631023546953,0.49
1631023546968,-0.0
1631023546984,-0.56
1631023547000,-1.12
1631023547015,-1.66
1631023547031,-2.2
1631023547046,-2.81
1631023547062,-3.55
1631023547078,-4.45
1631023547093,-5.5
1631023547109,-6.6
1631023547125,-7.61
1631023547140,-8.41
1631023547156,-8.88
1631023547171,-8.93
1631023547187,-8.52
1631023547203,-7.65
1631023547218,-6.35
1631023547234,-4.74
1631023547250,-2.97
1631023547265,-1.3
1631023547281,0.08
1631023547296,1.02
1631023547312,1.52
1631023547328,1.71
1631023547343,1.76
1631023547359,1.84
1631023547375,2.02
1631023547390,2.3
1631023547406,2.63
1631023547421,2.99
1631023547437,3.34
1631023547453,3.65
1631023547468,3.87
1631023547484,3.89
1631023547500,3.65
1631023547515,3.15
1631023547531,2.47
1631023547546,1.79
1631023547562,1.29
1631023547578,1.12
1631023547593,1.33
1631023547609,1.86
1631023547625,2.6
1631023547640,3.39
1631023547656,4.08
1631023547671,4.58
1631023547687,4.85
1631023547703,4.93
1631023547718,4.88
1631023547734,4.77
1631023547750,4.64
1631023547765,4.49
1631023547781,4.26
1631023547796,3.87
1631023547812,3.25
1631023547828,2.39
1631023547843,1.3
