timestamp,bvp
1631204135234,3.74
1631204135250,1.66
1631204135265,-0.54
1631204135281,-3.01
1631204135296,-5.84
1631204135312,-9.02
1631204135328,-12.49
1631204135343,-16.07
1631204135359,-19.58
1631204135375,-22.87
1631204135390,-25.86
1631204135406,-28.62
1631204135421,-31.38
1631204135437,-34.51
1631204135453,-38.41
1631204135468,-43.31
1631204135484,-49.11
1631204135500,-55.17
1631204135515,-60.36
1631204135531,-63.24
1631204135546,-62.52
1631204135562,-57.43
1631204135578,-48.08
1631204135593,-35.52
1631204135609,-21.44
1631204135625,-7.67
1631204135640,4.32
1631204135656,13.73
1631204135671,20.47
1631204135687,24.95
1631204135703,27.76
1631204135718,29.41
1631204135734,30.22
1631204135750,30.35
1631204135765,29.91
1631204135781,29.06
1631204135796,28.08
1631204135812,27.27
1631204135828,26.89
1631204135843,27.04
1631204135859,27.63
1631204135875,28.43
1631204135890,29.17
1631204135906,29.62
1631204135921,29.68
1631204135937,29.37
1631204135953,28.79
1631204135968,28.04
1631204135984,27.16
1631204136000,26.11
1631204136015,24.78
1631204136031,23.11
1631204136046,21.13
1631204136062,18.95
1631204136078,16.74
1631204136093,14.59
1631204136109,12.46
1631204136125,10.23
1631204136140,7.73
1631204136156,4.9
1631204136171,1.8
1631204136187,-1.4
1631204136203,-4.53
1631204136218,-7.52
1631204136234,-10.47
1631204136250,-13.54
1631204136265,-16.83
1631204136281,-20.31
1631204136296,-23.82
1631204136312,-27.14
1631204136328,-30.2
1631204136343,-33.15
1631204136359,-36.39
1631204136375,-40.37
1631204136390,-45.35
1631204136406,-51.13
1631204136421,-56.96
1631204136437,-61.61
1631204136453,-63.69
1631204136468,-62.1
1631204136484,-56.36
1631204136500,-46.81
1631204136515,-34.55
1631204136531,-21.08
1631204136546,-7.94
1631204136562,3.61
1631204136578,12.82
1631204136593,19.46
1631204136609,23.72
1631204136625,26.03
1631204136640,26.97
1631204136656,27.07
1631204136671,26.79
1631204136687,26.45
1631204136703,26.29
1631204136718,26.45
1631204136734,26.98
1631204136750,27.89
1631204136765,29.03
1631204136781,30.17
1631204136796,31.04
1631204136812,31.45
1631204136828,31.4
1631204136843,31.06
1631204136859,30.68
1631204136875,30.42
1631204136890,30.21
1631204136906,29.79
1631204136921,28.82
1631204136937,27.08
1631204136953,24.6
1631204136968,21.66
1631204136984,18.6
1631204137000,15.66
1631204137015,12.87
1631204137031,10.08
1631204137046,7.14
1631204137062,4.09
1631204137078,1.13
1631204137093,-1.44
1631204137109,-3.49
1631204137125,-5.16
1631204137140,-6.89
1631204137156,-9.14
1631204137171,-12.23
1631204137187,-16.1
1631204137203,-20.35
1631204137218,-24.47
1631204137234,-28.04
1631204137250,-30.93
1631204137265,-33.34
1631204137281,-35.69
1631204137296,-38.46
1631204137312,-42.09
1631204137328,-46.83
1631204137343,-52.63
1631204137359,-58.95
1631204137375,-64.78
1631204137390,-68.65
1631204137406,-69.03
1631204137421,-64.82
1631204137437,-55.82
1631204137453,-42.86
1631204137468,-27.6
1631204137484,-11.98
1631204137500,2.27
1631204137515,14.06
1631204137531,22.97
1631204137546,29.08
1631204137562,32.71
1631204137578,34.3
1631204137593,34.29
1631204137609,33.17
1631204137625,31.47
1631204137640,29.69
1631204137656,28.26
1631204137671,27.51
1631204137687,27.62
1631204137703,28.66
1631204137718,30.51
1631204137734,32.92
1631204137750,35.48
1631204137765,37.77
1631204137781,39.44
1631204137796,40.24
1631204137812,40.13
1631204137828,39.13
1631204137843,37.33
1631204137859,34.82
1631204137875,31.69
1631204137890,28.09
1631204137906,24.2
1631204137921,20.3
1631204137937,16.65
1631204137953,13.41
1631204137968,10.64
1631204137984,8.28
1631204138000,6.19
1631204138015,4.21
1631204138031,2.19
1631204138046,0.02
1631204138062,-2.39
1631204138078,-5.03
1631204138093,-7.91
1631204138109,-10.99
1631204138125,-14.22
1631204138140,-17.53
1631204138156,-20.82
1631204138171,-23.96
1631204138187,-26.83
1631204138203,-29.43
1631204138218,-31.94
1631204138234,-34.76
1631204138250,-38.33
1631204138265,-42.87
1631204138281,-48.11
1631204138296,-53.16
1631204138312,-56.64
1631204138328,-57.13
1631204138343,-53.69
1631204138359,-46.17
1631204138375,-35.4
1631204138390,-22.85
1631204138406,-10.18
1631204138421,1.21
1631204138437,10.48
1631204138453,17.31
1631204138468,21.86
1631204138484,24.47
1631204138500,25.56
1631204138515,25.6
1631204138531,25.03
1631204138546,24.32
1631204138562,23.92
1631204138578,24.16
1631204138593,25.2
1631204138609,26.97
1631204138625,29.15
1631204138640,31.3
1631204138656,32.92
1631204138671,33.66
1631204138687,33.44
1631204138703,32.33
1631204138718,30.62
1631204138734,28.57
1631204138750,26.38
1631204138765,24.15
1631204138781,21.94
1631204138796,19.79
1631204138812,17.78
1631204138828,15.95
1631204138843,14.29
1631204138859,12.71
1631204138875,11.08
1631204138890,9.34
1631204138906,7.46
1631204138921,5.45
1631204138937,3.32
1631204138953,0.99
1631204138968,-1.65
1631204138984,-4.71
1631204139000,-8.28
1631204139015,-12.34
1631204139031,-16.73
1631204139046,-21.19
1631204139062,-25.47
1631204139078,-29.35
1631204139093,-32.77
1631204139109,-35.91
1631204139125,-39.12
1631204139140,-42.89
1631204139156,-47.58
1631204139171,-53.18
1631204139187,-59.14
1631204139203,-64.32
1631204139218,-67.28
1631204139234,-66.7
1631204139250,-61.86
1631204139265,-52.91
1631204139281,-40.87
1631204139296,-27.34
1631204139312,-14.0
1631204139328,-2.16
1631204139343,7.43
1631204139359,14.64
1631204139375,19.67
1631204139390,22.85
1631204139406,24.5
1631204139421,24.91
1631204139437,24.35
1631204139453,23.16
1631204139468,21.73
1631204139484,20.43
1631204139500,19.55
1631204139515,19.28
1631204139531,19.73
1631204139546,20.9
1631204139562,22.77
1631204139578,25.19
1631204139593,27.93
1631204139609,30.65
1631204139625,32.96
1631204139640,34.46
1631204139656,34.89
1631204139671,34.14
1631204139687,32.22
1631204139703,29.25
1631204139718,25.42
1631204139734,20.97
1631204139750,16.2
1631204139765,11.49
1631204139781,7.27
1631204139796,3.89
1631204139812,1.55
1631204139828,0.17
1631204139843,-0.52
1631204139859,-1.01
1631204139875,-1.75
1631204139890,-3.08
1631204139906,-5.13
1631204139921,-7.84
1631204139937,-10.97
1631204139953,-14.26
1631204139968,-17.5
1631204139984,-20.57
1631204140000,-23.5
1631204140015,-26.47
1631204140031,-29.74
1631204140046,-33.65
1631204140062,-38.48
1631204140078,-44.33
1631204140093,-50.93
1631204140109,-57.51
1631204140125,-62.85
1631204140140,-65.56
1631204140156,-64.42
1631204140171,-58.89
1631204140187,-49.35
1631204140203,-37.02
1631204140218,-23.62
1631204140234,-10.84
1631204140250,0.09
1631204140265,8.57
1631204140281,14.56
1631204140296,18.41
1631204140312,20.57
1631204140328,21.47
1631204140343,21.49
1631204140359,20.95
1631204140375,20.11
1631204140390,19.23
1631204140406,18.57
1631204140421,18.37
1631204140437,18.88
1631204140453,20.25
1631204140468,22.49
1631204140484,25.41
1631204140500,28.6
1631204140515,31.54
1631204140531,33.7
1631204140546,34.69
1631204140562,34.36
1631204140578,32.81
1631204140593,30.3
1631204140609,27.16
1631204140625,23.68
1631204140640,20.07
1631204140656,16.52
1631204140671,13.26
1631204140687,10.56
1631204140703,8.64
1631204140718,7.59
1631204140734,7.25
1631204140750,7.22
1631204140765,6.96
1631204140781,5.97
1631204140796,3.95
1631204140812,0.93
1631204140828,-2.79
1631204140843,-6.8
1631204140859,-10.67
1631204140875,-14.15
1631204140890,-17.18
1631204140906,-19.95
1631204140921,-22.72
1631204140937,-25.85
1631204140953,-29.67
1631204140968,-34.42
1631204140984,-40.14
1631204141000,-46.59
1631204141015,-53.09
1631204141031,-58.56
1631204141046,-61.69
1631204141062,-61.32
1631204141078,-56.82
1631204141093,-48.38
1631204141109,-37.04
1631204141125,-24.34
1631204141140,-11.89
1631204141156,-0.9
1631204141171,8.01
1631204141187,14.74
1631204141203,19.48
1631204141218,22.44
1631204141234,23.82
1631204141250,23.81
1631204141265,22.78
1631204141281,21.3
1631204141296,20.11
1631204141312,19.84
1631204141328,20.87
1631204141343,23.14
1631204141359,26.18
1631204141375,29.3
1631204141390,31.83
1631204141406,33.34
1631204141421,33.68
1631204141437,32.99
1631204141453,31.52
1631204141468,29.52
1631204141484,27.22
1631204141500,24.8
1631204141515,22.4
1631204141531,20.18
1631204141546,18.26
1631204141562,16.77
1631204141578,15.77
1631204141593,15.25
1631204141609,15.06
1631204141625,14.89
1631204141640,14.29
1631204141656,12.79
1631204141671,10.05
1631204141687,6.0
1631204141703,0.91
1631204141718,-4.66
1631204141734,-10.1
1631204141750,-14.93
1631204141765,-18.95
1631204141781,-22.29
1631204141796,-25.23
1631204141812,-28.13
1631204141828,-31.39
1631204141843,-35.37
1631204141859,-40.37
1631204141875,-46.47
1631204141890,-53.26
1631204141906,-59.76
1631204141921,-64.51
1631204141937,-65.92
1631204141953,-62.86
1631204141968,-55.15
1631204141984,-43.65
1631204142000,-30.1
1631204142015,-16.48
1631204142031,-4.48
1631204142046,5.0
1631204142062,11.86
1631204142078,16.62
1631204142093,19.99
1631204142109,22.6
1631204142125,24.85
1631204142140,26.87
1631204142156,28.71
1631204142171,30.35
1631204142187,31.83
1631204142203,33.15
1631204142218,34.26
1631204142234,34.95
1631204142250,35.0
1631204142265,34.25
1631204142281,32.8
1631204142296,31.01
1631204142312,29.47
1631204142328,28.69
1631204142343,28.92
1631204142359,29.99
1631204142375,31.42
1631204142390,32.54
1631204142406,32.8
1631204142421,31.87
1631204142437,29.71
1631204142453,26.46
1631204142468,22.4
1631204142484,17.83
1631204142500,13.07
1631204142515,8.38
1631204142531,3.94
1631204142546,-0.15
1631204142562,-3.95
1631204142578,-7.57
1631204142593,-11.1
1631204142609,-14.57
1631204142625,-17.95
1631204142640,-21.15
1631204142656,-24.1
1631204142671,-26.82
1631204142687,-29.43
1631204142703,-32.18
1631204142718,-35.42
1631204142734,-39.54
1631204142750,-44.86
1631204142765,-51.41
1631204142781,-58.72
1631204142796,-65.74
1631204142812,-70.97
1631204142828,-72.79
1631204142843,-69.93
1631204142859,-61.94
1631204142875,-49.34
1631204142890,-33.57
1631204142906,-16.6
1631204142921,-0.45
1631204142937,13.25
1631204142953,23.52
1631204142968,30.06
1631204142984,33.15
1631204143000,33.42
1631204143015,31.72
1631204143031,28.96
1631204143046,26.05
1631204143062,23.77
1631204143078,22.7
1631204143093,23.1
1631204143109,24.87
1631204143125,27.6
1631204143140,30.76
1631204143156,33.8
1631204143171,36.31
1631204143187,38.02
1631204143203,38.82
1631204143218,38.69
1631204143234,37.66
1631204143250,35.83
1631204143265,33.33
1631204143281,30.28
1631204143296,26.8
1631204143312,23.0
1631204143328,18.97
1631204143343,14.87
1631204143359,10.84
1631204143375,7.03
1631204143390,3.49
1631204143406,0.12
1631204143421,-3.25
1631204143437,-6.78
1631204143453,-10.61
1631204143468,-14.76
1631204143484,-19.12
1631204143500,-23.49
1631204143515,-27.63
1631204143531,-31.34
1631204143546,-34.49
1631204143562,-37.07
1631204143578,-39.27
1631204143593,-41.36
1631204143609,-43.65
1631204143625,-46.44
1631204143640,-49.82
1631204143656,-53.67
1631204143671,-57.51
1631204143687,-60.5
1631204143703,-61.64
1631204143718,-59.95
1631204143734,-54.85
1631204143750,-46.42
1631204143765,-35.48
1631204143781,-23.37
1631204143796,-11.52
1631204143812,-1.05
1631204143828,7.57
1631204143843,14.46
1631204143859,20.16
1631204143875,25.23
1631204143890,29.99
1631204143906,34.45
1631204143921,38.38
1631204143937,41.49
1631204143953,43.58
1631204143968,44.67
1631204143984,44.89
1631204144000,44.42
1631204144015,43.45
1631204144031,42.09
1631204144046,40.43
1631204144062,38.59
1631204144078,36.76
1631204144093,35.09
1631204144109,33.67
1631204144125,32.41
1631204144140,31.11
1631204144156,29.44
1631204144171,27.14
1631204144187,24.04
1631204144203,20.2
1631204144218,15.86
1631204144234,11.41
1631204144250,7.24
1631204144265,3.69
1631204144281,0.85
1631204144296,-1.43
1631204144312,-3.57
1631204144328,-6.1
1631204144343,-9.46
1631204144359,-13.78
1631204144375,-18.78
1631204144390,-23.84
1631204144406,-28.18
1631204144421,-31.17
1631204144437,-32.55
1631204144453,-32.49
1631204144468,-31.6
1631204144484,-30.81
1631204144500,-31.08
1631204144515,-33.2
1631204144531,-37.43
1631204144546,-43.35
1631204144562,-49.67
1631204144578,-54.53
1631204144593,-55.98
1631204144609,-52.58
1631204144625,-43.99
1631204144640,-31.07
1631204144656,-15.61
1631204144671,0.29
1631204144687,14.81
1631204144703,26.8
1631204144718,35.8
1631204144734,41.76
1631204144750,44.83
1631204144765,45.25
1631204144781,43.37
1631204144796,39.8
1631204144812,35.41
1631204144828,31.15
1631204144843,27.78
1631204144859,25.64
1631204144875,24.55
1631204144890,23.99
1631204144906,23.37
1631204144921,22.3
1631204144937,20.77
1631204144953,19.03
1631204144968,17.47
1631204144984,16.39
1631204145000,15.77
1631204145015,15.33
1631204145031,14.61
1631204145046,13.16
1631204145062,10.74
1631204145078,7.38
1631204145093,3.36
1631204145109,-0.83
1631204145125,-4.63
1631204145140,-7.5
1631204145156,-9.07
1631204145171,-9.25
1631204145187,-8.25
1631204145203,-6.68
1631204145218,-5.28
1631204145234,-4.81
1631204145250,-5.77
1631204145265,-8.21
1631204145281,-11.81
1631204145296,-15.97
1631204145312,-20.07
1631204145328,-23.65
1631204145343,-26.49
1631204145359,-28.66
1631204145375,-30.46
1631204145390,-32.32
1631204145406,-34.63
1631204145421,-37.56
1631204145437,-40.81
1631204145453,-43.61
1631204145468,-44.85
1631204145484,-43.45
1631204145500,-38.78
1631204145515,-30.93
1631204145531,-20.76
1631204145546,-9.6
1631204145562,1.18
1631204145578,10.51
1631204145593,17.86
1631204145609,23.17
1631204145625,26.67
1631204145640,28.69
1631204145656,29.51
1631204145671,29.38
1631204145687,28.54
1631204145703,27.28
1631204145718,25.9
1631204145734,24.71
1631204145750,23.9
1631204145765,23.55
1631204145781,23.58
1631204145796,23.82
1631204145812,24.08
1631204145828,24.24
1631204145843,24.23
1631204145859,24.03
1631204145875,23.59
1631204145890,22.79
1631204145906,21.46
1631204145921,19.49
1631204145937,16.88
1631204145953,13.9
1631204145968,11.0
1631204145984,8.66
1631204146000,7.33
1631204146015,7.17
1631204146031,8.02
1631204146046,9.44
1631204146062,10.83
1631204146078,11.51
1631204146093,10.91
1631204146109,8.7
1631204146125,4.78
1631204146140,-0.6
1631204146156,-6.9
1631204146171,-13.4
1631204146187,-19.35
1631204146203,-24.09
1631204146218,-27.31
1631204146234,-29.02
1631204146250,-29.59
1631204146265,-29.72
1631204146281,-30.26
1631204146296,-32.0
1631204146312,-35.36
1631204146328,-40.18
1631204146343,-45.54
1631204146359,-49.93
1631204146375,-51.79
1631204146390,-49.91
1631204146406,-44.04
1631204146421,-34.91
1631204146437,-24.03
1631204146453,-13.08
1631204146468,-3.4
1631204146484,4.3
1631204146500,9.99
1631204146515,14.06
1631204146531,16.98
1631204146546,19.08
1631204146562,20.55
1631204146578,21.44
1631204146593,21.79
1631204146609,21.68
1631204146625,21.29
1631204146640,20.79
1631204146656,20.37
1631204146671,20.18
1631204146687,20.33
1631204146703,20.96
1631204146718,22.17
1631204146734,24.1
1631204146750,26.78
1631204146765,30.03
1631204146781,33.45
1631204146796,36.38
1631204146812,38.1
1631204146828,38.09
1631204146843,36.17
1631204146859,32.65
1631204146875,28.17
1631204146890,23.53
1631204146906,19.39
1631204146921,16.18
1631204146937,14.04
1631204146953,12.87
1631204146968,12.45
1631204146984,12.5
1631204147000,12.74
1631204147015,12.91
1631204147031,12.83
1631204147046,12.4
1631204147062,11.56
1631204147078,10.31
1631204147093,8.66
1631204147109,6.66
1631204147125,4.42
1631204147140,2.06
1631204147156,-0.32
1631204147171,-2.76
1631204147187,-5.41
1631204147203,-8.49
1631204147218,-11.96
1631204147234,-15.32
1631204147250,-17.53
1631204147265,-17.18
1631204147281,-13.0
1631204147296,-4.28
1631204147312,8.79
1631204147328,25.31
1631204147343,43.94
1631204147359,63.35
1631204147375,82.38
1631204147390,100.02
1631204147406,115.04
1631204147421,126.01
1631204147437,131.51
1631204147453,130.66
1631204147468,123.56
1631204147484,111.32
1631204147500,95.65
1631204147515,78.11
1631204147531,59.63
1631204147546,40.46
1631204147562,20.45
1631204147578,-0.42
1631204147593,-21.99
1631204147609,-43.91
1631204147625,-66.0
1631204147640,-88.16
1631204147656,-110.14
1631204147671,-131.07
1631204147687,-149.33
1631204147703,-162.77
1631204147718,-169.38
1631204147734,-167.96
1631204147750,-158.49
1631204147765,-142.08
1631204147781,-120.69
1631204147796,-96.79
1631204147812,-73.15
1631204147828,-52.57
1631204147843,-37.51
1631204147859,-29.53
1631204147875,-28.93
1631204147890,-34.52
1631204147906,-44.08
1631204147921,-54.91
1631204147937,-64.54
1631204147953,-71.21
1631204147968,-73.99
1631204147984,-72.77
1631204148000,-68.22
1631204148015,-61.8
1631204148031,-55.53
1631204148046,-51.63
1631204148062,-51.9
1631204148078,-57.02
1631204148093,-66.18
1631204148109,-77.21
1631204148125,-87.2
1631204148140,-93.39
1631204148156,-94.04
1631204148171,-88.77
1631204148187,-78.49
1631204148203,-64.91
1631204148218,-49.91
1631204148234,-35.04
1631204148250,-21.25
1631204148265,-8.93
1631204148281,1.89
1631204148296,11.41
1631204148312,19.79
1631204148328,27.16
1631204148343,33.6
1631204148359,39.17
1631204148375,43.9
1631204148390,47.86
1631204148406,51.09
1631204148421,53.66
1631204148437,55.64
1631204148453,57.1
1631204148468,58.14
1631204148484,58.79
1631204148500,59.15
1631204148515,59.32
1631204148531,59.4
1631204148546,59.46
1631204148562,59.48
1631204148578,59.37
1631204148593,58.95
1631204148609,58.07
1631204148625,56.67
1631204148640,54.79
1631204148656,52.61
1631204148671,50.38
1631204148687,48.29
1631204148703,46.4
1631204148718,44.6
1631204148734,42.61
1631204148750,40.14
1631204148765,36.99
1631204148781,33.16
1631204148796,28.86
1631204148812,24.42
1631204148828,20.07
1631204148843,15.84
1631204148859,11.38
1631204148875,6.12
1631204148890,-0.52
1631204148906,-8.91
1631204148921,-19.03
1631204148937,-30.54
1631204148953,-42.91
1631204148968,-55.62
1631204148984,-68.18
1631204149000,-80.03
1631204149015,-90.43
1631204149031,-98.55
1631204149046,-103.64
1631204149062,-105.25
1631204149078,-103.39
1631204149093,-98.52
1631204149109,-91.26
1631204149125,-82.24
1631204149140,-71.92
1631204149156,-60.7
1631204149171,-48.95
1631204149187,-37.07
1631204149203,-25.53
1631204149218,-14.69
1631204149234,-4.78
1631204149250,4.04
1631204149265,11.71
1631204149281,18.22
1631204149296,23.59
1631204149312,27.94
1631204149328,31.47
1631204149343,34.4
1631204149359,36.86
1631204149375,38.9
1631204149390,40.49
1631204149406,41.56
1631204149421,42.13
1631204149437,42.25
1631204149453,42.01
1631204149468,41.46
1631204149484,40.59
1631204149500,39.35
1631204149515,37.67
1631204149531,35.57
1631204149546,33.17
1631204149562,30.65
1631204149578,28.24
1631204149593,26.09
1631204149609,24.25
1631204149625,22.59
1631204149640,20.87
1631204149656,18.81
1631204149671,16.21
1631204149687,13.0
1631204149703,9.33
1631204149718,5.46
1631204149734,1.71
1631204149750,-1.7
1631204149765,-4.72
1631204149781,-7.5
1631204149796,-10.39
1631204149812,-13.82
1631204149828,-18.14
1631204149843,-23.45
1631204149859,-29.46
1631204149875,-35.41
1631204149890,-40.18
1631204149906,-42.58
1631204149921,-41.63
1631204149937,-36.92
1631204149953,-28.77
1631204149968,-18.16
1631204149984,-6.44
1631204150000,5.05
1631204150015,15.26
1631204150031,23.57
1631204150046,29.79
1631204150062,34.01
1631204150078,36.44
1631204150093,37.33
1631204150109,36.98
1631204150125,35.74
1631204150140,34.06
1631204150156,32.38
1631204150171,31.13
1631204150187,30.56
1631204150203,30.73
1631204150218,31.49
1631204150234,32.58
1631204150250,33.7
1631204150265,34.6
1631204150281,35.15
1631204150296,35.27
1631204150312,34.96
1631204150328,34.2
1631204150343,32.96
1631204150359,31.17
1631204150375,28.81
1631204150390,25.89
1631204150406,22.55
1631204150421,19.02
1631204150437,15.57
1631204150453,12.4
1631204150468,9.59
1631204150484,7.01
1631204150500,4.44
1631204150515,1.67
1631204150531,-1.38
1631204150546,-4.62
1631204150562,-7.81
1631204150578,-10.75
1631204150593,-13.31
1631204150609,-15.57
1631204150625,-17.76
1631204150640,-20.2
1631204150656,-23.27
1631204150671,-27.28
1631204150687,-32.36
1631204150703,-38.27
1631204150718,-44.3
1631204150734,-49.33
1631204150750,-52.03
1631204150765,-51.3
1631204150781,-46.57
1631204150796,-38.09
1631204150812,-26.81
1631204150828,-14.09
1631204150843,-1.34
1631204150859,10.29
1631204150875,20.1
1631204150890,27.77
1631204150906,33.28
1631204150921,36.76
1631204150937,38.48
1631204150953,38.86
1631204150968,38.39
1631204150984,37.61
1631204151000,36.95
1631204151015,36.66
1631204151031,36.68
1631204151046,36.83
1631204151062,36.76
1631204151078,36.24
1631204151093,35.17
1631204151109,33.66
1631204151125,31.88
1631204151140,30.07
1631204151156,28.39
1631204151171,26.89
1631204151187,25.52
1631204151203,24.14
1631204151218,22.55
1631204151234,20.52
1631204151250,17.91
1631204151265,14.76
1631204151281,11.28
1631204151296,7.79
1631204151312,4.6
1631204151328,1.86
1631204151343,-0.53
1631204151359,-2.81
1631204151375,-5.25
1631204151390,-7.99
1631204151406,-10.99
1631204151421,-14.04
1631204151437,-16.92
1631204151453,-19.47
1631204151468,-21.68
1631204151484,-23.63
1631204151500,-25.54
1631204151515,-27.64
1631204151531,-30.24
1631204151546,-33.59
1631204151562,-37.8
1631204151578,-42.6
1631204151593,-47.26
1631204151609,-50.66
1631204151625,-51.57
1631204151640,-49.08
1631204151656,-43.0
1631204151671,-33.96
1631204151687,-23.2
1631204151703,-12.17
1631204151718,-2.01
1631204151734,6.61
1631204151750,13.56
1631204151765,18.97
1631204151781,23.01
1631204151796,25.75
1631204151812,27.26
1631204151828,27.68
1631204151843,27.31
1631204151859,26.57
1631204151875,25.88
1631204151890,25.47
1631204151906,25.37
1631204151921,25.46
1631204151937,25.56
1631204151953,25.58
1631204151968,25.54
1631204151984,25.53
1631204152000,25.65
1631204152015,25.88
1631204152031,26.12
1631204152046,26.17
1631204152062,25.79
1631204152078,24.86
1631204152093,23.35
1631204152109,21.34
1631204152125,19.02
1631204152140,16.55
1631204152156,14.1
1631204152171,11.79
1631204152187,9.66
1631204152203,7.74
1631204152218,5.95
1631204152234,4.2
1631204152250,2.4
1631204152265,0.5
1631204152281,-1.49
1631204152296,-3.49
1631204152312,-5.44
1631204152328,-7.27
1631204152343,-8.99
1631204152359,-10.64
1631204152375,-12.4
1631204152390,-14.52
1631204152406,-17.29
1631204152421,-21.06
1631204152437,-26.04
1631204152453,-32.18
1631204152468,-38.98
1631204152484,-45.51
1631204152500,-50.53
1631204152515,-52.84
1631204152531,-51.6
1631204152546,-46.61
1631204152562,-38.41
1631204152578,-28.03
1631204152593,-16.81
1631204152609,-5.97
1631204152625,3.57
1631204152640,11.29
1631204152656,17.02
1631204152671,20.9
1631204152687,23.17
1631204152703,24.16
1631204152718,24.26
1631204152734,23.83
1631204152750,23.23
1631204152765,22.74
1631204152781,22.53
1631204152796,22.67
1631204152812,23.09
1631204152828,23.67
1631204152843,24.31
1631204152859,24.91
1631204152875,25.46
1631204152890,25.96
1631204152906,26.4
1631204152921,26.68
1631204152937,26.65
1631204152953,26.14
1631204152968,24.99
1631204152984,23.13
1631204153000,20.67
1631204153015,17.87
1631204153031,15.17
1631204153046,13.05
1631204153062,11.89
1631204153078,11.79
1631204153093,12.49
1631204153109,13.41
1631204153125,13.82
1631204153140,13.14
1631204153156,11.1
1631204153171,7.92
1631204153187,4.07
1631204153203,0.12
1631204153218,-3.54
1631204153234,-6.82
1631204153250,-9.88
1631204153265,-13.0
1631204153281,-16.34
1631204153296,-19.92
1631204153312,-23.62
1631204153328,-27.22
1631204153343,-30.45
1631204153359,-32.93
1631204153375,-34.21
1631204153390,-33.81
1631204153406,-31.33
1631204153421,-26.63
1631204153437,-20.05
1631204153453,-12.3
1631204153468,-4.33
1631204153484,2.91
1631204153500,8.71
1631204153515,12.74
1631204153531,15.0
1631204153546,15.71
1631204153562,15.16
1631204153578,13.7
1631204153593,11.7
1631204153609,9.62
1631204153625,7.98
1631204153640,7.27
1631204153656,7.87
1631204153671,9.87
1631204153687,13.02
1631204153703,16.78
1631204153718,20.44
1631204153734,23.33
1631204153750,24.96
1631204153765,25.17
1631204153781,24.06
1631204153796,22.02
1631204153812,19.57
1631204153828,17.25
1631204153843,15.47
1631204153859,14.41
1631204153875,13.95
1631204153890,13.8
1631204153906,13.55
1631204153921,12.87
1631204153937,11.57
1631204153953,9.58
1631204153968,6.9
1631204153984,3.53
1631204154000,-0.58
1631204154015,-5.43
1631204154031,-10.86
1631204154046,-16.52
1631204154062,-21.93
1631204154078,-26.61
1631204154093,-30.26
1631204154109,-32.86
1631204154125,-34.71
1631204154140,-36.27
1631204154156,-38.1
1631204154171,-40.63
1631204154187,-44.1
1631204154203,-48.41
1631204154218,-53.12
1631204154234,-57.45
1631204154250,-60.37
1631204154265,-60.86
1631204154281,-58.23
1631204154296,-52.36
1631204154312,-43.76
1631204154328,-33.5
1631204154343,-22.78
1631204154359,-12.66
1631204154375,-3.84
1631204154390,3.42
1631204154406,9.12
1631204154421,13.42
1631204154437,16.45
1631204154453,18.41
1631204154468,19.49
1631204154484,19.92
1631204154500,19.99
1631204154515,19.92
1631204154531,19.91
1631204154546,20.05
1631204154562,20.35
1631204154578,20.76
1631204154593,21.14
1631204154609,21.36
1631204154625,21.33
1631204154640,21.06
1631204154656,20.63
1631204154671,20.11
1631204154687,19.57
1631204154703,18.93
1631204154718,18.11
1631204154734,16.99
1631204154750,15.56
1631204154765,13.92
1631204154781,12.23
1631204154796,10.66
1631204154812,9.29
1631204154828,8.19
1631204154843,7.34
1631204154859,6.7
1631204154875,6.23
1631204154890,5.84
1631204154906,5.41
1631204154921,4.8
1631204154937,3.86
1631204154953,2.55
1631204154968,0.96
1631204154984,-0.82
1631204155000,-2.71
1631204155015,-4.81
1631204155031,-7.4
1631204155046,-10.91
1631204155062,-15.77
1631204155078,-22.11
1631204155093,-29.6
1631204155109,-37.35
1631204155125,-44.05
1631204155140,-48.31
1631204155156,-49.03
1631204155171,-45.7
1631204155187,-38.52
1631204155203,-28.33
1631204155218,-16.35
1631204155234,-3.97
1631204155250,7.5
1631204155265,17.0
1631204155281,23.91
1631204155296,28.11
1631204155312,30.06
1631204155328,30.52
1631204155343,30.39
1631204155359,30.31
1631204155375,30.51
1631204155390,30.84
1631204155406,31.0
1631204155421,30.71
1631204155437,29.9
1631204155453,28.65
1631204155468,27.06
1631204155484,25.23
1631204155500,23.15
1631204155515,20.85
1631204155531,18.39
1631204155546,15.96
1631204155562,13.73
1631204155578,11.83
1631204155593,10.21
1631204155609,8.73
1631204155625,7.16
1631204155640,5.33
1631204155656,3.17
1631204155671,0.74
1631204155687,-1.82
1631204155703,-4.32
1631204155718,-6.59
1631204155734,-8.49
1631204155750,-9.98
1631204155765,-11.08
1631204155781,-11.92
1631204155796,-12.64
1631204155812,-13.36
1631204155828,-14.09
1631204155843,-14.71
1631204155859,-15.03
1631204155875,-14.93
1631204155890,-14.45
1631204155906,-13.9
1631204155921,-13.77
1631204155937,-14.56
1631204155953,-16.71
1631204155968,-20.45
1631204155984,-25.75
1631204156000,-32.27
1631204156015,-39.22
1631204156031,-45.41
1631204156046,-49.38
1631204156062,-49.8
1631204156078,-45.93
1631204156093,-37.97
1631204156109,-27.01
1631204156125,-14.76
1631204156140,-2.94
1631204156156,7.1
1631204156171,14.65
1631204156187,19.52
1631204156203,21.89
1631204156218,22.14
1631204156234,20.78
1631204156250,18.41
1631204156265,15.72
1631204156281,13.37
1631204156296,11.82
1631204156312,11.26
1631204156328,11.6
1631204156343,12.61
1631204156359,13.92
1631204156375,15.23
1631204156390,16.33
1631204156406,17.07
1631204156421,17.44
1631204156437,17.48
1631204156453,17.33
1631204156468,17.11
1631204156484,16.97
1631204156500,16.96
1631204156515,17.05
1631204156531,17.06
1631204156546,16.7
1631204156562,15.63
1631204156578,13.57
1631204156593,10.38
1631204156609,6.21
1631204156625,1.37
1631204156640,-3.7
1631204156656,-8.63
1631204156671,-13.19
1631204156687,-17.3
1631204156703,-21.0
1631204156718,-24.24
1631204156734,-26.89
1631204156750,-28.73
1631204156765,-29.63
1631204156781,-29.64
1631204156796,-29.1
1631204156812,-28.49
1631204156828,-28.34
1631204156843,-29.09
1631204156859,-30.94
1631204156875,-33.77
1631204156890,-37.2
1631204156906,-40.57
1631204156921,-43.04
1631204156937,-43.75
1631204156953,-42.01
1631204156968,-37.55
1631204156984,-30.66
1631204157000,-22.15
1631204157015,-13.13
1631204157031,-4.65
1631204157046,2.55
1631204157062,8.22
1631204157078,12.58
1631204157093,16.01
1631204157109,18.96
1631204157125,21.66
1631204157140,24.17
1631204157156,26.41
1631204157171,28.25
1631204157187,29.62
1631204157203,30.52
1631204157218,31.03
1631204157234,31.19
1631204157250,30.99
1631204157265,30.35
1631204157281,29.12
1631204157296,27.24
1631204157312,24.73
1631204157328,21.8
1631204157343,18.85
1631204157359,16.39
1631204157375,14.87
1631204157390,14.59
1631204157406,15.46
1631204157421,17.02
1631204157437,18.55
1631204157453,19.25
1631204157468,18.58
1631204157484,16.4
1631204157500,12.96
1631204157515,8.77
1631204157531,4.36
1631204157546,0.03
1631204157562,-4.12
1631204157578,-8.12
1631204157593,-11.99
1631204157609,-15.65
1631204157625,-18.94
1631204157640,-21.69
1631204157656,-23.81
1631204157671,-25.34
1631204157687,-26.5
1631204157703,-27.54
1631204157718,-28.79
1631204157734,-30.58
1631204157750,-33.17
1631204157765,-36.76
1631204157781,-41.23
1631204157796,-46.15
1631204157812,-50.65
1631204157828,-53.54
1631204157843,-53.6
1631204157859,-49.88
1631204157875,-42.13
1631204157890,-30.84
1631204157906,-17.27
1631204157921,-3.06
1631204157937,10.16
1631204157953,21.18
1631204157968,29.37
1631204157984,34.71
1631204158000,37.54
1631204158015,38.38
1631204158031,37.69
1631204158046,35.91
1631204158062,33.35
1631204158078,30.36
1631204158093,27.35
1631204158109,24.78
1631204158125,22.99
1631204158140,22.18
1631204158156,22.22
1631204158171,22.75
1631204158187,23.3
1631204158203,23.52
1631204158218,23.37
1631204158234,23.11
1631204158250,23.16
1631204158265,23.84
1631204158281,25.14
1631204158296,26.67
1631204158312,27.76
1631204158328,27.76
1631204158343,26.29
1631204158359,23.32
1631204158375,19.14
1631204158390,14.26
1631204158406,9.23
1631204158421,4.59
1631204158437,0.82
1631204158453,-1.76
1631204158468,-3.04
1631204158484,-3.23
1631204158500,-2.84
1631204158515,-2.56
1631204158531,-2.98
1631204158546,-4.46
1631204158562,-7.02
1631204158578,-10.41
1631204158593,-14.35
1631204158609,-18.67
1631204158625,-23.48
1631204158640,-29.01
1631204158656,-35.44
1631204158671,-42.69
1631204158687,-50.21
1631204158703,-57.01
1631204158718,-61.88
1631204158734,-63.72
1631204158750,-61.92
1631204158765,-56.52
1631204158781,-48.29
1631204158796,-38.44
1631204158812,-28.27
1631204158828,-18.8
1631204158843,-10.7
1631204158859,-4.12
1631204158875,0.95
1631204158890,4.64
1631204158906,7.07
1631204158921,8.33
1631204158937,8.63
1631204158953,8.24
1631204158968,7.5
1631204158984,6.7
1631204159000,6.0
1631204159015,5.44
1631204159031,4.99
1631204159046,4.67
1631204159062,4.57
1631204159078,4.83
1631204159093,5.5
1631204159109,6.5
1631204159125,7.62
1631204159140,8.64
1631204159156,9.41
1631204159171,9.93
1631204159187,10.24
1631204159203,10.37
1631204159218,10.29
1631204159234,9.91
1631204159250,9.18
1631204159265,8.15
1631204159281,6.99
1631204159296,5.84
1631204159312,4.71
1631204159328,3.45
1631204159343,1.84
1631204159359,-0.27
1631204159375,-2.87
1631204159390,-5.78
1631204159406,-8.69
1631204159421,-11.31
1631204159437,-13.5
1631204159453,-15.24
1631204159468,-16.72
1631204159484,-18.26
1631204159500,-20.23
1631204159515,-23.0
1631204159531,-26.69
1631204159546,-31.08
1631204159562,-35.45
1631204159578,-38.79
1631204159593,-39.98
1631204159609,-38.18
1631204159625,-33.15
1631204159640,-25.31
1631204159656,-15.68
1631204159671,-5.52
1631204159687,3.95
1631204159703,11.87
1631204159718,17.79
1631204159734,21.7
1631204159750,23.8
1631204159765,24.39
1631204159781,23.8
1631204159796,22.44
1631204159812,20.79
1631204159828,19.41
1631204159843,18.81
1631204159859,19.27
1631204159875,20.67
1631204159890,22.55
1631204159906,24.27
1631204159921,25.27
1631204159937,25.34
1631204159953,24.66
1631204159968,23.62
1631204159984,22.64
1631204160000,21.89
1631204160015,21.29
1631204160031,20.56
1631204160046,19.43
1631204160062,17.79
1631204160078,15.67
1631204160093,13.22
1631204160109,10.61
1631204160125,7.92
1631204160140,5.19
1631204160156,2.4
1631204160171,-0.46
1631204160187,-3.34
1631204160203,-6.2
1631204160218,-8.98
1631204160234,-11.66
1631204160250,-14.22
1631204160265,-16.62
1631204160281,-18.87
1631204160296,-21.03
1631204160312,-23.28
1631204160328,-25.9
1631204160343,-29.18
1631204160359,-33.24
1631204160375,-37.89
1631204160390,-42.57
1631204160406,-46.41
1631204160421,-48.41
1631204160437,-47.72
1631204160453,-43.9
1631204160468,-37.08
1631204160484,-27.91
1631204160500,-17.47
1631204160515,-6.93
1631204160531,2.67
1631204160546,10.61
1631204160562,16.59
1631204160578,20.64
1631204160593,23.02
1631204160609,24.07
1631204160625,24.12
1631204160640,23.48
1631204160656,22.44
1631204160671,21.28
1631204160687,20.26
1631204160703,19.57
1631204160718,19.28
1631204160734,19.33
1631204160750,19.57
1631204160765,19.87
1631204160781,20.16
1631204160796,20.46
1631204160812,20.85
1631204160828,21.37
1631204160843,21.93
1631204160859,22.3
1631204160875,22.12
1631204160890,21.07
1631204160906,19.02
1631204160921,16.1
1631204160937,12.68
1631204160953,9.27
1631204160968,6.27
1631204160984,3.93
1631204161000,2.15
1631204161015,0.65
1631204161031,-0.97
1631204161046,-3.03
1631204161062,-5.63
1631204161078,-8.63
1631204161093,-11.68
1631204161109,-14.38
1631204161125,-16.49
1631204161140,-17.98
1631204161156,-19.14
1631204161171,-20.42
1631204161187,-22.35
1631204161203,-25.31
1631204161218,-29.37
1631204161234,-34.21
1631204161250,-39.12
1631204161265,-43.1
1631204161281,-45.05
1631204161296,-44.09
1631204161312,-39.81
1631204161328,-32.41
1631204161343,-22.7
1631204161359,-11.9
1631204161375,-1.32
1631204161390,8.01
1631204161406,15.46
1631204161421,20.89
1631204161437,24.5
1631204161453,26.57
1631204161468,27.4
1631204161484,27.26
1631204161500,26.41
1631204161515,25.2
1631204161531,23.97
1631204161546,22.98
1631204161562,22.34
1631204161578,21.98
1631204161593,21.73
1631204161609,21.46
1631204161625,21.17
1631204161640,20.98
1631204161656,21.02
1631204161671,21.39
1631204161687,21.99
1631204161703,22.56
1631204161718,22.75
1631204161734,22.28
1631204161750,21.0
1631204161765,18.96
1631204161781,16.36
1631204161796,13.55
1631204161812,10.79
1631204161828,8.26
1631204161843,6.0
1631204161859,3.92
1631204161875,1.86
1631204161890,-0.32
1631204161906,-2.73
1631204161921,-5.42
1631204161937,-8.36
1631204161953,-11.42
1631204161968,-14.39
1631204161984,-17.02
1631204162000,-19.17
1631204162015,-20.87
1631204162031,-22.42
1631204162046,-24.34
1631204162062,-27.12
1631204162078,-31.01
1631204162093,-35.78
1631204162109,-40.73
1631204162125,-44.78
1631204162140,-46.79
1631204162156,-45.91
1631204162171,-41.78
1631204162187,-34.74
1631204162203,-25.61
1631204162218,-15.55
1631204162234,-5.69
1631204162250,3.07
1631204162265,10.24
1631204162281,15.64
1631204162296,19.37
1631204162312,21.64
1631204162328,22.71
1631204162343,22.85
1631204162359,22.29
1631204162375,21.28
1631204162390,20.03
1631204162406,18.72
1631204162421,17.49
1631204162437,16.43
1631204162453,15.63
1631204162468,15.15
1631204162484,15.07
1631204162500,15.38
1631204162515,16.08
1631204162531,17.05
1631204162546,18.09
1631204162562,18.91
1631204162578,19.19
1631204162593,18.67
1631204162609,17.25
1631204162625,15.06
1631204162640,12.44
1631204162656,9.84
1631204162671,7.6
1631204162687,5.85
1631204162703,4.5
1631204162718,3.24
1631204162734,1.76
1631204162750,-0.18
1631204162765,-2.68
1631204162781,-5.64
1631204162796,-8.81
1631204162812,-11.9
1631204162828,-14.66
1631204162843,-16.94
1631204162859,-18.75
1631204162875,-20.33
1631204162890,-22.1
1631204162906,-24.55
1631204162921,-27.99
1631204162937,-32.43
1631204162953,-37.34
1631204162968,-41.73
1631204162984,-44.33
1631204163000,-43.98
1631204163015,-40.09
1631204163031,-32.79
1631204163046,-23.02
1631204163062,-12.16
1631204163078,-1.63
1631204163093,7.48
1631204163109,14.63
1631204163125,19.75
1631204163140,23.05
1631204163156,24.82
1631204163171,25.31
1631204163187,24.79
1631204163203,23.54
1631204163218,21.94
1631204163234,20.42
1631204163250,19.34
1631204163265,18.88
1631204163281,19.02
1631204163296,19.56
1631204163312,20.18
1631204163328,20.63
1631204163343,20.78
1631204163359,20.65
1631204163375,20.4
1631204163390,20.19
1631204163406,20.06
1631204163421,19.88
1631204163437,19.41
1631204163453,18.36
1631204163468,16.54
1631204163484,13.95
1631204163500,10.86
1631204163515,7.64
1631204163531,4.68
1631204163546,2.21
1631204163562,0.21
1631204163578,-1.54
1631204163593,-3.3
1631204163609,-5.29
1631204163625,-7.55
1631204163640,-9.97
1631204163656,-12.37
1631204163671,-14.63
1631204163687,-16.74
1631204163703,-18.83
1631204163718,-21.1
1631204163734,-23.79
1631204163750,-27.08
1631204163765,-31.03
1631204163781,-35.49
1631204163796,-40.1
1631204163812,-44.19
1631204163828,-46.91
1631204163843,-47.42
1631204163859,-45.08
1631204163875,-39.72
1631204163890,-31.75
1631204163906,-22.06
1631204163921,-11.81
1631204163937,-2.17
1631204163953,6.05
1631204163968,12.47
1631204163984,17.12
1631204164000,20.34
1631204164015,22.45
1631204164031,23.7
1631204164046,24.2
1631204164062,24.03
1631204164078,23.32
1631204164093,22.29
1631204164109,21.3
1631204164125,20.64
1631204164140,20.45
1631204164156,20.71
1631204164171,21.21
1631204164187,21.77
1631204164203,22.26
1631204164218,22.68
1631204164234,23.04
1631204164250,23.3
1631204164265,23.33
1631204164281,22.91
1631204164296,21.83
1631204164312,20.02
1631204164328,17.61
1631204164343,14.86
1631204164359,12.09
1631204164375,9.55
1631204164390,7.36
1631204164406,5.46
1631204164421,3.65
1631204164437,1.64
1631204164453,-0.8
1631204164468,-3.78
1631204164484,-7.17
1631204164500,-10.64
1631204164515,-13.76
1631204164531,-16.19
1631204164546,-17.9
1631204164562,-19.11
1631204164578,-20.25
1631204164593,-21.8
1631204164609,-24.11
1631204164625,-27.38
1631204164640,-31.63
1631204164656,-36.66
1631204164671,-41.97
1631204164687,-46.71
1631204164703,-49.77
1631204164718,-50.05
1631204164734,-46.9
1631204164750,-40.34
1631204164765,-31.16
1631204164781,-20.67
1631204164796,-10.28
1631204164812,-1.09
1631204164828,6.33
1631204164843,11.87
1631204164859,15.78
1631204164875,18.36
1631204164890,19.92
1631204164906,20.73
1631204164921,20.96
1631204164937,20.85
1631204164953,20.62
1631204164968,20.48
1631204164984,20.57
1631204165000,20.89
1631204165015,21.33
1631204165031,21.68
1631204165046,21.78
1631204165062,21.56
1631204165078,21.1
1631204165093,20.53
1631204165109,19.98
1631204165125,19.44
1631204165140,18.73
1631204165156,17.59
1631204165171,15.79
1631204165187,13.33
1631204165203,10.46
1631204165218,7.69
1631204165234,5.62
1631204165250,4.79
1631204165265,5.41
1631204165281,7.35
1631204165296,10.07
1631204165312,12.84
1631204165328,14.96
1631204165343,15.92
1631204165359,15.51
1631204165375,13.83
1631204165390,11.13
1631204165406,7.76
1631204165421,4.03
1631204165437,0.16
1631204165453,-3.77
1631204165468,-7.8
1631204165484,-12.09
1631204165500,-16.85
1631204165515,-22.22
1631204165531,-28.1
1631204165546,-34.01
1631204165562,-39.1
1631204165578,-42.35
1631204165593,-42.82
1631204165609,-40.04
1631204165625,-34.15
1631204165640,-25.9
1631204165656,-16.41
1631204165671,-6.89
1631204165687,1.67
1631204165703,8.68
1631204165718,13.9
1631204165734,17.36
1631204165750,19.21
1631204165765,19.66
1631204165781,18.98
1631204165796,17.55
1631204165812,15.83
1631204165828,14.29
1631204165843,13.34
1631204165859,13.15
1631204165875,13.67
1631204165890,14.66
1631204165906,15.81
1631204165921,16.88
1631204165937,17.72
1631204165953,18.35
1631204165968,18.79
1631204165984,19.1
1631204166000,19.26
1631204166015,19.22
1631204166031,18.9
1631204166046,18.23
1631204166062,17.11
1631204166078,15.54
1631204166093,13.54
1631204166109,11.25
1631204166125,8.83
1631204166140,6.39
1631204166156,3.98
1631204166171,1.55
1631204166187,-1.04
1631204166203,-3.86
1631204166218,-6.9
1631204166234,-10.0
1631204166250,-12.92
1631204166265,-15.43
1631204166281,-17.42
1631204166296,-18.98
1631204166312,-20.42
1631204166328,-22.17
1631204166343,-24.65
1631204166359,-28.1
1631204166375,-32.41
1631204166390,-37.1
1631204166406,-41.33
1631204166421,-44.07
1631204166437,-44.41
1631204166453,-41.77
1631204166468,-36.08
1631204166484,-27.84
1631204166500,-17.97
1631204166515,-7.6
1631204166531,2.17
1631204166546,10.57
1631204166562,17.14
1631204166578,21.81
1631204166593,24.74
1631204166609,26.2
1631204166625,26.49
1631204166640,25.86
1631204166656,24.55
1631204166671,22.79
1631204166687,20.89
1631204166703,19.13
1631204166718,17.81
1631204166734,17.07
1631204166750,16.91
1631204166765,17.17
1631204166781,17.62
1631204166796,18.03
1631204166812,18.28
1631204166828,18.37
1631204166843,18.36
1631204166859,18.26
1631204166875,17.97
1631204166890,17.27
1631204166906,15.92
1631204166921,13.82
1631204166937,11.08
1631204166953,8.08
1631204166968,5.26
1631204166984,2.95
1631204167000,1.2
1631204167015,-0.22
1631204167031,-1.71
1631204167046,-3.65
1631204167062,-6.16
1631204167078,-9.15
1631204167093,-12.3
1631204167109,-15.27
1631204167125,-17.89
1631204167140,-20.16
1631204167156,-22.25
1631204167171,-24.33
1631204167187,-26.58
1631204167203,-29.08
1631204167218,-31.97
1631204167234,-35.39
1631204167250,-39.34
1631204167265,-43.61
1631204167281,-47.48
1631204167296,-49.91
1631204167312,-49.73
1631204167328,-46.16
1631204167343,-39.07
1631204167359,-29.18
1631204167375,-17.78
1631204167390,-6.29
1631204167406,4.17
1631204167421,13.0
1631204167437,20.07
1631204167453,25.47
1631204167468,29.33
1631204167484,31.7
1631204167500,32.61
1631204167515,32.24
1631204167531,30.95
1631204167546,29.21
1631204167562,27.45
1631204167578,25.95
1631204167593,24.74
1631204167609,23.72
1631204167625,22.74
1631204167640,21.73
1631204167656,20.74
1631204167671,19.84
1631204167687,19.1
1631204167703,18.48
1631204167718,17.88
1631204167734,17.15
1631204167750,16.19
1631204167765,14.92
1631204167781,13.32
1631204167796,11.39
1631204167812,9.22
1631204167828,6.89
1631204167843,4.54
1631204167859,2.32
1631204167875,0.32
1631204167890,-1.5
1631204167906,-3.25
1631204167921,-5.12
1631204167937,-7.25
1631204167953,-9.62
1631204167968,-12.09
1631204167984,-14.38
1631204168000,-16.28
1631204168015,-17.72
1631204168031,-18.89
1631204168046,-20.1
1631204168062,-21.73
1631204168078,-24.06
1631204168093,-27.19
1631204168109,-31.05
1631204168125,-35.36
1631204168140,-39.71
1631204168156,-43.44
1631204168171,-45.77
1631204168187,-45.84
1631204168203,-43.02
1631204168218,-37.12
1631204168234,-28.58
1631204168250,-18.38
1631204168265,-7.78
1631204168281,2.04
1631204168296,10.26
1631204168312,16.58
1631204168328,21.04
1631204168343,23.86
1631204168359,25.29
1631204168375,25.48
1631204168390,24.62
1631204168406,23.02
1631204168421,21.07
1631204168437,19.26
1631204168453,17.99
1631204168468,17.42
1631204168484,17.49
1631204168500,17.97
1631204168515,18.56
1631204168531,19.04
1631204168546,19.31
1631204168562,19.38
1631204168578,19.22
1631204168593,18.79
1631204168609,17.98
1631204168625,16.67
1631204168640,14.83
1631204168656,12.59
1631204168671,10.19
1631204168687,7.92
1631204168703,5.99
1631204168718,4.47
1631204168734,3.25
1631204168750,2.07
1631204168765,0.66
1631204168781,-1.19
1631204168796,-3.51
1631204168812,-6.14
1631204168828,-8.84
1631204168843,-11.34
1631204168859,-13.48
1631204168875,-15.25
1631204168890,-16.8
1631204168906,-18.41
1631204168921,-20.42
1631204168937,-23.07
1631204168953,-26.5
1631204168968,-30.59
1631204168984,-34.88
1631204169000,-38.62
1631204169015,-40.83
1631204169031,-40.53
1631204169046,-37.12
1631204169062,-30.57
1631204169078,-21.6
1631204169093,-11.46
1631204169109,-1.55
1631204169125,6.94
1631204169140,13.35
1631204169156,17.61
1631204169171,20.03
1631204169187,21.08
1631204169203,21.18
1631204169218,20.64
1631204169234,19.65
1631204169250,18.4
1631204169265,17.05
1631204169281,15.8
1631204169296,14.79
1631204169312,14.15
1631204169328,13.89
1631204169343,14.0
1631204169359,14.37
1631204169375,14.87
1631204169390,15.37
1631204169406,15.77
1631204169421,15.96
1631204169437,15.86
1631204169453,15.37
1631204169468,14.43
1631204169484,12.97
1631204169500,11.05
1631204169515,8.81
1631204169531,6.45
1631204169546,4.15
1631204169562,1.97
1631204169578,-0.12
1631204169593,-2.22
1631204169609,-4.4
1631204169625,-6.64
1631204169640,-8.85
1631204169656,-10.97
1631204169671,-12.95
1631204169687,-14.89
1631204169703,-17.02
1631204169718,-19.61
1631204169734,-22.92
1631204169750,-27.03
1631204169765,-31.67
1631204169781,-36.15
1631204169796,-39.51
1631204169812,-40.73
1631204169828,-39.1
1631204169843,-34.46
1631204169859,-27.25
1631204169875,-18.42
1631204169890,-9.03
1631204169906,-0.1
1631204169921,7.7
1631204169937,13.97
1631204169953,18.55
1631204169968,21.48
1631204169984,22.89
1631204170000,23.03
1631204170015,22.18
1631204170031,20.71
1631204170046,18.94
1631204170062,17.21
1631204170078,15.77
1631204170093,14.87
1631204170109,14.59
1631204170125,14.96
1631204170140,15.81
1631204170156,16.9
1631204170171,17.95
1631204170187,18.73
1631204170203,19.09
1631204170218,18.99
1631204170234,18.38
1631204170250,17.2
1631204170265,15.43
1631204170281,13.07
1631204170296,10.24
1631204170312,7.18
1631204170328,4.15
1631204170343,1.36
1631204170359,-1.13
1631204170375,-3.41
1631204170390,-5.65
1631204170406,-7.97
1631204170421,-10.39
1631204170437,-12.79
1631204170453,-15.04
1631204170468,-17.1
1631204170484,-19.07
1631204170500,-21.23
1631204170515,-23.91
1631204170531,-27.36
1631204170546,-31.53
1631204170562,-35.99
1631204170578,-39.95
1631204170593,-42.43
1631204170609,-42.56
1631204170625,-39.83
1631204170640,-34.3
1631204170656,-26.58
1631204170671,-17.67
1631204170687,-8.59
1631204170703,-0.24
1631204170718,6.84
1631204170734,12.39
1631204170750,16.35
1631204170765,18.74
1631204170781,19.64
1631204170796,19.21
1631204170812,17.79
1631204170828,15.86
1631204170843,13.96
1631204170859,12.6
1631204170875,12.05
1631204170890,12.37
1631204170906,13.38
1631204170921,14.84
1631204170937,16.47
1631204170953,18.06
1631204170968,19.41
1631204170984,20.36
1631204171000,20.74
1631204171015,20.41
1631204171031,19.32
1631204171046,17.57
1631204171062,15.35
1631204171078,12.92
1631204171093,10.48
1631204171109,8.12
1631204171125,5.79
1631204171140,3.34
1631204171156,0.7
1631204171171,-2.15
1631204171187,-5.06
1631204171203,-7.8
1631204171218,-10.18
1631204171234,-12.15
1631204171250,-13.76
1631204171265,-15.18
1631204171281,-16.61
1631204171296,-18.25
1631204171312,-20.29
1631204171328,-22.91
1631204171343,-26.19
1631204171359,-30.0
1631204171375,-33.85
1631204171390,-36.91
1631204171406,-38.16
1631204171421,-36.78
1631204171437,-32.41
1631204171453,-25.38
1631204171468,-16.6
1631204171484,-7.27
1631204171500,1.47
1631204171515,8.85
1631204171531,14.53
1631204171546,18.49
1631204171562,20.91
1631204171578,21.91
1631204171593,21.59
1631204171609,20.09
1631204171625,17.66
1631204171640,14.8
1631204171656,12.13
1631204171671,10.24
1631204171687,9.47
1631204171703,9.84
1631204171718,11.05
1631204171734,12.63
1631204171750,14.11
1631204171765,15.17
1631204171781,15.7
1631204171796,15.7
1631204171812,15.24
1631204171828,14.42
1631204171843,13.33
1631204171859,12.02
1631204171875,10.55
1631204171890,8.95
1631204171906,7.22
1631204171921,5.33
1631204171937,3.32
1631204171953,1.29
1631204171968,-0.65
1631204171984,-2.44
1631204172000,-4.06
1631204172015,-5.61
1631204172031,-7.26
1631204172046,-9.16
1631204172062,-11.4
1631204172078,-14.08
1631204172093,-17.21
1631204172109,-20.73
1631204172125,-24.44
1631204172140,-27.89
1631204172156,-30.39
1631204172171,-31.15
1631204172187,-29.48
1631204172203,-25.12
1631204172218,-18.34
1631204172234,-9.97
1631204172250,-1.11
1631204172265,7.19
1631204172281,14.2
1631204172296,19.59
1631204172312,23.36
1631204172328,25.59
1631204172343,26.4
1631204172359,25.89
1631204172375,24.28
1631204172390,21.96
1631204172406,19.54
1631204172421,17.58
1631204172437,16.48
1631204172453,16.3
1631204172468,16.79
1631204172484,17.61
1631204172500,18.46
1631204172515,19.21
1631204172531,19.83
1631204172546,20.28
1631204172562,20.45
1631204172578,20.1
1631204172593,19.03
1631204172609,17.18
1631204172625,14.66
1631204172640,11.77
1631204172656,8.83
1631204172671,6.08
1631204172687,3.59
1631204172703,1.28
1631204172718,-1.08
1631204172734,-3.67
1631204172750,-6.63
1631204172765,-9.87
1631204172781,-13.17
1631204172796,-16.22
1631204172812,-18.8
1631204172828,-20.86
1631204172843,-22.54
1631204172859,-24.19
1631204172875,-26.22
1631204172890,-28.96
1631204172906,-32.61
1631204172921,-37.09
1631204172937,-41.93
1631204172953,-46.28
1631204172968,-49.04
1631204172984,-49.14
1631204173000,-45.86
1631204173015,-39.15
1631204173031,-29.68
1631204173046,-18.71
1631204173062,-7.67
1631204173078,2.15
1631204173093,9.95
1631204173109,15.4
1631204173125,18.65
1631204173140,20.14
1631204173156,20.42
1631204173171,20.04
1631204173187,19.43
1631204173203,18.86
1631204173218,18.45
1631204173234,18.2
1631204173250,18.11
1631204173265,18.13
1631204173281,18.26
1631204173296,18.45
1631204173312,18.69
1631204173328,18.94
1631204173343,19.22
1631204173359,19.53
1631204173375,19.78
1631204173390,19.84
1631204173406,19.48
1631204173421,18.51
1631204173437,16.87
1631204173453,14.66
1631204173468,12.11
1631204173484,9.48
1631204173500,6.92
1631204173515,4.48
1631204173531,2.06
1631204173546,-0.4
1631204173562,-2.99
1631204173578,-5.68
1631204173593,-8.41
1631204173609,-11.12
1631204173625,-13.74
1631204173640,-16.22
1631204173656,-18.58
1631204173671,-20.9
1631204173687,-23.39
1631204173703,-26.32
1631204173718,-29.92
1631204173734,-34.17
1631204173750,-38.63
1631204173765,-42.47
1631204173781,-44.55
1631204173796,-43.87
1631204173812,-39.89
1631204173828,-32.8
1631204173843,-23.54
1631204173859,-13.43
1631204173875,-3.78
1631204173890,4.51
1631204173906,11.07
1631204173921,15.97
1631204173937,19.47
1631204173953,21.78
1631204173968,23.02
1631204173984,23.3
1631204174000,22.82
1631204174015,21.97
1631204174031,21.19
1631204174046,20.84
1631204174062,21.05
1631204174078,21.68
1631204174093,22.43
1631204174109,23.0
1631204174125,23.19
1631204174140,23.03
1631204174156,22.64
1631204174171,22.18
1631204174187,21.73
1631204174203,21.2
1631204174218,20.39
1631204174234,19.02
1631204174250,16.93
1631204174265,14.17
1631204174281,11.01
1631204174296,7.91
1631204174312,5.26
1631204174328,3.25
1631204174343,1.75
1631204174359,0.39
1631204174375,-1.22
1631204174390,-3.29
1631204174406,-5.75
1631204174421,-8.35
1631204174437,-10.77
1631204174453,-12.89
1631204174468,-14.74
1631204174484,-16.53
1631204174500,-18.47
1631204174515,-20.72
1631204174531,-23.39
1631204174546,-26.57
1631204174562,-30.34
1631204174578,-34.64
1631204174593,-39.1
1631204174609,-42.94
1631204174625,-45.16
1631204174640,-44.76
1631204174656,-41.19
1631204174671,-34.59
1631204174687,-25.76
1631204174703,-15.94
1631204174718,-6.34
1631204174734,2.13
1631204174750,9.02
1631204174765,14.23
1631204174781,17.83
1631204174796,19.97
1631204174812,20.79
1631204174828,20.52
1631204174843,19.49
1631204174859,18.15
1631204174875,16.92
1631204174890,16.15
1631204174906,15.96
1631204174921,16.35
1631204174937,17.17
1631204174953,18.2
1631204174968,19.26
1631204174984,20.12
1631204175000,20.66
1631204175015,20.8
1631204175031,20.58
1631204175046,20.1
1631204175062,19.46
1631204175078,18.66
1631204175093,17.58
1631204175109,16.04
1631204175125,13.92
1631204175140,11.3
1631204175156,8.42
1631204175171,5.68
1631204175187,3.37
1631204175203,1.55
1631204175218,0.07
1631204175234,-1.42
1631204175250,-3.13
1631204175265,-5.11
1631204175281,-7.16
1631204175296,-8.99
1631204175312,-10.39
1631204175328,-11.38
1631204175343,-12.18
1631204175359,-13.21
1631204175375,-14.88
1631204175390,-17.49
1631204175406,-21.13
1631204175421,-25.53
1631204175437,-30.14
1631204175453,-34.15
1631204175468,-36.64
1631204175484,-36.8
1631204175500,-34.15
1631204175515,-28.72
1631204175531,-21.03
1631204175546,-12.01
1631204175562,-2.78
1631204175578,5.68
1631204175593,12.67
1631204175609,17.85
1631204175625,21.2
1631204175640,22.9
1631204175656,23.17
1631204175671,22.31
1631204175687,20.63
1631204175703,18.44
1631204175718,16.14
1631204175734,14.09
1631204175750,12.58
1631204175765,11.79
1631204175781,11.74
1631204175796,12.32
1631204175812,13.36
1631204175828,14.6
1631204175843,15.83
1631204175859,16.82
1631204175875,17.42
1631204175890,17.55
1631204175906,17.12
1631204175921,16.09
1631204175937,14.44
1631204175953,12.24
1631204175968,9.68
1631204175984,7.07
1631204176000,4.74
1631204176015,2.91
1631204176031,1.56
1631204176046,0.44
1631204176062,-0.8
1631204176078,-2.42
1631204176093,-4.43
1631204176109,-6.6
1631204176125,-8.6
1631204176140,-10.2
1631204176156,-11.34
1631204176171,-12.26
1631204176187,-13.27
1631204176203,-14.74
1631204176218,-16.92
1631204176234,-19.9
1631204176250,-23.57
1631204176265,-27.55
1631204176281,-31.22
1631204176296,-33.75
1631204176312,-34.25
1631204176328,-32.1
1631204176343,-27.18
1631204176359,-19.95
1631204176375,-11.33
1631204176390,-2.47
1631204176406,5.65
1631204176421,12.37
1631204176437,17.4
1631204176453,20.76
1631204176468,22.56
1631204176484,22.97
1631204176500,22.26
1631204176515,20.75
1631204176531,18.89
1631204176546,17.18
1631204176562,16.01
1631204176578,15.56
1631204176593,15.79
1631204176609,16.39
1631204176625,16.97
1631204176640,17.25
1631204176656,17.11
1631204176671,16.66
1631204176687,16.16
1631204176703,15.85
1631204176718,15.77
1631204176734,15.7
1631204176750,15.3
1631204176765,14.22
1631204176781,12.36
1631204176796,9.91
1631204176812,7.3
1631204176828,4.94
1631204176843,3.03
1631204176859,1.5
1631204176875,0.02
1631204176890,-1.72
1631204176906,-3.93
1631204176921,-6.56
1631204176937,-9.41
1631204176953,-12.18
1631204176968,-14.67
1631204176984,-16.81
1631204177000,-18.67
1631204177015,-20.43
1631204177031,-22.3
1631204177046,-24.52
1631204177062,-27.3
1631204177078,-30.79
1631204177093,-34.94
1631204177109,-39.41
1631204177125,-43.51
1631204177140,-46.29
1631204177156,-46.85
1631204177171,-44.51
1631204177187,-39.14
1631204177203,-31.2
1631204177218,-21.65
1631204177234,-11.68
1631204177250,-2.37
1631204177265,5.48
1631204177281,11.52
1631204177296,15.79
1631204177312,18.55
1631204177328,20.17
1631204177343,20.95
1631204177359,21.15
1631204177375,20.99
1631204177390,20.66
1631204177406,20.38
1631204177421,20.33
1631204177437,20.62
1631204177453,21.24
1631204177468,22.05
1631204177484,22.88
1631204177500,23.58
1631204177515,24.06
1631204177531,24.33
1631204177546,24.4
1631204177562,24.3
1631204177578,23.93
1631204177593,23.17
1631204177609,21.84
1631204177625,19.81
1631204177640,17.11
1631204177656,13.97
1631204177671,10.8
1631204177687,8.0
1631204177703,5.86
1631204177718,4.34
1631204177734,3.13
1631204177750,1.78
1631204177765,-0.09
1631204177781,-2.57
1631204177796,-5.46
1631204177812,-8.36
1631204177828,-10.88
1631204177843,-12.83
1631204177859,-14.28
1631204177875,-15.48
1631204177890,-16.76
1631204177906,-18.43
1631204177921,-20.74
1631204177937,-23.86
1631204177953,-27.78
1631204177968,-32.26
1631204177984,-36.73
1631204178000,-40.28
1631204178015,-41.86
1631204178031,-40.54
1631204178046,-35.89
1631204178062,-28.13
1631204178078,-18.18
1631204178093,-7.39
1631204178109,2.86
1631204178125,11.56
1631204178140,18.25
1631204178156,23.04
1631204178171,26.34
1631204178187,28.66
1631204178203,30.44
1631204178218,32.02
1631204178234,33.66
1631204178250,35.5
1631204178265,37.54
1631204178281,39.51
1631204178296,40.9
1631204178312,41.07
1631204178328,39.52
1631204178343,36.12
1631204178359,31.18
1631204178375,25.4
1631204178390,19.57
1631204178406,14.42
1631204178421,10.38
1631204178437,7.59
1631204178453,5.9
1631204178468,5.0
1631204178484,4.5
1631204178500,4.01
1631204178515,3.27
1631204178531,2.13
1631204178546,0.61
1631204178562,-1.17
1631204178578,-3.04
1631204178593,-4.82
1631204178609,-6.35
1631204178625,-7.43
1631204178640,-7.93
1631204178656,-7.84
1631204178671,-7.35
1631204178687,-6.88
1631204178703,-6.91
1631204178718,-7.91
1631204178734,-10.12
1631204178750,-13.55
1631204178765,-17.99
1631204178781,-23.12
1631204178796,-28.62
1631204178812,-34.23
1631204178828,-39.73
1631204178843,-44.79
1631204178859,-48.95
1631204178875,-51.54
1631204178890,-51.89
1631204178906,-49.46
1631204178921,-44.16
1631204178937,-36.41
1631204178953,-27.1
1631204178968,-17.32
1631204178984,-8.12
1631204179000,-0.18
1631204179015,6.17
1631204179031,10.92
1631204179046,14.2
1631204179062,16.16
1631204179078,16.94
1631204179093,16.76
1631204179109,15.88
1631204179125,14.71
1631204179140,13.67
1631204179156,13.13
1631204179171,13.26
1631204179187,14.07
1631204179203,15.31
1631204179218,16.58
1631204179234,17.45
1631204179250,17.57
1631204179265,16.87
1631204179281,15.51
1631204179296,13.82
1631204179312,12.14
1631204179328,10.71
1631204179343,9.57
1631204179359,8.58
1631204179375,7.54
1631204179390,6.3
1631204179406,4.8
1631204179421,3.09
1631204179437,1.25
1631204179453,-0.59
1631204179468,-2.38
1631204179484,-4.1
1631204179500,-5.79
1631204179515,-7.5
1631204179531,-9.23
1631204179546,-10.95
1631204179562,-12.53
1631204179578,-13.82
1631204179593,-14.73
1631204179609,-15.37
1631204179625,-16.0
1631204179640,-17.0
1631204179656,-18.71
1631204179671,-21.34
1631204179687,-24.85
1631204179703,-28.96
1631204179718,-33.22
1631204179734,-37.02
1631204179750,-39.66
1631204179765,-40.45
1631204179781,-38.84
1631204179796,-34.59
1631204179812,-27.92
1631204179828,-19.49
1631204179843,-10.29
1631204179859,-1.31
1631204179875,6.66
1631204179890,13.22
1631204179906,18.32
1631204179921,22.05
1631204179937,24.57
1631204179953,25.97
1631204179968,26.33
1631204179984,25.82
1631204180000,24.7
1631204180015,23.35
1631204180031,22.15
1631204180046,21.34
1631204180062,21.03
1631204180078,21.11
1631204180093,21.41
1631204180109,21.74
1631204180125,22.02
1631204180140,22.18
1631204180156,22.23
1631204180171,22.12
1631204180187,21.73
1631204180203,20.93
1631204180218,19.55
1631204180234,17.55
1631204180250,14.99
1631204180265,12.14
1631204180281,9.38
1631204180296,7.07
1631204180312,5.42
1631204180328,4.38
1631204180343,3.69
1631204180359,2.96
1631204180375,1.86
1631204180390,0.24
1631204180406,-1.85
1631204180421,-4.21
1631204180437,-6.57
1631204180453,-8.73
1631204180468,-10.61
1631204180484,-12.2
1631204180500,-13.6
1631204180515,-14.99
1631204180531,-16.69
1631204180546,-19.05
1631204180562,-22.29
1631204180578,-26.34
1631204180593,-30.64
1631204180609,-34.19
1631204180625,-35.82
1631204180640,-34.6
1631204180656,-30.15
1631204180671,-22.86
1631204180687,-13.7
1631204180703,-3.9
1631204180718,5.4
1631204180734,13.44
1631204180750,19.91
1631204180765,24.83
1631204180781,28.43
1631204180796,31.06
1631204180812,33.09
1631204180828,34.89
1631204180843,36.72
1631204180859,38.66
1631204180875,40.59
1631204180890,42.19
1631204180906,43.1
1631204180921,43.01
1631204180937,41.76
1631204180953,39.46
1631204180968,36.35
1631204180984,32.84
1631204181000,29.32
1631204181015,26.11
1631204181031,23.38
1631204181046,21.09
1631204181062,19.05
1631204181078,16.9
1631204181093,14.34
1631204181109,11.11
1631204181125,7.19
1631204181140,2.76
1631204181156,-1.82
1631204181171,-6.07
1631204181187,-9.58
1631204181203,-12.08
1631204181218,-13.58
1631204181234,-14.36
1631204181250,-14.85
1631204181265,-15.52
1631204181281,-16.69
1631204181296,-18.43
1631204181312,-20.63
1631204181328,-23.02
1631204181343,-25.33
1631204181359,-27.43
1631204181375,-29.35
1631204181390,-31.27
1631204181406,-33.51
1631204181421,-36.39
1631204181437,-40.1
1631204181453,-44.58
1631204181468,-49.37
1631204181484,-53.63
1631204181500,-56.25
1631204181515,-56.19
1631204181531,-52.8
1631204181546,-46.09
1631204181562,-36.71
1631204181578,-25.78
1631204181593,-14.49
1631204181609,-3.82
1631204181625,5.67
1631204181640,13.81
1631204181656,20.6
1631204181671,26.09
1631204181687,30.28
1631204181703,33.14
1631204181718,34.75
1631204181734,35.34
1631204181750,35.27
1631204181765,34.95
1631204181781,34.64
1631204181796,34.34
1631204181812,33.77
1631204181828,32.57
1631204181843,30.38
1631204181859,27.11
1631204181875,22.95
1631204181890,18.32
1631204181906,13.71
1631204181921,9.52
1631204181937,5.93
1631204181953,2.91
1631204181968,0.26
1631204181984,-2.21
1631204182000,-4.59
1631204182015,-6.91
1631204182031,-9.06
1631204182046,-10.94
1631204182062,-12.49
1631204182078,-13.74
1631204182093,-14.85
1631204182109,-16.0
1631204182125,-17.42
1631204182140,-19.19
1631204182156,-21.28
1631204182171,-23.48
1631204182187,-25.52
1631204182203,-27.2
1631204182218,-28.53
1631204182234,-29.67
1631204182250,-30.95
1631204182265,-32.66
1631204182281,-35.01
1631204182296,-38.04
1631204182312,-41.65
1631204182328,-45.56
1631204182343,-49.33
1631204182359,-52.33
1631204182375,-53.8
1631204182390,-53.01
1631204182406,-49.51
1631204182421,-43.33
1631204182437,-35.05
1631204182453,-25.66
1631204182468,-16.32
1631204182484,-8.0
1631204182500,-1.32
1631204182515,3.48
1631204182531,6.48
1631204182546,7.89
1631204182562,7.93
1631204182578,6.86
1631204182593,5.05
1631204182609,3.07
1631204182625,1.72
1631204182640,1.81
1631204182656,4.02
1631204182671,8.64
1631204182687,15.45
1631204182703,23.88
1631204182718,33.13
1631204182734,42.46
1631204182750,51.33
1631204182765,59.39
1631204182781,66.36
1631204182796,71.96
1631204182812,75.79
1631204182828,77.44
1631204182843,76.64
1631204182859,73.44
1631204182875,68.25
1631204182890,61.79
1631204182906,54.87
1631204182921,48.21
1631204182937,42.14
1631204182953,36.66
1631204182968,31.46
1631204182984,26.11
1631204183000,20.29
1631204183015,13.89
1631204183031,7.04
1631204183046,-0.01
1631204183062,-6.91
1631204183078,-13.41
1631204183093,-19.35
1631204183109,-24.82
1631204183125,-30.02
1631204183140,-35.24
1631204183156,-40.72
1631204183171,-46.57
1631204183187,-52.65
1631204183203,-58.58
1631204183218,-63.73
1631204183234,-67.35
1631204183250,-68.72
1631204183265,-67.32
1631204183281,-63.0
1631204183296,-56.03
1631204183312,-47.16
1631204183328,-37.46
1631204183343,-28.07
1631204183359,-19.94
1631204183375,-13.62
1631204183390,-9.16
1631204183406,-6.28
1631204183421,-4.49
1631204183437,-3.43
1631204183453,-2.91
1631204183468,-2.92
1631204183484,-3.36
1631204183500,-3.99
1631204183515,-4.21
1631204183531,-3.26
1631204183546,-0.46
1631204183562,4.56
1631204183578,11.66
1631204183593,20.33
1631204183609,29.8
1631204183625,39.35
1631204183640,48.35
1631204183656,56.28
1631204183671,62.67
1631204183687,67.04
1631204183703,69.01
1631204183718,68.38
1631204183734,65.33
1631204183750,60.36
1631204183765,54.2
1631204183781,47.6
1631204183796,41.11
1631204183812,35.0
1631204183828,29.25
1631204183843,23.67
1631204183859,18.01
1631204183875,12.07
1631204183890,5.78
1631204183906,-0.76
1631204183921,-7.33
1631204183937,-13.62
1631204183953,-19.35
1631204183968,-24.38
1631204183984,-28.74
1631204184000,-32.67
1631204184015,-36.57
1631204184031,-40.81
1631204184046,-45.64
1631204184062,-50.93
1631204184078,-56.14
1631204184093,-60.3
1631204184109,-62.33
1631204184125,-61.35
1631204184140,-57.01
1631204184156,-49.66
1631204184171,-40.28
1631204184187,-30.08
1631204184203,-20.22
1631204184218,-11.48
1631204184234,-4.22
1631204184250,1.53
1631204184265,5.85
1631204184281,8.84
1631204184296,10.58
1631204184312,11.19
1631204184328,10.94
1631204184343,10.25
1631204184359,9.64
1631204184375,9.58
1631204184390,10.37
1631204184406,12.09
1631204184421,14.58
1631204184437,17.56
1631204184453,20.7
1631204184468,23.79
1631204184484,26.71
1631204184500,29.44
1631204184515,31.86
1631204184531,33.75
1631204184546,34.77
1631204184562,34.59
1631204184578,33.09
1631204184593,30.4
1631204184609,26.96
1631204184625,23.26
1631204184640,19.75
1631204184656,16.63
1631204184671,13.86
1631204184687,11.18
1631204184703,8.34
1631204184718,5.08
1631204184734,1.26
1631204184750,-3.17
1631204184765,-8.13
1631204184781,-13.42
1631204184796,-18.71
1631204184812,-23.66
1631204184828,-28.05
1631204184843,-31.92
1631204184859,-35.58
1631204184875,-39.48
1631204184890,-44.06
1631204184906,-49.45
1631204184921,-55.34
1631204184937,-60.91
1631204184953,-65.08
1631204184968,-66.77
1631204184984,-65.27
1631204185000,-60.47
1631204185015,-52.88
1631204185031,-43.45
1631204185046,-33.32
1631204185062,-23.48
1631204185078,-14.67
1631204185093,-7.25
1631204185109,-1.33
1631204185125,3.15
1631204185140,6.36
1631204185156,8.47
1631204185171,9.68
1631204185187,10.12
1631204185203,9.96
1631204185218,9.37
1631204185234,8.62
1631204185250,8.05
1631204185265,8.04
1631204185281,8.92
1631204185296,10.84
1631204185312,13.8
1631204185328,17.65
1631204185343,22.17
1631204185359,27.1
1631204185375,32.19
1631204185390,37.1
1631204185406,41.46
1631204185421,44.93
1631204185437,47.3
1631204185453,48.51
1631204185468,48.67
1631204185484,47.93
1631204185500,46.37
1631204185515,44.03
1631204185531,40.9
1631204185546,37.06
1631204185562,32.7
1631204185578,28.0
1631204185593,23.1
1631204185609,18.01
1631204185625,12.67
1631204185640,7.08
1631204185656,1.39
1631204185671,-4.11
1631204185687,-9.12
1631204185703,-13.53
1631204185718,-17.52
1631204185734,-21.47
1631204185750,-25.87
1631204185765,-31.02
1631204185781,-36.98
1631204185796,-43.42
1631204185812,-49.74
1631204185828,-55.1
1631204185843,-58.61
1631204185859,-59.55
1631204185875,-57.51
1631204185890,-52.64
1631204185906,-45.49
1631204185921,-36.94
1631204185937,-27.89
1631204185953,-19.06
1631204185968,-10.93
1631204185984,-3.75
1631204186000,2.31
1631204186015,7.17
1631204186031,10.76
1631204186046,13.08
1631204186062,14.27
1631204186078,14.61
1631204186093,14.44
1631204186109,14.12
1631204186125,13.92
1631204186140,13.99
1631204186156,14.38
1631204186171,15.06
1631204186187,16.01
1631204186203,17.19
1631204186218,18.56
1631204186234,20.04
1631204186250,21.42
1631204186265,22.46
1631204186281,22.87
1631204186296,22.51
1631204186312,21.41
1631204186328,19.85
1631204186343,18.22
1631204186359,16.95
1631204186375,16.38
1631204186390,16.63
1631204186406,17.6
1631204186421,18.96
1631204186437,20.18
1631204186453,20.71
1631204186468,20.08
1631204186484,18.05
1631204186500,14.7
1631204186515,10.45
1631204186531,5.86
1631204186546,1.51
1631204186562,-2.2
1631204186578,-5.1
1631204186593,-7.33
1631204186609,-9.24
1631204186625,-11.32
1631204186640,-14.1
1631204186656,-17.9
1631204186671,-22.7
1631204186687,-28.01
1631204186703,-32.88
1631204186718,-36.18
1631204186734,-36.95
1631204186750,-34.74
1631204186765,-29.78
1631204186781,-22.94
1631204186796,-15.37
1631204186812,-8.2
1631204186828,-2.17
1631204186843,2.39
1631204186859,5.52
1631204186875,7.45
1631204186890,8.43
1631204186906,8.66
1631204186921,8.36
1631204186937,7.74
1631204186953,7.06
1631204186968,6.59
1631204186984,6.55
1631204187000,6.97
1631204187015,7.75
1631204187031,8.66
1631204187046,9.46
1631204187062,10.05
1631204187078,10.46
1631204187093,10.87
1631204187109,11.49
1631204187125,12.41
1631204187140,13.52
1631204187156,14.54
1631204187171,15.07
1631204187187,14.79
1631204187203,13.56
1631204187218,11.51
1631204187234,9.01
1631204187250,6.55
1631204187265,4.62
1631204187281,3.52
1631204187296,3.37
1631204187312,4.01
1631204187328,5.09
1631204187343,6.12
1631204187359,6.56
1631204187375,5.98
1631204187390,4.17
1631204187406,1.27
1631204187421,-2.31
1631204187437,-5.99
1631204187453,-9.28
1631204187468,-11.96
1631204187484,-14.19
1631204187500,-16.44
1631204187515,-19.24
1631204187531,-22.87
1631204187546,-27.13
1631204187562,-31.31
1631204187578,-34.37
1631204187593,-35.33
1631204187609,-33.62
1631204187625,-29.32
1631204187640,-23.12
1631204187656,-16.06
1631204187671,-9.18
1631204187687,-3.24
1631204187703,1.39
1631204187718,4.66
1631204187734,6.68
1631204187750,7.56
1631204187765,7.45
1631204187781,6.59
1631204187796,5.34
1631204187812,4.19
1631204187828,3.63
1631204187843,3.95
1631204187859,5.17
1631204187875,7.04
1631204187890,9.18
1631204187906,11.21
1631204187921,12.88
1631204187937,14.05
1631204187953,14.72
1631204187968,14.92
1631204187984,14.78
1631204188000,14.44
1631204188015,14.03
1631204188031,13.62
1631204188046,13.18
1631204188062,12.57
1631204188078,11.62
1631204188093,10.2
1631204188109,8.34
1631204188125,6.18
1631204188140,3.97
1631204188156,1.98
1631204188171,0.39
1631204188187,-0.66
1631204188203,-1.18
1631204188218,-1.24
1631204188234,-0.96
1631204188250,-0.54
1631204188265,-0.18
1631204188281,-0.07
1631204188296,-0.34
1631204188312,-1.02
1631204188328,-2.0
1631204188343,-3.16
1631204188359,-4.48
1631204188375,-6.11
1631204188390,-8.39
1631204188406,-11.69
1631204188421,-16.08
1631204188437,-21.16
1631204188453,-25.99
1631204188468,-29.38
1631204188484,-30.31
1631204188500,-28.38
1631204188515,-23.93
1631204188531,-17.87
1631204188546,-11.34
1631204188562,-5.23
1631204188578,-0.04
1631204188593,4.13
1631204188609,7.35
1631204188625,9.64
1631204188640,10.98
1631204188656,11.35
1631204188671,10.83
1631204188687,9.75
1631204188703,8.55
1631204188718,7.66
1631204188734,7.4
1631204188750,7.8
1631204188765,8.65
1631204188781,9.66
1631204188796,10.57
1631204188812,11.24
1631204188828,11.71
1631204188843,12.07
1631204188859,12.41
1631204188875,12.79
1631204188890,13.17
1631204188906,13.49
1631204188921,13.74
1631204188937,13.92
1631204188953,13.99
1631204188968,13.88
1631204188984,13.45
1631204189000,12.59
1631204189015,11.32
1631204189031,9.82
1631204189046,8.4
1631204189062,7.37
1631204189078,6.94
1631204189093,7.14
1631204189109,7.81
1631204189125,8.67
1631204189140,9.43
1631204189156,9.8
1631204189171,9.61
1631204189187,8.76
1631204189203,7.27
1631204189218,5.2
1631204189234,2.57
1631204189250,-0.73
1631204189265,-4.89
1631204189281,-10.04
1631204189296,-16.13
1631204189312,-22.72
1631204189328,-28.99
1631204189343,-34.04
1631204189359,-37.04
1631204189375,-37.55
1631204189390,-35.6
1631204189406,-31.65
1631204189421,-26.37
1631204189437,-20.48
1631204189453,-14.55
1631204189468,-9.02
1631204189484,-4.19
1631204189500,-0.26
1631204189515,2.59
1631204189531,4.28
1631204189546,4.83
1631204189562,4.49
1631204189578,3.66
1631204189593,2.83
1631204189609,2.41
1631204189625,2.63
1631204189640,3.48
1631204189656,4.76
1631204189671,6.25
1631204189687,7.71
1631204189703,9.05
1631204189718,10.28
1631204189734,11.43
1631204189750,12.51
1631204189765,13.46
1631204189781,14.14
1631204189796,14.37
1631204189812,14.01
1631204189828,13.03
1631204189843,11.53
1631204189859,9.74
1631204189875,7.99
1631204189890,6.56
1631204189906,5.61
1631204189921,5.13
1631204189937,4.9
1631204189953,4.65
1631204189968,4.07
1631204189984,2.96
1631204190000,1.27
1631204190015,-0.82
1631204190031,-2.97
1631204190046,-4.78
1631204190062,-5.92
1631204190078,-6.39
1631204190093,-6.49
1631204190109,-6.84
1631204190125,-8.17
1631204190140,-11.0
1631204190156,-15.43
1631204190171,-21.0
1631204190187,-26.74
1631204190203,-31.43
1631204190218,-33.96
1631204190234,-33.62
1631204190250,-30.32
1631204190265,-24.55
1631204190281,-17.18
1631204190296,-9.23
1631204190312,-1.66
1631204190328,4.88
1631204190343,9.96
1631204190359,13.42
1631204190375,15.28
1631204190390,15.7
1631204190406,14.97
1631204190421,13.49
1631204190437,11.61
1631204190453,9.63
1631204190468,7.69
1631204190484,5.86
1631204190500,4.19
1631204190515,2.78
1631204190531,1.78
1631204190546,1.34
1631204190562,1.54
1631204190578,2.33
1631204190593,3.5
1631204190609,4.77
1631204190625,5.88
1631204190640,6.6
1631204190656,6.8
1631204190671,6.46
1631204190687,5.57
1631204190703,4.21
1631204190718,2.53
1631204190734,0.73
1631204190750,-1.0
1631204190765,-2.49
1631204190781,-3.7
1631204190796,-4.7
1631204190812,-5.61
1631204190828,-6.6
1631204190843,-7.8
1631204190859,-9.24
1631204190875,-10.88
1631204190890,-12.62
1631204190906,-14.3
1631204190921,-15.72
1631204190937,-16.64
1631204190953,-16.88
1631204190968,-16.43
1631204190984,-15.43
1631204191000,-14.27
1631204191015,-13.4
1631204191031,-13.26
1631204191046,-14.08
1631204191062,-15.7
1631204191078,-17.71
1631204191093,-19.46
1631204191109,-20.32
1631204191125,-19.78
1631204191140,-17.63
1631204191156,-13.96
1631204191171,-9.07
1631204191187,-3.44
1631204191203,2.4
1631204191218,7.9
1631204191234,12.61
1631204191250,16.17
1631204191265,18.46
1631204191281,19.49
1631204191296,19.45
1631204191312,18.6
1631204191328,17.18
1631204191343,15.43
1631204191359,13.52
1631204191375,11.66
1631204191390,10.01
1631204191406,8.69
1631204191421,7.81
1631204191437,7.37
1631204191453,7.36
1631204191468,7.74
1631204191484,8.44
1631204191500,9.34
1631204191515,10.25
1631204191531,10.94
1631204191546,11.22
1631204191562,10.99
1631204191578,10.3
1631204191593,9.31
1631204191609,8.18
1631204191625,7.03
1631204191640,5.88
1631204191656,4.75
1631204191671,3.63
1631204191687,2.64
1631204191703,1.88
1631204191718,1.4
1631204191734,1.11
1631204191750,0.74
1631204191765,0.02
1631204191781,-1.25
1631204191796,-3.02
1631204191812,-4.99
1631204191828,-6.79
1631204191843,-8.04
1631204191859,-8.62
1631204191875,-8.65
1631204191890,-8.56
1631204191906,-8.92
1631204191921,-10.27
1631204191937,-12.96
1631204191953,-16.97
1631204191968,-21.83
1631204191984,-26.67
1631204192000,-30.37
1631204192015,-31.86
1631204192031,-30.45
1631204192046,-26.02
1631204192062,-19.07
1631204192078,-10.56
1631204192093,-1.64
1631204192109,6.64
1631204192125,13.57
1631204192140,18.76
1631204192156,22.16
1631204192171,23.92
1631204192187,24.28
1631204192203,23.52
1631204192218,21.95
1631204192234,19.83
1631204192250,17.42
1631204192265,14.9
1631204192281,12.43
1631204192296,10.17
1631204192312,8.25
1631204192328,6.78
1631204192343,5.82
1631204192359,5.37
1631204192375,5.37
1631204192390,5.68
1631204192406,6.19
1631204192421,6.77
1631204192437,7.28
1631204192453,7.58
1631204192468,7.52
1631204192484,7.01
1631204192500,6.0
1631204192515,4.61
1631204192531,3.03
1631204192546,1.54
1631204192562,0.31
1631204192578,-0.59
1631204192593,-1.29
1631204192609,-2.08
1631204192625,-3.26
1631204192640,-4.97
1631204192656,-7.18
1631204192671,-9.61
1631204192687,-11.92
1631204192703,-13.84
1631204192718,-15.29
1631204192734,-16.43
1631204192750,-17.52
1631204192765,-18.86
1631204192781,-20.74
1631204192796,-23.32
1631204192812,-26.64
1631204192828,-30.55
1631204192843,-34.62
1631204192859,-38.11
1631204192875,-40.1
1631204192890,-39.72
1631204192906,-36.45
1631204192921,-30.38
1631204192937,-22.25
1631204192953,-13.15
1631204192968,-4.27
1631204192984,3.48
1631204193000,9.64
1631204193015,14.16
1631204193031,17.19
1631204193046,18.95
1631204193062,19.66
1631204193078,19.52
1631204193093,18.83
1631204193109,17.94
1631204193125,17.22
1631204193140,16.93
1631204193156,17.15
1631204193171,17.73
1631204193187,18.44
1631204193203,19.06
1631204193218,19.47
1631204193234,19.67
1631204193250,19.71
1631204193265,19.63
1631204193281,19.43
1631204193296,19.04
1631204193312,18.35
1631204193328,17.24
1631204193343,15.65
1631204193359,13.61
1631204193375,11.24
1631204193390,8.75
1631204193406,6.35
1631204193421,4.22
1631204193437,2.43
1631204193453,0.93
1631204193468,-0.4
1631204193484,-1.75
1631204193500,-3.22
1631204193515,-4.85
1631204193531,-6.61
1631204193546,-8.43
1631204193562,-10.27
1631204193578,-12.14
1631204193593,-14.07
1631204193609,-16.15
1631204193625,-18.46
1631204193640,-21.11
1631204193656,-24.23
1631204193671,-27.92
1631204193687,-32.1
1631204193703,-36.37
1631204193718,-39.93
1631204193734,-41.81
1631204193750,-41.14
1631204193765,-37.52
1631204193781,-31.24
1631204193796,-23.2
1631204193812,-14.49
1631204193828,-6.13
1631204193843,1.27
1631204193859,7.47
1631204193875,12.46
1631204193890,16.25
1631204193906,18.79
1631204193921,20.06
1631204193937,20.16
1631204193953,19.42
1631204193968,18.32
1631204193984,17.35
1631204194000,16.82
1631204194015,16.81
1631204194031,17.19
1631204194046,17.74
1631204194062,18.24
1631204194078,18.61
1631204194093,18.86
1631204194109,19.12
1631204194125,19.47
1631204194140,19.89
1631204194156,20.19
1631204194171,20.13
1631204194187,19.45
1631204194203,18.06
1631204194218,16.01
1631204194234,13.55
1631204194250,10.98
1631204194265,8.57
1631204194281,6.45
1631204194296,4.63
1631204194312,2.94
1631204194328,1.21
1631204194343,-0.76
1631204194359,-3.01
1631204194375,-5.47
1631204194390,-7.92
1631204194406,-10.09
1631204194421,-11.84
1631204194437,-13.2
1631204194453,-14.4
1631204194468,-15.81
1631204194484,-17.83
1631204194500,-20.68
1631204194515,-24.36
1631204194531,-28.55
1631204194546,-32.64
1631204194562,-35.77
1631204194578,-37.02
1631204194593,-35.71
1631204194609,-31.54
1631204194625,-24.84
1631204194640,-16.44
1631204194656,-7.45
1631204194671,0.99
1631204194687,8.1
1631204194703,13.5
1631204194718,17.23
1631204194734,19.57
1631204194750,20.84
1631204194765,21.31
1631204194781,21.17
1631204194796,20.62
1631204194812,19.87
1631204194828,19.19
1631204194843,18.78
1631204194859,18.75
1631204194875,18.99
1631204194890,19.27
1631204194906,19.35
1631204194921,19.09
1631204194937,18.53
1631204194953,17.87
1631204194968,17.34
1631204194984,17.02
1631204195000,16.82
1631204195015,16.48
1631204195031,15.74
1631204195046,14.44
1631204195062,12.56
1631204195078,10.29
1631204195093,7.8
1631204195109,5.28
1631204195125,2.82
1631204195140,0.45
1631204195156,-1.8
1631204195171,-3.89
1631204195187,-5.75
1631204195203,-7.31
1631204195218,-8.59
1631204195234,-9.67
1631204195250,-10.8
1631204195265,-12.28
1631204195281,-14.45
1631204195296,-17.52
1631204195312,-21.5
1631204195328,-26.05
1631204195343,-30.49
1631204195359,-33.9
1631204195375,-35.35
1631204195390,-34.17
1631204195406,-30.19
1631204195421,-23.82
1631204195437,-15.95
1631204195453,-7.64
1631204195468,0.15
1631204195484,6.78
1631204195500,11.98
1631204195515,15.76
1631204195531,18.26
1631204195546,19.64
1631204195562,20.06
1631204195578,19.73
1631204195593,18.93
1631204195609,18.01
1631204195625,17.33
1631204195640,17.12
1631204195656,17.4
1631204195671,18.05
1631204195687,18.84
1631204195703,19.54
1631204195718,19.96
1631204195734,20.03
1631204195750,19.71
1631204195765,19.0
1631204195781,17.92
1631204195796,16.49
1631204195812,14.79
1631204195828,12.9
1631204195843,10.92
1631204195859,8.93
1631204195875,6.97
1631204195890,5.01
1631204195906,2.99
1631204195921,0.83
1631204195937,-1.48
1631204195953,-3.91
1631204195968,-6.33
1631204195984,-8.64
1631204196000,-10.81
1631204196015,-12.91
1631204196031,-15.11
1631204196046,-17.61
1631204196062,-20.53
1631204196078,-23.85
1631204196093,-27.36
1631204196109,-30.69
1631204196125,-33.32
1631204196140,-34.69
1631204196156,-34.25
1631204196171,-31.65
1631204196187,-26.85
1631204196203,-20.21
1631204196218,-12.43
1631204196234,-4.42
1631204196250,2.95
1631204196265,9.02
1631204196281,13.49
1631204196296,16.38
1631204196312,17.95
1631204196328,18.54
1631204196343,18.5
1631204196359,18.1
1631204196375,17.56
1631204196390,17.04
1631204196406,16.73
1631204196421,16.75
1631204196437,17.17
1631204196453,17.94
1631204196468,18.9
1631204196484,19.81
1631204196500,20.44
1631204196515,20.62
1631204196531,20.27
1631204196546,19.44
1631204196562,18.18
1631204196578,16.55
1631204196593,14.59
1631204196609,12.36
1631204196625,9.93
1631204196640,7.41
1631204196656,4.89
1631204196671,2.43
1631204196687,0.05
1631204196703,-2.26
1631204196718,-4.47
1631204196734,-6.49
1631204196750,-8.24
1631204196765,-9.65
1631204196781,-10.77
1631204196796,-11.75
1631204196812,-12.86
1631204196828,-14.42
1631204196843,-16.72
1631204196859,-19.87
1631204196875,-23.72
1631204196890,-27.84
1631204196906,-31.54
1631204196921,-33.97
1631204196937,-34.38
1631204196953,-32.33
1631204196968,-27.84
1631204196984,-21.44
1631204197000,-13.97
1631204197015,-6.34
1631204197031,0.68
1631204197046,6.63
1631204197062,11.31
1631204197078,14.71
1631204197093,16.91
1631204197109,18.03
1631204197125,18.23
1631204197140,17.78
1631204197156,17.0
1631204197171,16.21
1631204197187,15.75
1631204197203,15.79
1631204197218,16.35
1631204197234,17.3
1631204197250,18.42
1631204197265,19.47
1631204197281,20.25
1631204197296,20.59
1631204197312,20.4
1631204197328,19.63
1631204197343,18.29
1631204197359,16.45
1631204197375,14.24
1631204197390,11.83
1631204197406,9.4
1631204197421,7.09
1631204197437,4.93
1631204197453,2.9
1631204197468,0.92
1631204197484,-1.11
1631204197500,-3.24
1631204197515,-5.46
1631204197531,-7.71
1631204197546,-9.82
1631204197562,-11.64
1631204197578,-13.03
1631204197593,-14.03
1631204197609,-14.84
1631204197625,-15.85
1631204197640,-17.51
1631204197656,-20.08
1631204197671,-23.48
1631204197687,-27.15
1631204197703,-30.19
1631204197718,-31.62
1631204197734,-30.76
1631204197750,-27.44
1631204197765,-22.05
1631204197781,-15.4
1631204197796,-8.4
1631204197812,-1.8
1631204197828,3.93
1631204197843,8.55
1631204197859,11.97
1631204197875,14.14
1631204197890,14.97
1631204197906,14.51
1631204197921,12.93
1631204197937,10.64
1631204197953,8.16
1631204197968,6.06
1631204197984,4.79
1631204198000,4.55
1631204198015,5.25
1631204198031,6.61
1631204198046,8.2
1631204198062,9.61
1631204198078,10.55
1631204198093,10.87
1631204198109,10.63
1631204198125,9.95
1631204198140,9.01
1631204198156,7.93
1631204198171,6.75
1631204198187,5.46
1631204198203,4.0
1631204198218,2.31
1631204198234,0.36
1631204198250,-1.84
1631204198265,-4.21
1631204198281,-6.62
1631204198296,-8.93
1631204198312,-11.0
1631204198328,-12.75
1631204198343,-14.21
1631204198359,-15.47
1631204198375,-16.74
1631204198390,-18.3
1631204198406,-20.34
1631204198421,-22.89
1631204198437,-25.7
1631204198453,-28.25
1631204198468,-29.82
1631204198484,-29.76
1631204198500,-27.58
1631204198515,-23.25
1631204198531,-17.16
1631204198546,-10.04
1631204198562,-2.76
1631204198578,3.87
1631204198593,9.29
1631204198609,13.24
1631204198625,15.67
1631204198640,16.73
1631204198656,16.65
1631204198671,15.67
1631204198687,14.1
1631204198703,12.25
1631204198718,10.45
1631204198734,9.02
1631204198750,8.25
1631204198765,8.21
1631204198781,8.83
1631204198796,9.87
1631204198812,10.95
1631204198828,11.77
1631204198843,12.07
1631204198859,11.8
1631204198875,11.05
1631204198890,10.0
1631204198906,8.77
1631204198921,7.45
1631204198937,6.02
1631204198953,4.35
1631204198968,2.39
1631204198984,0.11
1631204199000,-2.44
1631204199015,-5.1
1631204199031,-7.73
1631204199046,-10.2
1631204199062,-12.42
1631204199078,-14.36
1631204199093,-16.01
1631204199109,-17.43
1631204199125,-18.78
1631204199140,-20.33
1631204199156,-22.42
1631204199171,-25.29
1631204199187,-28.95
1631204199203,-33.01
1631204199218,-36.7
1631204199234,-39.09
1631204199250,-39.29
1631204199265,-36.75
1631204199281,-31.45
1631204199296,-23.88
1631204199312,-14.96
1631204199328,-5.75
1631204199343,2.76
1631204199359,9.86
1631204199375,15.2
1631204199390,18.79
1631204199406,20.82
1631204199421,21.64
1631204199437,21.66
1631204199453,21.3
1631204199468,20.92
1631204199484,20.82
1631204199500,21.1
1631204199515,21.69
1631204199531,22.39
1631204199546,22.97
1631204199562,23.27
1631204199578,23.27
1631204199593,23.09
1631204199609,22.84
1631204199625,22.55
1631204199640,22.13
1631204199656,21.42
1631204199671,20.25
1631204199687,18.57
1631204199703,16.41
1631204199718,13.91
1631204199734,11.3
1631204199750,8.79
1631204199765,6.54
1631204199781,4.56
1631204199796,2.69
1631204199812,0.68
1631204199828,-1.66
1631204199843,-4.4
1631204199859,-7.36
1631204199875,-10.22
1631204199890,-12.68
1631204199906,-14.6
1631204199921,-16.1
1631204199937,-17.51
1631204199953,-19.25
1631204199968,-21.71
1631204199984,-25.07
1631204200000,-29.22
1631204200015,-33.7
1631204200031,-37.73
1631204200046,-40.31
1631204200062,-40.51
1631204200078,-37.8
1631204200093,-32.22
1631204200109,-24.44
1631204200125,-15.6
1631204200140,-6.91
1631204200156,0.68
1631204200171,6.73
1631204200187,11.28
1631204200203,14.68
1631204200218,17.33
1631204200234,19.51
1631204200250,21.28
1631204200265,22.61
1631204200281,23.51
1631204200296,24.03
1631204200312,24.33
1631204200328,24.57
1631204200343,24.81
1631204200359,25.02
1631204200375,25.08
1631204200390,24.95
1631204200406,24.67
1631204200421,24.35
1631204200437,24.12
1631204200453,24.01
1631204200468,23.88
1631204200484,23.53
1631204200500,22.69
1631204200515,21.23
1631204200531,19.13
1631204200546,16.58
1631204200562,13.83
1631204200578,11.16
1631204200593,8.77
1631204200609,6.7
1631204200625,4.84
1631204200640,2.97
1631204200656,0.92
1631204200671,-1.4
1631204200687,-3.92
1631204200703,-6.53
1631204200718,-9.08
1631204200734,-11.47
1631204200750,-13.71
1631204200765,-15.9
1631204200781,-18.16
1631204200796,-20.64
1631204200812,-23.56
1631204200828,-27.03
1631204200843,-31.02
1631204200859,-35.19
1631204200875,-38.84
1631204200890,-41.03
1631204200906,-40.86
1631204200921,-37.84
1631204200937,-32.11
1631204200953,-24.42
1631204200968,-15.87
1631204200984,-7.55
1631204201000,-0.21
1631204201015,5.89
1631204201031,10.8
1631204201046,14.71
1631204201062,17.72
1631204201078,19.87
1631204201093,21.1
1631204201109,21.46
1631204201125,21.13
1631204201140,20.43
1631204201156,19.68
1631204201171,19.12
1631204201187,18.87
1631204201203,18.89
1631204201218,19.03
1631204201234,19.14
1631204201250,19.08
1631204201265,18.81
1631204201281,18.39
1631204201296,17.93
1631204201312,17.55
1631204201328,17.31
1631204201343,17.14
1631204201359,16.87
1631204201375,16.3
1631204201390,15.26
1631204201406,13.71
1631204201421,11.79
1631204201437,9.69
1631204201453,7.65
1631204201468,5.79
1631204201484,4.12
1631204201500,2.51
1631204201515,0.82
1631204201531,-1.09
1631204201546,-3.29
1631204201562,-5.77
1631204201578,-8.42
1631204201593,-11.09
1631204201609,-13.58
1631204201625,-15.77
1631204201640,-17.59
1631204201656,-19.17
1631204201671,-20.78
1631204201687,-22.75
1631204201703,-25.38
1631204201718,-28.7
1631204201734,-32.43
1631204201750,-35.94
1631204201765,-38.4
1631204201781,-39.0
1631204201796,-37.18
1631204201812,-32.83
1631204201828,-26.31
1631204201843,-18.4
1631204201859,-10.03
1631204201875,-2.06
1631204201890,4.89
1631204201906,10.47
1631204201921,14.59
1631204201937,17.32
1631204201953,18.82
1631204201968,19.35
1631204201984,19.19
1631204202000,18.65
1631204202015,18.0
1631204202031,17.42
1631204202046,16.97
1631204202062,16.66
1631204202078,16.5
1631204202093,16.57
1631204202109,16.99
1631204202125,17.78
1631204202140,18.84
1631204202156,19.91
1631204202171,20.63
1631204202187,20.72
1631204202203,20.1
1631204202218,18.91
1631204202234,17.43
1631204202250,15.96
1631204202265,14.64
1631204202281,13.44
1631204202296,12.2
1631204202312,10.74
1631204202328,8.98
1631204202343,6.95
1631204202359,4.79
1631204202375,2.61
1631204202390,0.51
1631204202406,-1.51
1631204202421,-3.48
1631204202437,-5.48
1631204202453,-7.47
1631204202468,-9.41
1631204202484,-11.19
1631204202500,-12.71
1631204202515,-13.95
1631204202531,-15.03
1631204202546,-16.11
1631204202562,-17.41
1631204202578,-19.12
1631204202593,-21.38
1631204202609,-24.26
1631204202625,-27.71
1631204202640,-31.5
1631204202656,-35.2
1631204202671,-38.09
1631204202687,-39.35
1631204202703,-38.33
1631204202718,-34.71
1631204202734,-28.76
1631204202750,-21.18
1631204202765,-12.96
1631204202781,-5.07
1631204202796,1.77
1631204202812,7.21
1631204202828,11.18
1631204202843,13.83
1631204202859,15.38
1631204202875,16.08
1631204202890,16.12
1631204202906,15.68
1631204202921,14.94
1631204202937,14.08
1631204202953,13.32
1631204202968,12.88
1631204202984,12.94
1631204203000,13.51
1631204203015,14.49
1631204203031,15.65
1631204203046,16.71
1631204203062,17.5
1631204203078,17.93
1631204203093,18.08
1631204203109,17.98
1631204203125,17.68
1631204203140,17.12
1631204203156,16.24
1631204203171,14.97
1631204203187,13.36
1631204203203,11.58
1631204203218,9.86
1631204203234,8.39
1631204203250,7.27
1631204203265,6.4
1631204203281,5.59
1631204203296,4.59
1631204203312,3.24
1631204203328,1.51
1631204203343,-0.49
1631204203359,-2.59
1631204203375,-4.61
1631204203390,-6.43
1631204203406,-7.98
1631204203421,-9.32
1631204203437,-10.52
1631204203453,-11.73
1631204203468,-13.13
1631204203484,-14.94
1631204203500,-17.34
1631204203515,-20.42
1631204203531,-24.06
1631204203546,-27.86
1631204203562,-31.11
1631204203578,-32.98
1631204203593,-32.7
1631204203609,-29.85
1631204203625,-24.52
1631204203640,-17.35
1631204203656,-9.31
1631204203671,-1.45
1631204203687,5.43
1631204203703,10.9
1631204203718,14.84
1631204203734,17.39
1631204203750,18.71
1631204203765,18.95
1631204203781,18.27
1631204203796,16.92
1631204203812,15.22
1631204203828,13.6
1631204203843,12.42
1631204203859,11.87
1631204203875,11.95
1631204203890,12.42
1631204203906,13.01
1631204203921,13.47
1631204203937,13.74
1631204203953,13.92
1631204203968,14.16
1631204203984,14.58
1631204204000,15.13
1631204204015,15.58
1631204204031,15.65
1631204204046,15.12
1631204204062,13.92
1631204204078,12.15
1631204204093,10.04
1631204204109,7.88
1631204204125,5.94
1631204204140,4.42
1631204204156,3.45
1631204204171,3.04
1631204204187,3.09
1631204204203,3.39
1631204204218,3.67
1631204204234,3.76
1631204204250,3.66
1631204204265,3.64
1631204204281,4.07
1631204204296,5.28
1631204204312,7.39
1631204204328,10.16
1631204204343,13.13
1631204204359,15.68
1631204204375,17.37
1631204204390,18.02
1631204204406,17.83
1631204204421,17.39
1631204204437,17.52
1631204204453,19.15
1631204204468,23.0
1631204204484,29.41
1631204204500,38.06
1631204204515,47.96
1631204204531,57.46
1631204204546,64.72
1631204204562,68.1
1631204204578,66.64
1631204204593,60.24
1631204204609,49.59
1631204204625,35.87
1631204204640,20.34
1631204204656,4.11
1631204204671,-12.05
1631204204687,-27.7
1631204204703,-42.49
1631204204718,-56.12
1631204204734,-68.22
1631204204750,-78.3
1631204204765,-85.9
1631204204781,-90.65
1631204204796,-92.35
1631204204812,-91.09
1631204204828,-87.27
1631204204843,-81.46
1631204204859,-74.36
1631204204875,-66.58
1631204204890,-58.66
1631204204906,-50.97
1631204204921,-43.84
1631204204937,-37.52
1631204204953,-32.18
1631204204968,-27.82
1631204204984,-24.3
1631204205000,-21.37
1631204205015,-18.75
1631204205031,-16.3
1631204205046,-14.05
1631204205062,-12.18
1631204205078,-10.9
1631204205093,-10.31
1631204205109,-10.33
1631204205125,-10.72
1631204205140,-11.18
1631204205156,-11.46
1631204205171,-11.48
1631204205187,-11.38
1631204205203,-11.42
1631204205218,-11.98
1631204205234,-13.36
1631204205250,-15.74
1631204205265,-19.05
1631204205281,-22.97
1631204205296,-26.88
1631204205312,-29.98
1631204205328,-31.46
1631204205343,-30.67
1631204205359,-27.32
1631204205375,-21.62
1631204205390,-14.26
1631204205406,-6.21
1631204205421,1.51
1631204205437,8.16
1631204205453,13.38
1631204205468,17.23
1631204205484,19.93
1631204205500,21.69
1631204205515,22.6
1631204205531,22.65
1631204205546,21.92
1631204205562,20.61
1631204205578,19.17
1631204205593,18.09
1631204205609,17.75
1631204205625,18.31
1631204205640,19.62
1631204205656,21.37
1631204205671,23.2
1631204205687,24.9
1631204205703,26.39
1631204205718,27.77
1631204205734,29.17
1631204205750,30.62
1631204205765,32.02
1631204205781,33.1
1631204205796,33.57
1631204205812,33.25
1631204205828,32.27
1631204205843,31.02
1631204205859,30.1
1631204205875,29.97
1631204205890,30.77
1631204205906,32.19
1631204205921,33.6
1631204205937,34.36
1631204205953,34.09
1631204205968,32.86
1631204205984,31.14
1631204206000,29.6
1631204206015,28.87
1631204206031,29.29
1631204206046,30.79
1631204206062,32.82
1631204206078,34.31
1631204206093,33.87
1631204206109,30.0
1631204206125,21.61
1631204206140,8.43
1631204206156,-8.62
1631204206171,-27.53
1631204206187,-45.73
1631204206203,-60.82
1631204206218,-71.32
1631204206234,-76.96
1631204206250,-78.61
1631204206265,-77.7
1631204206281,-75.6
1631204206296,-73.17
1631204206312,-70.69
1631204206328,-67.97
1631204206343,-64.74
1631204206359,-60.85
1631204206375,-56.3
1631204206390,-51.27
1631204206406,-45.89
1631204206421,-40.24
1631204206437,-34.36
1631204206453,-28.25
1631204206468,-22.05
1631204206484,-15.99
1631204206500,-10.33
1631204206515,-5.32
1631204206531,-1.06
1631204206546,2.52
1631204206562,5.65
1631204206578,8.56
1631204206593,11.38
1631204206609,14.09
1631204206625,16.45
1631204206640,18.12
1631204206656,18.77
1631204206671,18.29
1631204206687,16.81
1631204206703,14.7
1631204206718,12.43
1631204206734,10.4
1631204206750,8.78
1631204206765,7.5
1631204206781,6.3
1631204206796,4.94
1631204206812,3.3
1631204206828,1.48
1631204206843,-0.32
1631204206859,-1.84
1631204206875,-2.97
1631204206890,-3.78
1631204206906,-4.5
1631204206921,-5.41
1631204206937,-6.7
1631204206953,-8.51
1631204206968,-10.82
1631204206984,-13.47
1631204207000,-16.19
1631204207015,-18.48
1631204207031,-19.76
1631204207046,-19.43
1631204207062,-17.0
1631204207078,-12.29
1631204207093,-5.48
1631204207109,2.96
1631204207125,12.38
1631204207140,22.08
1631204207156,31.42
1631204207171,39.87
1631204207187,46.93
1631204207203,52.27
1631204207218,55.68
1631204207234,57.31
1631204207250,57.6
1631204207265,57.21
1631204207281,56.87
1631204207296,57.13
1631204207312,58.19
1631204207328,59.79
1631204207343,61.2
1631204207359,61.43
1631204207375,59.48
1631204207390,54.66
1631204207406,46.89
1631204207421,36.83
1631204207437,25.69
1631204207453,14.87
1631204207468,5.47
1631204207484,-2.12
1631204207500,-8.23
1631204207515,-13.63
1631204207531,-19.07
1631204207546,-24.89
1631204207562,-30.91
1631204207578,-36.61
1631204207593,-41.47
1631204207609,-45.26
1631204207625,-48.12
1631204207640,-50.36
1631204207656,-52.19
1631204207671,-53.5
1631204207687,-53.82
1631204207703,-52.41
1631204207718,-48.59
1631204207734,-42.02
1631204207750,-32.92
1631204207765,-22.11
1631204207781,-10.84
1631204207796,-0.52
1631204207812,7.75
1631204207828,13.41
1631204207843,16.66
1631204207859,18.34
1631204207875,19.7
1631204207890,22.02
1631204207906,26.27
1631204207921,32.82
1631204207937,41.38
1631204207953,51.1
1631204207968,60.76
1631204207984,69.1
1631204208000,75.08
1631204208015,78.1
1631204208031,77.96
1631204208046,74.91
1631204208062,69.4
1631204208078,62.14
1631204208093,53.97
1631204208109,45.73
1631204208125,38.2
1631204208140,31.85
1631204208156,26.75
1631204208171,22.62
1631204208187,19.05
1631204208203,15.66
1631204208218,12.35
1631204208234,9.25
1631204208250,6.55
1631204208265,4.36
1631204208281,2.59
1631204208296,0.99
1631204208312,-0.75
1631204208328,-2.81
1631204208343,-5.24
1631204208359,-7.97
1631204208375,-10.83
1631204208390,-13.68
1631204208406,-16.42
1631204208421,-18.98
1631204208437,-21.34
1631204208453,-23.51
1631204208468,-25.54
1631204208484,-27.51
1631204208500,-29.48
1631204208515,-31.5
1631204208531,-33.5
1631204208546,-35.4
1631204208562,-37.07
1631204208578,-38.48
1631204208593,-39.75
1631204208609,-41.14
1631204208625,-43.0
1631204208640,-45.65
1631204208656,-49.18
1631204208671,-53.36
1631204208687,-57.6
1631204208703,-61.01
1631204208718,-62.65
1631204208734,-61.81
1631204208750,-58.13
1631204208765,-51.79
1631204208781,-43.41
1631204208796,-33.9
1631204208812,-24.24
1631204208828,-15.27
1631204208843,-7.51
1631204208859,-1.21
1631204208875,3.71
1631204208890,7.47
1631204208906,10.31
1631204208921,12.43
1631204208937,13.92
1631204208953,14.89
1631204208968,15.39
1631204208984,15.6
1631204209000,15.68
1631204209015,15.8
1631204209031,16.03
1631204209046,16.36
1631204209062,16.68
1631204209078,16.92
1631204209093,17.02
1631204209109,16.99
1631204209125,16.85
1631204209140,16.56
1631204209156,16.04
1631204209171,15.17
1631204209187,13.85
1631204209203,12.08
1631204209218,9.97
1631204209234,7.72
1631204209250,5.57
1631204209265,3.68
1631204209281,2.13
1631204209296,0.84
1631204209312,-0.41
1631204209328,-1.86
1631204209343,-3.67
1631204209359,-5.85
1631204209375,-8.26
1631204209390,-10.63
1631204209406,-12.74
1631204209421,-14.47
1631204209437,-15.91
1631204209453,-17.34
1631204209468,-19.13
1631204209484,-21.67
1631204209500,-25.19
1631204209515,-29.64
1631204209531,-34.68
1631204209546,-39.59
1631204209562,-43.48
1631204209578,-45.39
1631204209593,-44.57
1631204209609,-40.73
1631204209625,-34.12
1631204209640,-25.51
1631204209656,-15.95
1631204209671,-6.57
1631204209687,1.75
1631204209703,8.49
1631204209718,13.52
1631204209734,16.96
1631204209750,19.07
1631204209765,20.1
1631204209781,20.28
1631204209796,19.84
1631204209812,19.03
1631204209828,18.16
1631204209843,17.53
1631204209859,17.37
1631204209875,17.73
1631204209890,18.51
1631204209906,19.48
1631204209921,20.38
1631204209937,21.0
1631204209953,21.29
1631204209968,21.3
1631204209984,21.11
1631204210000,20.83
1631204210015,20.41
1631204210031,19.73
1631204210046,18.59
1631204210062,16.88
1631204210078,14.6
1631204210093,11.93
1631204210109,9.19
1631204210125,6.72
1631204210140,4.74
1631204210156,3.26
1631204210171,2.08
1631204210187,0.93
1631204210203,-0.48
1631204210218,-2.27
1631204210234,-4.42
1631204210250,-6.72
1631204210265,-8.97
1631204210281,-10.96
1631204210296,-12.69
1631204210312,-14.25
1631204210328,-15.9
1631204210343,-17.94
1631204210359,-20.6
1631204210375,-24.04
1631204210390,-28.18
1631204210406,-32.66
1631204210421,-36.81
1631204210437,-39.76
1631204210453,-40.68
1631204210468,-39.03
1631204210484,-34.8
1631204210500,-28.55
1631204210515,-21.2
1631204210531,-13.76
1631204210546,-6.97
1631204210562,-1.22
1631204210578,3.43
1631204210593,7.08
1631204210609,9.8
1631204210625,11.61
1631204210640,12.54
1631204210656,12.75
1631204210671,12.56
1631204210687,12.42
1631204210703,12.73
1631204210718,13.74
1631204210734,15.46
1631204210750,17.65
1631204210765,19.96
1631204210781,22.01
1631204210796,23.54
1631204210812,24.49
1631204210828,24.92
1631204210843,25.0
1631204210859,24.8
1631204210875,24.24
1631204210890,23.09
1631204210906,21.11
1631204210921,18.19
1631204210937,14.5
1631204210953,10.46
1631204210968,6.59
1631204210984,3.29
1631204211000,0.63
1631204211015,-1.66
1631204211031,-4.01
1631204211046,-6.84
1631204211062,-10.23
1631204211078,-13.97
1631204211093,-17.55
1631204211109,-20.37
1631204211125,-21.99
1631204211140,-22.25
1631204211156,-21.31
1631204211171,-19.63
1631204211187,-17.84
1631204211203,-16.65
1631204211218,-16.7
1631204211234,-18.39
1631204211250,-21.7
1631204211265,-26.11
1631204211281,-30.58
1631204211296,-33.85
1631204211312,-34.87
1631204211328,-33.07
1631204211343,-28.62
1631204211359,-22.28
1631204211375,-15.09
1631204211390,-7.96
1631204211406,-1.4
1631204211421,4.45
1631204211437,9.65
1631204211453,14.21
1631204211468,17.93
1631204211484,20.48
1631204211500,21.6
1631204211515,21.21
1631204211531,19.56
1631204211546,17.07
1631204211562,14.23
1631204211578,11.44
1631204211593,8.95
1631204211609,6.86
1631204211625,5.15
1631204211640,3.78
1631204211656,2.64
1631204211671,1.57
1631204211687,0.32
1631204211703,-1.39
1631204211718,-3.83
1631204211734,-7.14
1631204211750,-11.32
1631204211765,-16.14
1631204211781,-21.2
1631204211796,-25.94
1631204211812,-29.81
1631204211828,-32.33
1631204211843,-33.2
1631204211859,-32.45
1631204211875,-30.35
1631204211890,-27.4
1631204211906,-24.23
1631204211921,-21.43
1631204211937,-19.49
1631204211953,-18.61
1631204211968,-18.74
1631204211984,-19.5
1631204212000,-20.23
1631204212015,-20.23
1631204212031,-18.89
1631204212046,-15.94
1631204212062,-11.62
1631204212078,-6.6
1631204212093,-1.82
1631204212109,1.8
1631204212125,3.62
1631204212140,3.57
1631204212156,2.13
1631204212171,0.23
1631204212187,-0.99
1631204212203,-0.53
1631204212218,2.15
1631204212234,7.05
1631204212250,13.51
1631204212265,20.52
1631204212281,26.96
1631204212296,31.93
1631204212312,34.99
1631204212328,36.11
1631204212343,35.61
1631204212359,33.93
1631204212375,31.47
1631204212390,28.52
1631204212406,25.25
1631204212421,21.78
1631204212437,18.3
1631204212453,15.02
1631204212468,12.19
1631204212484,10.02
1631204212500,8.62
1631204212515,7.98
1631204212531,7.99
1631204212546,8.53
1631204212562,9.42
1631204212578,10.51
1631204212593,11.67
1631204212609,12.7
1631204212625,13.39
1631204212640,13.57
1631204212656,13.16
1631204212671,12.21
1631204212687,10.93
1631204212703,9.59
1631204212718,8.44
1631204212734,7.56
1631204212750,6.91
1631204212765,6.3
1631204212781,5.56
1631204212796,4.59
1631204212812,3.38
1631204212828,2.0
1631204212843,0.48
1631204212859,-1.19
1631204212875,-3.02
1631204212890,-5.0
1631204212906,-7.01
1631204212921,-8.91
1631204212937,-10.58
1631204212953,-12.02
1631204212968,-13.36
1631204212984,-14.84
1631204213000,-16.74
1631204213015,-19.31
1631204213031,-22.66
1631204213046,-26.71
1631204213062,-31.14
1631204213078,-35.31
1631204213093,-38.36
1631204213109,-39.35
1631204213125,-37.58
1631204213140,-32.81
1631204213156,-25.35
1631204213171,-16.06
1631204213187,-6.09
1631204213203,3.45
1631204213218,11.69
1631204213234,18.2
1631204213250,22.96
1631204213265,26.3
1631204213281,28.67
1631204213296,30.55
1631204213312,32.29
1631204213328,34.02
1631204213343,35.68
1631204213359,37.03
1631204213375,37.82
1631204213390,37.77
1631204213406,36.78
1631204213421,34.88
1631204213437,32.26
1631204213453,29.24
1631204213468,26.19
1631204213484,23.39
1631204213500,21.03
1631204213515,19.12
1631204213531,17.54
1631204213546,16.13
1631204213562,14.65
1631204213578,12.99
1631204213593,11.09
1631204213609,9.02
1631204213625,6.91
1631204213640,4.9
1631204213656,3.13
1631204213671,1.65
1631204213687,0.46
1631204213703,-0.52
1631204213718,-1.39
1631204213734,-2.3
1631204213750,-3.44
1631204213765,-4.96
1631204213781,-6.9
1631204213796,-9.17
1631204213812,-11.55
1631204213828,-13.76
1631204213843,-15.6
1631204213859,-17.05
1631204213875,-18.23
1631204213890,-19.4
1631204213906,-20.87
1631204213921,-22.86
1631204213937,-25.54
1631204213953,-28.96
1631204213968,-32.95
1631204213984,-37.02
1631204214000,-40.41
1631204214015,-42.15
1631204214031,-41.38
1631204214046,-37.63
1631204214062,-31.07
1631204214078,-22.47
1631204214093,-12.95
1631204214109,-3.66
1631204214125,4.55
1631204214140,11.25
1631204214156,16.34
1631204214171,19.9
1631204214187,22.02
1631204214203,22.78
1631204214218,22.35
1631204214234,21.03
1631204214250,19.35
1631204214265,17.91
1631204214281,17.25
1631204214296,17.72
1631204214312,19.39
1631204214328,22.08
1631204214343,25.47
1631204214359,29.17
1631204214375,32.79
1631204214390,35.96
1631204214406,38.36
1631204214421,39.77
1631204214437,40.11
1631204214453,39.4
1631204214468,37.71
1631204214484,35.13
1631204214500,31.71
1631204214515,27.56
1631204214531,22.84
1631204214546,17.87
1631204214562,13.06
1631204214578,8.77
1631204214593,5.18
1631204214609,2.2
1631204214625,-0.45
1631204214640,-3.15
1631204214656,-6.18
1631204214671,-9.67
1631204214687,-13.48
1631204214703,-17.32
1631204214718,-20.8
1631204214734,-23.58
1631204214750,-25.48
1631204214765,-26.56
1631204214781,-27.15
1631204214796,-27.81
1631204214812,-29.21
1631204214828,-31.88
1631204214843,-35.96
1631204214859,-40.97
1631204214875,-45.84
1631204214890,-49.19
1631204214906,-49.75
1631204214921,-46.77
1631204214937,-40.27
1631204214953,-30.87
1631204214968,-19.64
1631204214984,-7.59
1631204215000,4.43
1631204215015,15.82
1631204215031,26.11
1631204215046,34.94
1631204215062,42.0
1631204215078,47.14
1631204215093,50.35
1631204215109,51.69
1631204215125,51.23
1631204215140,48.96
1631204215156,44.88
1631204215171,39.14
1631204215187,32.23
1631204215203,24.88
1631204215218,17.96
1631204215234,12.17
1631204215250,7.91
1631204215265,5.13
1631204215281,3.51
1631204215296,2.62
1631204215312,2.06
1631204215328,1.61
1631204215343,1.16
1631204215359,0.68
1631204215375,0.11
1631204215390,-0.66
1631204215406,-1.72
1631204215421,-3.12
1631204215437,-4.78
1631204215453,-6.47
1631204215468,-7.95
1631204215484,-9.04
1631204215500,-9.73
1631204215515,-10.18
1631204215531,-10.67
1631204215546,-11.42
1631204215562,-12.53
1631204215578,-13.96
1631204215593,-15.55
1631204215609,-17.12
1631204215625,-18.56
1631204215640,-19.8
1631204215656,-20.85
1631204215671,-21.8
1631204215687,-22.84
1631204215703,-24.23
1631204215718,-26.28
1631204215734,-29.19
1631204215750,-32.95
1631204215765,-37.24
1631204215781,-41.37
1631204215796,-44.44
1631204215812,-45.55
1631204215828,-44.06
1631204215843,-39.82
1631204215859,-33.14
1631204215875,-24.82
1631204215890,-15.86
1631204215906,-7.22
1631204215921,0.4
1631204215937,6.58
1631204215953,11.24
1631204215968,14.51
1631204215984,16.63
1631204216000,17.87
1631204216015,18.52
1631204216031,18.81
1631204216046,18.94
1631204216062,19.03
1631204216078,19.17
1631204216093,19.39
1631204216109,19.72
1631204216125,20.19
1631204216140,20.85
1631204216156,21.66
1631204216171,22.49
1631204216187,23.16
1631204216203,23.45
1631204216218,23.27
1631204216234,22.63
1631204216250,21.67
1631204216265,20.54
1631204216281,19.33
1631204216296,18.0
1631204216312,16.44
1631204216328,14.56
1631204216343,12.31
1631204216359,9.79
1631204216375,7.19
1631204216390,4.72
1631204216406,2.54
1631204216421,0.74
1631204216437,-0.77
1631204216453,-2.14
1631204216468,-3.59
1631204216484,-5.28
1631204216500,-7.29
1631204216515,-9.51
1631204216531,-11.79
1631204216546,-13.98
1631204216562,-16.03
1631204216578,-17.99
1631204216593,-20.01
1631204216609,-22.26
1631204216625,-24.88
1631204216640,-27.97
1631204216656,-31.5
1631204216671,-35.33
1631204216687,-39.06
1631204216703,-42.03
1631204216718,-43.48
1631204216734,-42.66
1631204216750,-39.2
1631204216765,-33.17
1631204216781,-25.2
1631204216796,-16.24
1631204216812,-7.32
1631204216828,0.72
1631204216843,7.4
1631204216859,12.57
1631204216875,16.32
1631204216890,18.79
1631204216906,20.13
1631204216921,20.42
1631204216937,19.81
1631204216953,18.55
1631204216968,17.04
1631204216984,15.74
1631204217000,15.01
1631204217015,15.04
1631204217031,15.72
1631204217046,16.74
1631204217062,17.77
1631204217078,18.54
1631204217093,18.96
1631204217109,19.11
1631204217125,19.08
1631204217140,18.93
1631204217156,18.64
1631204217171,18.12
1631204217187,17.24
1631204217203,15.97
1631204217218,14.35
1631204217234,12.47
1631204217250,10.47
1631204217265,8.49
1631204217281,6.61
1631204217296,4.88
1631204217312,3.26
1631204217328,1.68
1631204217343,0.04
1631204217359,-1.76
1631204217375,-3.7
1631204217390,-5.76
1631204217406,-7.8
1631204217421,-9.68
1631204217437,-11.3
1631204217453,-12.7
1631204217468,-14.0
1631204217484,-15.49
1631204217500,-17.46
1631204217515,-20.13
1631204217531,-23.55
1631204217546,-27.5
1631204217562,-31.5
1631204217578,-34.88
1631204217593,-36.92
1631204217609,-37.01
1631204217625,-34.83
1631204217640,-30.39
1631204217656,-24.09
1631204217671,-16.58
1631204217687,-8.62
1631204217703,-0.94
1631204217718,5.86
1631204217734,11.37
1631204217750,15.41
1631204217765,17.94
1631204217781,19.1
1631204217796,19.1
1631204217812,18.22
1631204217828,16.79
1631204217843,15.12
1631204217859,13.56
1631204217875,12.39
1631204217890,11.85
1631204217906,12.01
1631204217921,12.8
1631204217937,13.99
1631204217953,15.27
1631204217968,16.39
1631204217984,17.23
1631204218000,17.79
1631204218015,18.11
1631204218031,18.25
1631204218046,18.12
1631204218062,17.55
1631204218078,16.41
1631204218093,14.65
1631204218109,12.4
1631204218125,9.93
1631204218140,7.54
1631204218156,5.48
1631204218171,3.86
1631204218187,2.65
1631204218203,1.66
1631204218218,0.66
1631204218234,-0.6
1631204218250,-2.26
1631204218265,-4.31
1631204218281,-6.57
1631204218296,-8.76
1631204218312,-10.63
1631204218328,-12.05
1631204218343,-13.09
1631204218359,-14.04
1631204218375,-15.33
1631204218390,-17.42
1631204218406,-20.62
1631204218421,-24.92
1631204218437,-29.94
1631204218453,-34.83
1631204218468,-38.51
1631204218484,-39.86
1631204218500,-38.09
1631204218515,-32.96
1631204218531,-24.91
1631204218546,-14.93
1631204218562,-4.32
1631204218578,5.69
1631204218593,14.18
1631204218609,20.67
1631204218625,25.13
1631204218640,27.76
1631204218656,28.87
1631204218671,28.73
1631204218687,27.61
1631204218703,25.76
1631204218718,23.54
1631204218734,21.34
1631204218750,19.58
1631204218765,18.56
1631204218781,18.37
1631204218796,18.86
1631204218812,19.71
1631204218828,20.51
1631204218843,20.98
1631204218859,20.99
1631204218875,20.61
1631204218890,20.02
1631204218906,19.43
1631204218921,18.93
1631204218937,18.51
1631204218953,18.05
1631204218968,17.4
1631204218984,16.5
1631204219000,15.33
1631204219015,13.89
1631204219031,12.12
1631204219046,9.87
1631204219062,6.96
1631204219078,3.34
1631204219093,-0.85
1631204219109,-5.28
1631204219125,-9.56
1631204219140,-13.4
1631204219156,-16.72
1631204219171,-19.55
1631204219187,-21.95
1631204219203,-23.85
1631204219218,-25.04
1631204219234,-25.34
1631204219250,-24.72
1631204219265,-23.45
1631204219281,-22.02
1631204219296,-20.9
1631204219312,-20.29
1631204219328,-19.98
1631204219343,-19.46
1631204219359,-18.11
1631204219375,-15.51
1631204219390,-11.59
1631204219406,-6.64
1631204219421,-1.18
1631204219437,4.19
1631204219453,9.01
1631204219468,12.95
1631204219484,15.88
1631204219500,17.8
1631204219515,18.75
1631204219531,18.77
1631204219546,17.87
1631204219562,16.09
1631204219578,13.56
1631204219593,10.62
1631204219609,7.86
1631204219625,6.07
1631204219640,5.93
1631204219656,7.82
1631204219671,11.53
1631204219687,16.34
1631204219703,21.18
1631204219718,25.03
1631204219734,27.21
1631204219750,27.56
1631204219765,26.38
1631204219781,24.16
1631204219796,21.34
1631204219812,18.17
1631204219828,14.68
1631204219843,10.87
1631204219859,6.83
1631204219875,2.81
1631204219890,-0.81
1631204219906,-3.75
1631204219921,-5.92
1631204219937,-7.47
1631204219953,-8.71
1631204219968,-9.97
1631204219984,-11.44
1631204220000,-13.15
1631204220015,-15.02
1631204220031,-16.87
1631204220046,-18.62
1631204220062,-20.18
1631204220078,-21.56
1631204220093,-22.86
1631204220109,-24.23
1631204220125,-25.86
1631204220140,-27.92
1631204220156,-30.52
1631204220171,-33.63
1631204220187,-37.13
1631204220203,-40.73
1631204220218,-44.04
1631204220234,-46.5
1631204220250,-47.43
1631204220265,-46.23
1631204220281,-42.55
1631204220296,-36.5
1631204220312,-28.71
1631204220328,-20.18
1631204220343,-12.0
1631204220359,-4.98
1631204220375,0.55
1631204220390,4.7
1631204220406,7.89
1631204220421,10.51
1631204220437,12.75
1631204220453,14.61
1631204220468,15.96
1631204220484,16.76
1631204220500,17.14
1631204220515,17.38
1631204220531,17.77
1631204220546,18.52
1631204220562,19.68
1631204220578,21.17
1631204220593,22.9
1631204220609,24.79
1631204220625,26.82
1631204220640,28.89
1631204220656,30.75
1631204220671,32.05
1631204220687,32.45
1631204220703,31.68
1631204220718,29.73
1631204220734,26.78
1631204220750,23.12
1631204220765,19.14
1631204220781,15.18
1631204220796,11.54
1631204220812,8.38
1631204220828,5.73
1631204220843,3.38
1631204220859,1.02
1631204220875,-1.65
1631204220890,-4.78
1631204220906,-8.23
1631204220921,-11.66
1631204220937,-14.7
1631204220953,-17.08
1631204220968,-18.84
1631204220984,-20.24
1631204221000,-21.66
1631204221015,-23.41
1631204221031,-25.71
1631204221046,-28.62
1631204221062,-32.05
1631204221078,-35.79
1631204221093,-39.35
1631204221109,-42.01
1631204221125,-42.89
1631204221140,-41.22
1631204221156,-36.62
1631204221171,-29.3
1631204221187,-20.1
1631204221203,-10.22
1631204221218,-0.9
1631204221234,6.96
1631204221250,12.95
1631204221265,17.08
1631204221281,19.58
1631204221296,20.69
1631204221312,20.6
1631204221328,19.45
1631204221343,17.51
1631204221359,15.23
1631204221375,13.17
1631204221390,11.86
1631204221406,11.59
1631204221421,12.3
1631204221437,13.63
1631204221453,15.05
1631204221468,16.11
1631204221484,16.57
1631204221500,16.44
1631204221515,15.89
1631204221531,15.18
1631204221546,14.48
1631204221562,13.85
1631204221578,13.16
1631204221593,12.22
1631204221609,10.86
1631204221625,9.0
1631204221640,6.8
1631204221656,4.56
1631204221671,2.6
1631204221687,1.12
1631204221703,0.11
1631204221718,-0.69
1631204221734,-1.64
1631204221750,-3.04
1631204221765,-5.01
1631204221781,-7.42
1631204221796,-9.97
1631204221812,-12.35
1631204221828,-14.4
1631204221843,-16.15
1631204221859,-17.81
1631204221875,-19.64
1631204221890,-21.85
1631204221906,-24.59
1631204221921,-27.84
1631204221937,-31.42
1631204221953,-35.0
1631204221968,-37.94
1631204221984,-39.46
1631204222000,-38.78
1631204222015,-35.37
1631204222031,-29.26
1631204222046,-21.1
1631204222062,-12.0
1631204222078,-3.19
1631204222093,4.4
1631204222109,10.32
1631204222125,14.62
1631204222140,17.62
1631204222156,19.67
1631204222171,20.98
1631204222187,21.67
1631204222203,21.77
1631204222218,21.41
1631204222234,20.83
1631204222250,20.34
1631204222265,20.2
1631204222281,20.54
1631204222296,21.31
1631204222312,22.32
1631204222328,23.31
1631204222343,24.07
1631204222359,24.42
1631204222375,24.31
1631204222390,23.75
1631204222406,22.83
1631204222421,21.69
1631204222437,20.44
1631204222453,19.19
1631204222468,17.97
1631204222484,16.76
1631204222500,15.45
1631204222515,13.97
1631204222531,12.28
1631204222546,10.43
1631204222562,8.51
1631204222578,6.62
1631204222593,4.82
1631204222609,3.1
1631204222625,1.43
1631204222640,-0.28
1631204222656,-2.07
1631204222671,-4.01
1631204222687,-6.09
1631204222703,-8.31
1631204222718,-10.62
1631204222734,-12.99
1631204222750,-15.39
1631204222765,-17.85
1631204222781,-20.47
1631204222796,-23.41
1631204222812,-26.83
1631204222828,-30.71
1631204222843,-34.78
1631204222859,-38.4
1631204222875,-40.74
1631204222890,-40.91
1631204222906,-38.4
1631204222921,-33.21
1631204222937,-25.97
1631204222953,-17.72
1631204222968,-9.56
1631204222984,-2.34
1631204223000,3.59
1631204223015,8.22
1631204223031,11.8
1631204223046,14.53
1631204223062,16.51
1631204223078,17.74
1631204223093,18.24
1631204223109,18.15
1631204223125,17.78
1631204223140,17.5
1631204223156,17.66
1631204223171,18.43
1631204223187,19.76
1631204223203,21.46
1631204223218,23.21
1631204223234,24.72
1631204223250,25.79
1631204223265,26.34
1631204223281,26.42
1631204223296,26.13
1631204223312,25.56
1631204223328,24.74
1631204223343,23.64
1631204223359,22.19
1631204223375,20.39
1631204223390,18.33
1631204223406,16.14
1631204223421,14.0
1631204223437,12.04
1631204223453,10.31
1631204223468,8.71
1631204223484,7.15
1631204223500,5.47
1631204223515,3.56
1631204223531,1.39
1631204223546,-1.04
1631204223562,-3.65
1631204223578,-6.31
1631204223593,-8.9
1631204223609,-11.34
1631204223625,-13.57
1631204223640,-15.63
1631204223656,-17.64
1631204223671,-19.78
1631204223687,-22.31
1631204223703,-25.45
1631204223718,-29.26
1631204223734,-33.57
1631204223750,-37.86
1631204223765,-41.31
1631204223781,-43.04
1631204223796,-42.33
1631204223812,-38.89
1631204223828,-33.0
1631204223843,-25.34
1631204223859,-16.86
1631204223875,-8.5
1631204223890,-0.92
1631204223906,5.48
1631204223921,10.58
1631204223937,14.42
1631204223953,17.15
1631204223968,18.89
1631204223984,19.82
1631204224000,20.1
1631204224015,19.95
1631204224031,19.59
1631204224046,19.21
1631204224062,18.96
1631204224078,18.89
1631204224093,18.97
1631204224109,19.11
1631204224125,19.25
1631204224140,19.39
1631204224156,19.59
1631204224171,19.93
1631204224187,20.43
1631204224203,20.97
1631204224218,21.31
1631204224234,21.17
1631204224250,20.35
1631204224265,18.84
1631204224281,16.76
1631204224296,14.4
1631204224312,12.04
1631204224328,9.91
1631204224343,8.08
1631204224359,6.53
1631204224375,5.1
1631204224390,3.65
1631204224406,2.02
1631204224421,0.15
1631204224437,-1.99
1631204224453,-4.32
1631204224468,-6.69
1631204224484,-8.9
1631204224500,-10.81
1631204224515,-12.36
1631204224531,-13.63
1631204224546,-14.86
1631204224562,-16.34
1631204224578,-18.4
1631204224593,-21.24
1631204224609,-24.9
1631204224625,-29.12
1631204224640,-33.28
1631204224656,-36.58
1631204224671,-38.1
1631204224687,-37.18
1631204224703,-33.55
1631204224718,-27.49
1631204224734,-19.75
1631204224750,-11.31
1631204224765,-3.08
1631204224781,4.22
1631204224796,10.19
1631204224812,14.67
1631204224828,17.65
1631204224843,19.27
1631204224859,19.78
1631204224875,19.5
1631204224890,18.83
1631204224906,18.11
1631204224921,17.57
1631204224937,17.29
1631204224953,17.24
1631204224968,17.35
1631204224984,17.58
1631204225000,17.87
1631204225015,18.19
1631204225031,18.53
1631204225046,18.81
1631204225062,19.01
1631204225078,19.13
1631204225093,19.16
1631204225109,19.09
1631204225125,18.84
1631204225140,18.26
1631204225156,17.19
1631204225171,15.55
1631204225187,13.41
1631204225203,10.98
1631204225218,8.55
1631204225234,6.35
1631204225250,4.49
1631204225265,2.91
1631204225281,1.44
1631204225296,-0.15
1631204225312,-2.02
1631204225328,-4.23
1631204225343,-6.71
1631204225359,-9.3
1631204225375,-11.79
1631204225390,-14.03
1631204225406,-15.94
1631204225421,-17.56
1631204225437,-19.09
1631204225453,-20.8
1631204225468,-22.99
1631204225484,-25.87
1631204225500,-29.49
1631204225515,-33.62
1631204225531,-37.77
1631204225546,-41.19
1631204225562,-43.04
1631204225578,-42.61
1631204225593,-39.49
1631204225609,-33.78
1631204225625,-26.07
1631204225640,-17.29
1631204225656,-8.46
1631204225671,-0.43
1631204225687,6.28
1631204225703,11.49
1631204225718,15.28
1631204225734,17.85
1631204225750,19.39
1631204225765,20.14
1631204225781,20.36
1631204225796,20.33
1631204225812,20.38
1631204225828,20.75
1631204225843,21.5
1631204225859,22.51
1631204225875,23.56
1631204225890,24.38
1631204225906,24.78
1631204225921,24.65
1631204225937,23.96
1631204225953,22.74
1631204225968,21.07
1631204225984,19.06
1631204226000,16.86
1631204226015,14.63
1631204226031,12.46
1631204226046,10.38
1631204226062,8.36
1631204226078,6.38
1631204226093,4.45
1631204226109,2.67
1631204226125,1.15
1631204226140,-0.04
1631204226156,-0.92
1631204226171,-1.6
1631204226187,-2.23
1631204226203,-2.96
1631204226218,-3.9
1631204226234,-5.11
1631204226250,-6.62
1631204226265,-8.36
1631204226281,-10.25
1631204226296,-12.19
1631204226312,-14.13
1631204226328,-16.06
1631204226343,-18.04
1631204226359,-20.16
1631204226375,-22.53
1631204226390,-25.31
1631204226406,-28.63
1631204226421,-32.54
1631204226437,-36.84
1631204226453,-40.97
1631204226468,-44.06
1631204226484,-45.1
1631204226500,-43.32
1631204226515,-38.46
1631204226531,-30.98
1631204226546,-21.85
1631204226562,-12.27
1631204226578,-3.29
1631204226593,4.4
1631204226609,10.54
1631204226625,15.08
1631204226640,18.13
1631204226656,19.79
1631204226671,20.23
1631204226687,19.72
1631204226703,18.63
1631204226718,17.4
1631204226734,16.39
1631204226750,15.8
1631204226765,15.68
1631204226781,15.95
1631204226796,16.5
1631204226812,17.2
1631204226828,17.9
1631204226843,18.43
1631204226859,18.61
1631204226875,18.32
1631204226890,17.58
1631204226906,16.56
1631204226921,15.53
1631204226937,14.72
1631204226953,14.18
1631204226968,13.8
1631204226984,13.35
1631204227000,12.58
1631204227015,11.39
1631204227031,9.78
1631204227046,7.89
1631204227062,5.86
1631204227078,3.83
1631204227093,1.9
1631204227109,0.14
1631204227125,-1.46
1631204227140,-2.93
1631204227156,-4.34
1631204227171,-5.76
1631204227187,-7.28
1631204227203,-8.96
1631204227218,-10.83
1631204227234,-12.94
1631204227250,-15.32
1631204227265,-17.93
1631204227281,-20.69
1631204227296,-23.51
1631204227312,-26.38
1631204227328,-29.37
1631204227343,-32.54
1631204227359,-35.82
1631204227375,-38.83
1631204227390,-40.88
1631204227406,-41.15
1631204227421,-38.98
1631204227437,-34.19
1631204227453,-27.19
1631204227468,-18.84
1631204227484,-10.2
1631204227500,-2.16
1631204227515,4.66
1631204227531,10.02
1631204227546,13.89
1631204227562,16.4
1631204227578,17.68
1631204227593,17.94
1631204227609,17.43
1631204227625,16.47
1631204227640,15.42
1631204227656,14.62
1631204227671,14.36
1631204227687,14.72
1631204227703,15.58
1631204227718,16.7
1631204227734,17.7
1631204227750,18.34
1631204227765,18.55
1631204227781,18.47
1631204227796,18.33
1631204227812,18.28
1631204227828,18.27
1631204227843,18.11
1631204227859,17.51
1631204227875,16.32
1631204227890,14.61
1631204227906,12.61
1631204227921,10.64
1631204227937,8.93
1631204227953,7.53
1631204227968,6.36
1631204227984,5.24
1631204228000,4.01
1631204228015,2.59
1631204228031,0.96
1631204228046,-0.86
1631204228062,-2.83
1631204228078,-4.91
1631204228093,-7.03
1631204228109,-9.08
1631204228125,-10.97
1631204228140,-12.64
1631204228156,-14.12
1631204228171,-15.53
1631204228187,-17.1
1631204228203,-19.08
1631204228218,-21.6
1631204228234,-24.58
1631204228250,-27.62
1631204228265,-30.02
1631204228281,-30.97
1631204228296,-29.78
1631204228312,-26.12
1631204228328,-20.22
1631204228343,-12.72
1631204228359,-4.54
1631204228375,3.45
1631204228390,10.66
1631204228406,16.87
1631204228421,22.12
1631204228437,26.56
1631204228453,30.2
1631204228468,32.95
1631204228484,34.61
1631204228500,35.03
1631204228515,34.23
1631204228531,32.42
