timestamp,bvp
1630059083609,-8.89
1630059083625,-10.61
1630059083640,-12.41
1630059083656,-14.36
1630059083671,-16.46
1630059083687,-18.61
1630059083703,-20.6
1630059083718,-22.16
1630059083734,-22.97
1630059083750,-22.68
1630059083765,-21.03
1630059083781,-17.96
1630059083796,-13.65
1630059083812,-8.61
1630059083828,-3.49
1630059083843,1.09
1630059083859,4.72
1630059083875,7.29
1630059083890,8.98
1630059083906,10.12
1630059083921,11.02
1630059083937,11.81
1630059083953,12.5
1630059083968,13.0
1630059083984,13.27
1630059084000,13.38
1630059084015,13.42
1630059084031,13.52
1630059084046,13.65
1630059084062,13.72
1630059084078,13.58
1630059084093,13.14
1630059084109,12.51
1630059084125,11.91
1630059084140,11.58
1630059084156,11.65
1630059084171,12.06
1630059084187,12.58
1630059084203,12.92
1630059084218,12.88
1630059084234,12.38
1630059084250,11.53
1630059084265,10.5
1630059084281,9.46
1630059084296,8.54
1630059084312,7.74
1630059084328,6.93
1630059084343,5.99
1630059084359,4.82
1630059084375,3.46
1630059084390,2.02
1630059084406,0.68
1630059084421,-0.52
1630059084437,-1.63
1630059084453,-2.85
1630059084468,-4.35
1630059084484,-6.16
1630059084500,-8.19
1630059084515,-10.25
1630059084531,-12.15
1630059084546,-13.83
1630059084562,-15.36
1630059084578,-16.84
1630059084593,-18.37
1630059084609,-20.06
1630059084625,-21.99
1630059084640,-24.27
1630059084656,-26.97
1630059084671,-29.97
1630059084687,-32.86
1630059084703,-34.93
1630059084718,-35.38
1630059084734,-33.66
1630059084750,-29.68
1630059084765,-23.97
1630059084781,-17.46
1630059084796,-11.15
1630059084812,-5.74
1630059084828,-1.53
1630059084843,1.61
1630059084859,3.95
1630059084875,5.76
1630059084890,7.16
1630059084906,8.15
1630059084921,8.76
1630059084937,9.09
1630059084953,9.33
1630059084968,9.72
1630059084984,10.43
1630059085000,11.51
1630059085015,12.83
1630059085031,14.21
1630059085046,15.4
1630059085062,16.27
1630059085078,16.71
1630059085093,16.78
1630059085109,16.55
1630059085125,16.19
1630059085140,15.85
1630059085156,15.65
1630059085171,15.64
1630059085187,15.85
1630059085203,16.23
1630059085218,16.72
1630059085234,17.23
1630059085250,17.64
1630059085265,17.84
1630059085281,17.74
1630059085296,17.33
1630059085312,16.72
1630059085328,16.12
1630059085343,15.82
1630059085359,16.1
1630059085375,17.05
1630059085390,18.62
1630059085406,20.55
1630059085421,22.5
1630059085437,24.18
1630059085453,25.42
1630059085468,26.25
1630059085484,26.84
1630059085500,27.45
1630059085515,28.3
1630059085531,29.54
1630059085546,31.07
1630059085562,32.66
1630059085578,33.91
1630059085593,34.46
1630059085609,34.19
1630059085625,33.43
1630059085640,33.02
1630059085656,34.0
1630059085671,36.99
1630059085687,41.58
1630059085703,45.86
1630059085718,46.7
1630059085734,40.68
1630059085750,25.42
1630059085765,0.53
1630059085781,-31.98
1630059085796,-68.13
1630059085812,-102.93
1630059085828,-131.31
1630059085843,-148.87
1630059085859,-152.47
1630059085875,-140.8
1630059085890,-114.98
1630059085906,-78.87
1630059085921,-38.65
1630059085937,-1.51
1630059085953,26.61
1630059085968,43.07
1630059085984,48.91
1630059086000,48.12
1630059086015,46.13
1630059086031,47.73
1630059086046,55.7
1630059086062,70.42
1630059086078,90.18
1630059086093,112.14
1630059086109,133.26
1630059086125,150.17
1630059086140,159.59
1630059086156,159.1
1630059086171,147.82
1630059086187,126.92
1630059086203,99.48
1630059086218,69.29
1630059086234,40.14
1630059086250,15.39
1630059086265,-3.26
1630059086281,-15.49
1630059086296,-21.35
1630059086312,-21.12
1630059086328,-15.67
1630059086343,-6.66
1630059086359,2.46
1630059086375,8.63
1630059086390,11.53
1630059086406,11.06
1630059086421,7.09
1630059086437,-0.28
1630059086453,-11.3
1630059086468,-26.6
1630059086484,-46.43
1630059086500,-72.0
1630059086515,-102.12
1630059086531,-130.81
1630059086546,-154.3
1630059086562,-172.1
1630059086578,-185.01
1630059086593,-194.63
1630059086609,-202.6
1630059086625,-209.86
1630059086640,-219.86
1630059086656,-233.51
1630059086671,-244.84
1630059086687,-250.77
1630059086703,-251.81
1630059086718,-248.89
1630059086734,-243.56
1630059086750,-237.87
1630059086765,-233.87
1630059086781,-237.29
1630059086796,-250.31
1630059086812,-265.26
1630059086828,-276.89
1630059086843,-283.39
1630059086859,-282.72
1630059086875,-273.55
1630059086890,-255.56
1630059086906,-202.63
1630059086921,-108.8
1630059086937,-19.58
1630059086953,51.07
1630059086968,109.8
1630059086984,155.46
1630059087000,185.84
1630059087015,199.45
1630059087031,197.02
1630059087046,182.33
1630059087062,157.42
1630059087078,127.44
1630059087093,104.6
1630059087109,94.49
1630059087125,95.39
1630059087140,103.77
1630059087156,115.87
1630059087171,128.9
1630059087187,141.3
1630059087203,149.12
1630059087218,150.49
1630059087234,150.45
1630059087250,151.96
1630059087265,155.97
1630059087281,164.47
1630059087296,179.23
1630059087312,200.33
1630059087328,225.42
1630059087343,248.21
1630059087359,263.28
1630059087375,270.82
1630059087390,271.67
1630059087406,266.78
1630059087421,258.2
1630059087437,247.79
1630059087453,236.57
1630059087468,225.08
1630059087484,212.73
1630059087500,199.59
1630059087515,187.53
1630059087531,176.73
1630059087546,165.39
1630059087562,151.24
1630059087578,132.36
1630059087593,108.02
1630059087609,79.13
1630059087625,47.49
1630059087640,15.38
1630059087656,-15.03
1630059087671,-43.26
1630059087687,-70.36
1630059087703,-97.46
1630059087718,-124.8
1630059087734,-150.98
1630059087750,-173.1
1630059087765,-187.86
1630059087781,-192.8
1630059087796,-187.48
1630059087812,-173.67
1630059087828,-154.82
1630059087843,-135.17
1630059087859,-118.82
1630059087875,-109.02
1630059087890,-107.85
1630059087906,-115.81
1630059087921,-131.53
1630059087937,-151.67
1630059087953,-171.35
1630059087968,-185.26
1630059087984,-189.13
1630059088000,-181.16
1630059088015,-162.57
1630059088031,-137.2
1630059088046,-110.37
1630059088062,-87.36
1630059088078,-72.13
1630059088093,-66.67
1630059088109,-70.83
1630059088125,-82.62
1630059088140,-98.69
1630059088156,-115.05
1630059088171,-127.82
1630059088187,-134.12
1630059088203,-132.62
1630059088218,-123.73
1630059088234,-109.33
1630059088250,-92.03
1630059088265,-74.33
1630059088281,-57.94
1630059088296,-43.44
1630059088312,-30.37
1630059088328,-17.78
1630059088343,-4.76
1630059088359,9.02
1630059088375,23.14
1630059088390,36.57
1630059088406,48.15
1630059088421,57.0
1630059088437,62.81
1630059088453,65.77
1630059088468,66.29
1630059088484,64.69
1630059088500,61.08
1630059088515,55.41
1630059088531,47.76
1630059088546,38.63
1630059088562,28.86
1630059088578,19.51
1630059088593,11.48
1630059088609,5.29
1630059088625,1.13
1630059088640,-1.03
1630059088656,-1.23
1630059088671,0.4
1630059088687,3.57
1630059088703,7.6
1630059088718,11.46
1630059088734,14.05
1630059088750,14.55
1630059088765,12.73
1630059088781,9.05
1630059088796,4.46
1630059088812,0.04
1630059088828,-3.23
1630059088843,-4.64
1630059088859,-3.92
1630059088875,-1.11
1630059088890,3.31
1630059088906,8.47
1630059088921,13.26
1630059088937,16.54
1630059088953,17.51
1630059088968,16.0
1630059088984,12.54
1630059089000,8.17
1630059089015,4.15
1630059089031,1.49
1630059089046,0.78
1630059089062,2.03
1630059089078,4.82
1630059089093,8.46
1630059089109,12.23
1630059089125,15.52
1630059089140,17.92
1630059089156,19.26
1630059089171,19.53
1630059089187,18.83
1630059089203,17.34
1630059089218,15.24
1630059089234,12.77
1630059089250,10.2
1630059089265,7.83
1630059089281,5.96
1630059089296,4.7
1630059089312,3.94
1630059089328,3.34
1630059089343,2.46
1630059089359,0.95
1630059089375,-1.33
1630059089390,-4.32
1630059089406,-7.84
1630059089421,-11.49
1630059089437,-14.7
1630059089453,-16.54
1630059089468,-15.96
1630059089484,-12.07
1630059089500,-4.63
1630059089515,5.63
1630059089531,17.11
1630059089546,27.69
1630059089562,35.46
1630059089578,39.14
1630059089593,38.29
1630059089609,33.18
1630059089625,24.48
1630059089640,13.08
1630059089656,0.09
1630059089671,-13.15
1630059089687,-24.97
1630059089703,-33.63
1630059089718,-37.65
1630059089734,-36.29
1630059089750,-29.77
1630059089765,-19.36
1630059089781,-6.98
1630059089796,5.28
1630059089812,15.74
1630059089828,23.59
1630059089843,28.88
1630059089859,32.24
1630059089875,34.41
1630059089890,35.82
1630059089906,36.49
1630059089921,36.16
1630059089937,34.63
1630059089953,32.02
1630059089968,28.8
1630059089984,25.62
1630059090000,23.03
1630059090015,21.28
1630059090031,20.27
1630059090046,19.66
1630059090062,19.05
1630059090078,18.16
1630059090093,16.92
1630059090109,15.44
1630059090125,13.91
1630059090140,12.53
1630059090156,11.4
1630059090171,10.49
1630059090187,9.64
1630059090203,8.6
1630059090218,7.15
1630059090234,5.11
1630059090250,2.44
1630059090265,-0.8
1630059090281,-4.39
1630059090296,-7.93
1630059090312,-10.81
1630059090328,-12.29
1630059090343,-11.6
1630059090359,-8.17
1630059090375,-1.85
1630059090390,6.94
1630059090406,17.32
1630059090421,28.03
1630059090437,37.81
1630059090453,45.65
1630059090468,51.03
1630059090484,54.07
1630059090500,55.43
1630059090515,56.1
1630059090531,57.07
1630059090546,58.91
1630059090562,61.56
1630059090578,64.21
1630059090593,65.61
1630059090609,64.46
1630059090625,59.84
1630059090640,51.55
1630059090656,40.1
1630059090671,26.44
1630059090687,11.62
1630059090703,-3.44
1630059090718,-18.12
1630059090734,-31.99
1630059090750,-44.82
1630059090765,-56.59
1630059090781,-67.49
1630059090796,-77.89
1630059090812,-88.03
1630059090828,-97.6
1630059090843,-105.55
1630059090859,-110.34
1630059090875,-110.77
1630059090890,-106.94
1630059090906,-100.64
1630059090921,-94.7
1630059090937,-91.54
1630059090953,-91.69
1630059090968,-93.33
1630059090984,-93.25
1630059091000,-88.94
1630059091015,-80.54
1630059091031,-71.4
1630059091046,-66.79
1630059091062,-71.23
1630059091078,-86.02
1630059091093,-108.3
1630059091109,-132.29
1630059091125,-151.69
1630059091140,-162.17
1630059091156,-162.41
1630059091171,-153.43
1630059091187,-137.14
1630059091203,-114.98
1630059091218,-87.55
1630059091234,-55.14
1630059091250,-18.72
1630059091265,19.74
1630059091281,57.62
1630059091296,92.53
1630059091312,123.22
1630059091328,149.84
1630059091343,173.57
1630059091359,195.88
1630059091375,217.91
1630059091390,240.08
1630059091406,262.05
1630059091421,282.84
1630059091437,301.21
1630059091453,316.06
1630059091468,326.83
1630059091484,333.57
1630059091500,336.72
1630059091515,336.63
1630059091531,333.19
1630059091546,325.72
1630059091562,313.48
1630059091578,296.17
1630059091593,274.48
1630059091609,250.01
1630059091625,224.76
1630059091640,200.44
1630059091656,177.77
1630059091671,156.35
1630059091687,134.96
1630059091703,112.13
1630059091718,86.72
1630059091734,58.48
1630059091750,28.17
1630059091765,-2.55
1630059091781,-31.54
1630059091796,-56.66
1630059091812,-76.44
1630059091828,-90.4
1630059091843,-99.04
1630059091859,-103.63
1630059091875,-105.67
1630059091890,-106.5
1630059091906,-107.01
1630059091921,-107.62
1630059091937,-108.38
1630059091953,-109.15
1630059091968,-109.71
1630059091984,-109.8
1630059092000,-109.22
1630059092015,-107.93
1630059092031,-106.03
1630059092046,-103.82
1630059092062,-101.64
1630059092078,-99.74
1630059092093,-98.03
1630059092109,-96.05
1630059092125,-93.14
1630059092140,-88.59
1630059092156,-82.05
1630059092171,-73.63
1630059092187,-63.88
1630059092203,-53.66
1630059092218,-43.85
1630059092234,-35.14
1630059092250,-27.95
1630059092265,-22.42
1630059092281,-18.52
1630059092296,-16.05
1630059092312,-14.81
1630059092328,-14.43
1630059092343,-14.51
1630059092359,-14.61
1630059092375,-14.4
1630059092390,-13.76
1630059092406,-12.87
1630059092421,-12.07
1630059092437,-11.67
1630059092453,-11.84
1630059092468,-12.4
1630059092484,-13.09
1630059092500,-13.64
1630059092515,-13.98
1630059092531,-14.26
1630059092546,-14.78
1630059092562,-15.77
1630059092578,-17.36
1630059092593,-19.52
1630059092609,-22.14
1630059092625,-25.06
1630059092640,-28.03
1630059092656,-30.71
1630059092671,-32.65
1630059092687,-33.33
1630059092703,-32.38
1630059092718,-29.65
1630059092734,-25.34
1630059092750,-19.9
1630059092765,-13.95
1630059092781,-8.06
1630059092796,-2.72
1630059092812,1.8
1630059092828,5.35
1630059092843,7.88
1630059092859,9.43
1630059092875,10.01
1630059092890,9.65
1630059092906,8.41
1630059092921,6.43
1630059092937,4.0
1630059092953,1.51
1630059092968,-0.6
1630059092984,-2.07
1630059093000,-2.83
1630059093015,-3.08
1630059093031,-3.17
1630059093046,-3.47
1630059093062,-4.22
1630059093078,-5.51
1630059093093,-7.26
1630059093109,-9.22
1630059093125,-11.12
1630059093140,-12.76
1630059093156,-14.13
1630059093171,-15.41
1630059093187,-16.92
1630059093203,-18.96
1630059093218,-21.6
1630059093234,-24.56
1630059093250,-27.26
1630059093265,-28.92
1630059093281,-28.9
1630059093296,-26.81
1630059093312,-22.71
1630059093328,-17.01
1630059093343,-10.4
1630059093359,-3.66
1630059093375,2.47
1630059093390,7.46
1630059093406,11.08
1630059093421,13.34
1630059093437,14.41
1630059093453,14.49
1630059093468,13.76
1630059093484,12.38
1630059093500,10.57
1630059093515,8.6
1630059093531,6.83
1630059093546,5.54
1630059093562,4.8
1630059093578,4.45
1630059093593,4.17
1630059093609,3.66
1630059093625,2.77
1630059093640,1.51
1630059093656,0.03
1630059093671,-1.47
1630059093687,-2.89
1630059093703,-4.24
1630059093718,-5.6
1630059093734,-7.06
1630059093750,-8.71
1630059093765,-10.59
1630059093781,-12.72
1630059093796,-15.11
1630059093812,-17.79
1630059093828,-20.76
1630059093843,-23.86
1630059093859,-26.74
1630059093875,-28.79
1630059093890,-29.32
1630059093906,-27.8
1630059093921,-24.12
1630059093937,-18.66
1630059093953,-12.21
1630059093968,-5.68
1630059093984,0.15
1630059094000,4.82
1630059094015,8.23
1630059094031,10.48
1630059094046,11.76
1630059094062,12.26
1630059094078,12.12
1630059094093,11.45
1630059094109,10.33
1630059094125,8.88
1630059094140,7.2
1630059094156,5.46
1630059094171,3.85
1630059094187,2.55
1630059094203,1.68
1630059094218,1.21
1630059094234,1.02
1630059094250,0.89
1630059094265,0.65
1630059094281,0.19
1630059094296,-0.54
1630059094312,-1.5
1630059094328,-2.65
1630059094343,-3.93
1630059094359,-5.31
1630059094375,-6.76
1630059094390,-8.29
1630059094406,-9.91
1630059094421,-11.7
1630059094437,-13.77
1630059094453,-16.18
1630059094468,-18.97
1630059094484,-21.95
1630059094500,-24.75
1630059094515,-26.76
1630059094531,-27.3
1630059094546,-25.84
1630059094562,-22.27
1630059094578,-16.92
1630059094593,-10.55
1630059094609,-4.06
1630059094625,1.77
1630059094640,6.51
1630059094656,10.1
1630059094671,12.65
1630059094687,14.3
1630059094703,15.09
1630059094718,14.99
1630059094734,13.99
1630059094750,12.21
1630059094765,9.93
1630059094781,7.52
1630059094796,5.34
1630059094812,3.6
1630059094828,2.34
1630059094843,1.46
1630059094859,0.78
1630059094875,0.15
1630059094890,-0.51
1630059094906,-1.2
1630059094921,-1.93
1630059094937,-2.77
1630059094953,-3.84
1630059094968,-5.27
1630059094984,-7.1
1630059095000,-9.22
1630059095015,-11.42
1630059095031,-13.47
1630059095046,-15.28
1630059095062,-16.94
1630059095078,-18.64
1630059095093,-20.61
1630059095109,-22.92
1630059095125,-25.45
1630059095140,-27.9
1630059095156,-29.75
1630059095171,-30.5
1630059095187,-29.62
1630059095203,-26.84
1630059095218,-22.15
1630059095234,-15.93
1630059095250,-8.88
1630059095265,-1.88
1630059095281,4.26
1630059095296,8.99
1630059095312,12.12
1630059095328,13.71
1630059095343,14.01
1630059095359,13.29
1630059095375,11.84
1630059095390,9.97
1630059095406,8.0
1630059095421,6.27
1630059095437,5.02
1630059095453,4.27
1630059095468,3.88
1630059095484,3.56
1630059095500,3.05
1630059095515,2.23
1630059095531,1.18
1630059095546,0.04
1630059095562,-1.09
1630059095578,-2.2
1630059095593,-3.42
1630059095609,-4.84
1630059095625,-6.47
1630059095640,-8.22
1630059095656,-9.97
1630059095671,-11.69
1630059095687,-13.52
1630059095703,-15.71
1630059095718,-18.43
1630059095734,-21.64
1630059095750,-24.98
1630059095765,-27.87
1630059095781,-29.58
1630059095796,-29.54
1630059095812,-27.43
1630059095828,-23.28
1630059095843,-17.47
1630059095859,-10.66
1630059095875,-3.59
1630059095890,2.98
1630059095906,8.5
1630059095921,12.63
1630059095937,15.31
1630059095953,16.67
1630059095968,16.89
1630059095984,16.23
1630059096000,14.9
1630059096015,13.13
1630059096031,11.15
1630059096046,9.18
1630059096062,7.39
1630059096078,5.84
1630059096093,4.53
1630059096109,3.41
1630059096125,2.45
1630059096140,1.61
1630059096156,0.87
1630059096171,0.18
1630059096187,-0.5
1630059096203,-1.24
1630059096218,-2.1
1630059096234,-3.14
1630059096250,-4.43
1630059096265,-6.07
1630059096281,-8.13
1630059096296,-10.68
1630059096312,-13.73
1630059096328,-17.25
1630059096343,-21.07
1630059096359,-24.92
1630059096375,-28.38
1630059096390,-30.83
1630059096406,-31.64
1630059096421,-30.25
1630059096437,-26.46
1630059096453,-20.54
1630059096468,-13.21
1630059096484,-5.42
1630059096500,1.85
1630059096515,7.97
1630059096531,12.65
1630059096546,15.94
1630059096562,18.05
1630059096578,19.21
1630059096593,19.56
1630059096609,19.15
1630059096625,18.02
1630059096640,16.26
1630059096656,14.09
1630059096671,11.79
1630059096687,9.67
1630059096703,8.0
1630059096718,6.87
1630059096734,6.23
1630059096750,5.85
1630059096765,5.45
1630059096781,4.78
1630059096796,3.71
1630059096812,2.22
1630059096828,0.4
1630059096843,-1.68
1630059096859,-3.92
1630059096875,-6.29
1630059096890,-8.77
1630059096906,-11.4
1630059096921,-14.27
1630059096937,-17.5
1630059096953,-21.13
1630059096968,-25.03
1630059096984,-28.76
1630059097000,-31.59
1630059097015,-32.65
1630059097031,-31.26
1630059097046,-27.18
1630059097062,-20.79
1630059097078,-12.95
1630059097093,-4.75
1630059097109,2.86
1630059097125,9.26
1630059097140,14.23
1630059097156,17.81
1630059097171,20.13
1630059097187,21.3
1630059097203,21.44
1630059097218,20.68
1630059097234,19.34
1630059097250,17.8
1630059097265,16.45
1630059097281,15.51
1630059097296,14.96
1630059097312,14.61
1630059097328,14.18
1630059097343,13.45
1630059097359,12.39
1630059097375,11.06
1630059097390,9.57
1630059097406,7.98
1630059097421,6.23
1630059097437,4.26
1630059097453,1.99
1630059097468,-0.52
1630059097484,-3.13
1630059097500,-5.69
1630059097515,-8.18
1630059097531,-10.68
1630059097546,-13.44
1630059097562,-16.72
1630059097578,-20.63
1630059097593,-25.04
1630059097609,-29.44
1630059097625,-33.04
1630059097640,-34.96
1630059097656,-34.45
1630059097671,-31.21
1630059097687,-25.4
1630059097703,-17.71
1630059097718,-9.1
1630059097734,-0.55
1630059097750,7.14
1630059097765,13.53
1630059097781,18.49
1630059097796,22.11
1630059097812,24.59
1630059097828,26.11
1630059097843,26.81
1630059097859,26.82
1630059097875,26.24
1630059097890,25.26
1630059097906,24.03
1630059097921,22.71
1630059097937,21.42
1630059097953,20.2
1630059097968,19.07
1630059097984,18.05
1630059098000,17.14
1630059098015,16.36
1630059098031,15.73
1630059098046,15.21
1630059098062,14.67
1630059098078,13.91
1630059098093,12.7
1630059098109,10.86
1630059098125,8.32
1630059098140,5.15
1630059098156,1.57
1630059098171,-2.12
1630059098187,-5.66
1630059098203,-8.89
1630059098218,-11.81
1630059098234,-14.58
1630059098250,-17.48
1630059098265,-20.77
1630059098281,-24.61
1630059098296,-28.92
1630059098312,-33.33
1630059098328,-37.12
1630059098343,-39.37
1630059098359,-39.23
1630059098375,-36.21
1630059098390,-30.36
1630059098406,-22.36
1630059098421,-13.26
1630059098437,-4.16
1630059098453,4.04
1630059098468,10.88
1630059098484,16.24
1630059098500,20.18
1630059098515,22.78
1630059098531,24.14
1630059098546,24.36
1630059098562,23.69
1630059098578,22.52
1630059098593,21.27
1630059098609,20.27
1630059098625,19.63
1630059098640,19.26
1630059098656,18.95
1630059098671,18.5
1630059098687,17.84
1630059098703,17.0
1630059098718,16.12
1630059098734,15.33
1630059098750,14.73
1630059098765,14.29
1630059098781,13.84
1630059098796,13.12
1630059098812,11.79
1630059098828,9.62
1630059098843,6.59
1630059098859,2.93
1630059098875,-0.94
1630059098890,-4.59
1630059098906,-7.75
1630059098921,-10.43
1630059098937,-12.88
1630059098953,-15.47
1630059098968,-18.5
1630059098984,-22.12
1630059099000,-26.23
1630059099015,-30.48
1630059099031,-34.25
1630059099046,-36.77
1630059099062,-37.29
1630059099078,-35.25
1630059099093,-30.56
1630059099109,-23.65
1630059099125,-15.35
1630059099140,-6.66
1630059099156,1.54
1630059099171,8.65
1630059099187,14.38
1630059099203,18.64
1630059099218,21.46
1630059099234,22.93
1630059099250,23.19
1630059099265,22.5
1630059099281,21.16
1630059099296,19.54
1630059099312,17.92
1630059099328,16.51
1630059099343,15.36
1630059099359,14.45
1630059099375,13.71
1630059099390,13.05
1630059099406,12.42
1630059099421,11.79
1630059099437,11.17
1630059099453,10.52
1630059099468,9.78
1630059099484,8.85
1630059099500,7.65
1630059099515,6.13
1630059099531,4.3
1630059099546,2.24
1630059099562,-0.0
1630059099578,-2.4
1630059099593,-5.03
1630059099609,-8.0
1630059099625,-11.48
1630059099640,-15.58
1630059099656,-20.31
1630059099671,-25.39
1630059099687,-30.25
1630059099703,-34.05
1630059099718,-35.87
1630059099734,-34.98
1630059099750,-31.17
1630059099765,-24.76
1630059099781,-16.62
1630059099796,-7.84
1630059099812,0.55
1630059099828,7.82
1630059099843,13.61
1630059099859,17.87
1630059099875,20.76
1630059099890,22.49
1630059099906,23.31
1630059099921,23.36
1630059099937,22.79
1630059099953,21.71
1630059099968,20.25
1630059099984,18.62
1630059100000,17.04
1630059100015,15.7
1630059100031,14.71
1630059100046,14.09
1630059100062,13.73
1630059100078,13.5
1630059100093,13.22
1630059100109,12.75
1630059100125,11.93
1630059100140,10.61
1630059100156,8.68
1630059100171,6.15
1630059100187,3.15
1630059100203,-0.07
1630059100218,-3.24
1630059100234,-6.15
1630059100250,-8.81
1630059100265,-11.37
1630059100281,-14.18
1630059100296,-17.56
1630059100312,-21.73
1630059100328,-26.55
1630059100343,-31.53
1630059100359,-35.76
1630059100375,-38.26
1630059100390,-38.2
1630059100406,-35.19
1630059100421,-29.43
1630059100437,-21.62
1630059100453,-12.74
1630059100468,-3.79
1630059100484,4.46
1630059100500,11.48
1630059100515,17.05
1630059100531,21.15
1630059100546,23.89
1630059100562,25.42
1630059100578,25.93
1630059100593,25.67
1630059100609,24.9
1630059100625,23.92
1630059100640,23.0
1630059100656,22.31
1630059100671,21.84
1630059100687,21.43
1630059100703,20.87
1630059100718,20.04
1630059100734,19.0
1630059100750,17.95
1630059100765,17.1
1630059100781,16.49
1630059100796,15.91
1630059100812,14.98
1630059100828,13.36
1630059100843,10.88
1630059100859,7.67
1630059100875,4.0
1630059100890,0.22
1630059100906,-3.49
1630059100921,-7.04
1630059100937,-10.49
1630059100953,-13.95
1630059100968,-17.6
1630059100984,-21.59
1630059101000,-26.03
1630059101015,-30.87
1630059101031,-35.77
1630059101046,-40.08
1630059101062,-42.92
1630059101078,-43.46
1630059101093,-41.18
1630059101109,-36.08
1630059101125,-28.69
1630059101140,-19.88
1630059101156,-10.6
1630059101171,-1.65
1630059101187,6.45
1630059101203,13.43
1630059101218,19.19
1630059101234,23.68
1630059101250,26.91
1630059101265,28.9
1630059101281,29.71
1630059101296,29.52
1630059101312,28.55
1630059101328,27.1
1630059101343,25.49
1630059101359,23.98
1630059101375,22.8
1630059101390,22.11
1630059101406,21.99
1630059101421,22.41
1630059101437,23.24
1630059101453,24.24
1630059101468,25.08
1630059101484,25.38
1630059101500,24.89
1630059101515,23.48
1630059101531,21.24
1630059101546,18.46
1630059101562,15.47
1630059101578,12.59
1630059101593,9.95
1630059101609,7.52
1630059101625,5.12
1630059101640,2.51
1630059101656,-0.49
1630059101671,-3.91
1630059101687,-7.63
1630059101703,-11.45
1630059101718,-15.19
1630059101734,-18.73
1630059101750,-22.05
1630059101765,-25.23
1630059101781,-28.36
1630059101796,-31.64
1630059101812,-35.28
1630059101828,-39.42
1630059101843,-43.99
1630059101859,-48.49
1630059101875,-52.01
1630059101890,-53.43
1630059101906,-51.77
1630059101921,-46.62
1630059101937,-38.32
1630059101953,-27.92
1630059101968,-16.79
1630059101984,-6.2
1630059102000,3.01
1630059102015,10.54
1630059102031,16.48
1630059102046,21.08
1630059102062,24.56
1630059102078,27.02
1630059102093,28.5
1630059102109,29.14
1630059102125,29.2
1630059102140,29.09
1630059102156,29.16
1630059102171,29.67
1630059102187,30.6
1630059102203,31.76
1630059102218,32.85
1630059102234,33.63
1630059102250,33.96
1630059102265,33.86
1630059102281,33.39
1630059102296,32.64
1630059102312,31.71
1630059102328,30.66
1630059102343,29.55
1630059102359,28.41
1630059102375,27.23
1630059102390,25.96
1630059102406,24.5
1630059102421,22.75
1630059102437,20.66
1630059102453,18.19
1630059102468,15.36
1630059102484,12.26
1630059102500,9.01
1630059102515,5.81
1630059102531,2.82
1630059102546,0.09
1630059102562,-2.42
1630059102578,-4.93
1630059102593,-7.66
1630059102609,-10.72
1630059102625,-14.1
1630059102640,-17.63
1630059102656,-21.1
1630059102671,-24.4
1630059102687,-27.61
1630059102703,-30.93
1630059102718,-34.62
1630059102734,-38.89
1630059102750,-43.78
1630059102765,-49.03
1630059102781,-54.09
1630059102796,-58.12
1630059102812,-60.2
1630059102828,-59.51
1630059102843,-55.63
1630059102859,-48.69
1630059102875,-39.36
1630059102890,-28.71
1630059102906,-17.92
1630059102921,-7.99
1630059102937,0.44
1630059102953,7.11
1630059102968,12.07
1630059102984,15.55
1630059103000,17.86
1630059103015,19.3
1630059103031,20.18
1630059103046,20.76
1630059103062,21.23
1630059103078,21.72
1630059103093,22.3
1630059103109,22.95
1630059103125,23.64
1630059103140,24.31
1630059103156,24.92
1630059103171,25.48
1630059103187,25.97
1630059103203,26.39
1630059103218,26.64
1630059103234,26.64
1630059103250,26.27
1630059103265,25.45
1630059103281,24.18
1630059103296,22.48
1630059103312,20.43
1630059103328,18.09
1630059103343,15.52
1630059103359,12.7
1630059103375,9.58
1630059103390,6.17
1630059103406,2.52
1630059103421,-1.26
1630059103437,-4.98
1630059103453,-8.5
1630059103468,-11.77
1630059103484,-14.85
1630059103500,-17.89
1630059103515,-21.08
1630059103531,-24.59
1630059103546,-28.55
1630059103562,-32.94
1630059103578,-37.55
1630059103593,-41.91
1630059103609,-45.23
1630059103625,-46.64
1630059103640,-45.36
1630059103656,-41.07
1630059103671,-34.02
1630059103687,-25.01
1630059103703,-15.14
1630059103718,-5.47
1630059103734,3.2
1630059103750,10.43
1630059103765,16.06
1630059103781,20.12
1630059103796,22.69
1630059103812,23.94
1630059103828,24.12
1630059103843,23.55
1630059103859,22.58
1630059103875,21.53
1630059103890,20.61
1630059103906,19.97
1630059103921,19.63
1630059103937,19.54
1630059103953,19.58
1630059103968,19.57
1630059103984,19.38
1630059104000,18.94
1630059104015,18.34
1630059104031,17.65
1630059104046,16.91
1630059104062,15.95
1630059104078,14.49
1630059104093,12.21
1630059104109,8.94
1630059104125,4.84
1630059104140,0.31
1630059104156,-4.12
1630059104171,-8.07
1630059104187,-11.35
1630059104203,-14.09
1630059104218,-16.61
1630059104234,-19.33
1630059104250,-22.66
1630059104265,-26.88
1630059104281,-32.03
1630059104296,-37.72
1630059104312,-43.17
1630059104328,-47.28
1630059104343,-48.91
1630059104359,-47.28
1630059104375,-42.19
1630059104390,-34.14
1630059104406,-24.17
1630059104421,-13.54
1630059104437,-3.44
1630059104453,5.31
1630059104468,12.31
1630059104484,17.53
1630059104500,21.17
1630059104515,23.57
1630059104531,25.05
1630059104546,25.85
1630059104562,26.16
1630059104578,26.09
1630059104593,25.74
1630059104609,25.25
1630059104625,24.72
1630059104640,24.25
1630059104656,23.87
1630059104671,23.52
1630059104687,23.09
1630059104703,22.45
1630059104718,21.56
1630059104734,20.45
1630059104750,19.27
1630059104765,18.13
1630059104781,17.03
1630059104796,15.75
1630059104812,13.94
1630059104828,11.25
1630059104843,7.53
1630059104859,2.95
1630059104875,-2.01
1630059104890,-6.81
1630059104906,-11.03
1630059104921,-14.62
1630059104937,-17.84
1630059104953,-21.19
1630059104968,-25.11
1630059104984,-29.86
1630059105000,-35.29
1630059105015,-40.92
1630059105031,-45.97
1630059105046,-49.53
1630059105062,-50.74
1630059105078,-49.02
1630059105093,-44.2
1630059105109,-36.65
1630059105125,-27.17
1630059105140,-16.82
1630059105156,-6.61
1630059105171,2.68
1630059105187,10.64
1630059105203,17.2
1630059105218,22.45
1630059105234,26.48
1630059105250,29.36
1630059105265,31.14
1630059105281,31.91
1630059105296,31.92
1630059105312,31.54
1630059105328,31.17
1630059105343,31.08
1630059105359,31.37
1630059105375,31.98
1630059105390,32.72
1630059105406,33.47
1630059105421,34.14
1630059105437,34.72
1630059105453,35.13
1630059105468,35.31
1630059105484,35.1
1630059105500,34.37
1630059105515,33.11
1630059105531,31.39
1630059105546,29.39
1630059105562,27.3
1630059105578,25.18
1630059105593,22.97
1630059105609,20.54
1630059105625,17.77
1630059105640,14.64
1630059105656,11.28
1630059105671,7.84
1630059105687,4.43
1630059105703,1.04
1630059105718,-2.48
1630059105734,-6.32
1630059105750,-10.54
1630059105765,-15.04
1630059105781,-19.59
1630059105796,-23.88
1630059105812,-27.75
1630059105828,-31.22
1630059105843,-34.51
1630059105859,-37.94
1630059105875,-41.85
1630059105890,-46.45
1630059105906,-51.79
1630059105921,-57.67
1630059105937,-63.61
1630059105953,-68.84
1630059105968,-72.35
1630059105984,-73.1
1630059106000,-70.34
1630059106015,-63.84
1630059106031,-54.08
1630059106046,-42.14
1630059106062,-29.36
1630059106078,-16.98
1630059106093,-5.82
1630059106109,3.76
1630059106125,11.8
1630059106140,18.48
1630059106156,23.94
1630059106171,28.29
1630059106187,31.56
1630059106203,33.81
1630059106218,35.17
1630059106234,35.81
1630059106250,35.99
1630059106265,35.97
1630059106281,35.98
1630059106296,36.19
1630059106312,36.71
1630059106328,37.5
1630059106343,38.45
1630059106359,39.39
1630059106375,40.09
1630059106390,40.36
1630059106406,40.07
1630059106421,39.17
1630059106437,37.7
1630059106453,35.76
1630059106468,33.46
1630059106484,30.89
1630059106500,28.06
1630059106515,24.97
1630059106531,21.64
1630059106546,18.17
1630059106562,14.67
1630059106578,11.28
1630059106593,8.03
1630059106609,4.83
1630059106625,1.51
1630059106640,-2.08
1630059106656,-5.97
1630059106671,-10.06
1630059106687,-14.17
1630059106703,-18.09
1630059106718,-21.72
1630059106734,-25.06
1630059106750,-28.23
1630059106765,-31.42
1630059106781,-34.83
1630059106796,-38.67
1630059106812,-43.18
1630059106828,-48.41
1630059106843,-54.24
1630059106859,-60.14
1630059106875,-65.22
1630059106890,-68.35
1630059106906,-68.48
1630059106921,-64.97
1630059106937,-57.78
1630059106953,-47.62
1630059106968,-35.64
1630059106984,-23.18
1630059107000,-11.42
1630059107015,-1.1
1630059107031,7.48
1630059107046,14.35
1630059107062,19.72
1630059107078,23.82
1630059107093,26.77
1630059107109,28.66
1630059107125,29.55
1630059107140,29.58
1630059107156,28.96
1630059107171,27.98
1630059107187,26.99
1630059107203,26.28
1630059107218,26.03
1630059107234,26.28
1630059107250,26.92
1630059107265,27.72
1630059107281,28.4
1630059107296,28.7
1630059107312,28.43
1630059107328,27.53
1630059107343,26.04
1630059107359,24.05
1630059107375,21.67
1630059107390,19.0
1630059107406,16.08
1630059107421,12.91
1630059107437,9.47
1630059107453,5.74
1630059107468,1.76
1630059107484,-2.38
1630059107500,-6.49
1630059107515,-10.37
1630059107531,-13.89
1630059107546,-17.08
1630059107562,-20.09
1630059107578,-23.22
1630059107593,-26.85
1630059107609,-31.3
1630059107625,-36.69
1630059107640,-42.76
1630059107656,-48.83
1630059107671,-53.84
1630059107687,-56.53
1630059107703,-55.93
1630059107718,-51.57
1630059107734,-43.78
1630059107750,-33.56
1630059107765,-22.22
1630059107781,-11.03
1630059107796,-0.87
1630059107812,7.81
1630059107828,14.93
1630059107843,20.53
1630059107859,24.68
1630059107875,27.39
1630059107890,28.69
1630059107906,28.71
1630059107921,27.74
1630059107937,26.23
1630059107953,24.66
1630059107968,23.48
1630059107984,22.96
1630059108000,23.14
1630059108015,23.83
1630059108031,24.67
1630059108046,25.35
1630059108062,25.61
1630059108078,25.4
1630059108093,24.71
1630059108109,23.59
1630059108125,22.05
1630059108140,20.06
1630059108156,17.62
1630059108171,14.79
1630059108187,11.65
1630059108203,8.29
1630059108218,4.78
1630059108234,1.12
1630059108250,-2.66
1630059108265,-6.57
1630059108281,-10.57
1630059108296,-14.63
1630059108312,-18.74
1630059108328,-22.96
1630059108343,-27.45
1630059108359,-32.36
1630059108375,-37.71
1630059108390,-43.26
1630059108406,-48.34
1630059108421,-51.99
1630059108437,-53.17
1630059108453,-51.11
1630059108468,-45.62
1630059108484,-37.24
1630059108500,-27.02
1630059108515,-16.23
1630059108531,-5.97
1630059108546,3.09
1630059108562,10.72
1630059108578,16.98
1630059108593,22.01
1630059108609,25.95
1630059108625,28.84
1630059108640,30.74
1630059108656,31.75
1630059108671,32.05
1630059108687,31.85
1630059108703,31.38
1630059108718,30.81
1630059108734,30.25
1630059108750,29.78
1630059108765,29.46
1630059108781,29.33
1630059108796,29.44
1630059108812,29.77
1630059108828,30.22
1630059108843,30.49
1630059108859,30.22
1630059108875,29.0
1630059108890,26.62
1630059108906,23.15
1630059108921,19.0
1630059108937,14.71
1630059108953,10.74
1630059108968,7.22
1630059108984,3.92
1630059109000,0.48
1630059109015,-3.42
1630059109031,-7.81
1630059109046,-12.44
1630059109062,-16.95
1630059109078,-21.06
1630059109093,-24.74
1630059109109,-28.18
1630059109125,-31.74
1630059109140,-35.74
1630059109156,-40.43
1630059109171,-45.85
1630059109187,-51.69
1630059109203,-57.29
1630059109218,-61.64
1630059109234,-63.62
1630059109250,-62.33
1630059109265,-57.4
1630059109281,-49.13
1630059109296,-38.43
1630059109312,-26.51
1630059109328,-14.53
1630059109343,-3.4
1630059109359,6.33
1630059109375,14.39
1630059109390,20.74
1630059109406,25.48
1630059109421,28.85
1630059109437,31.13
1630059109453,32.62
1630059109468,33.65
1630059109484,34.42
1630059109500,35.11
1630059109515,35.84
1630059109531,36.65
1630059109546,37.52
1630059109562,38.4
1630059109578,39.19
1630059109593,39.79
1630059109609,40.19
1630059109625,40.39
1630059109640,40.42
1630059109656,40.24
1630059109671,39.75
1630059109687,38.78
1630059109703,37.22
1630059109718,35.04
1630059109734,32.37
1630059109750,29.43
1630059109765,26.45
1630059109781,23.55
1630059109796,20.76
1630059109812,18.0
1630059109828,15.16
1630059109843,12.21
1630059109859,9.14
1630059109875,6.04
1630059109890,2.98
1630059109906,0.01
1630059109921,-2.92
1630059109937,-5.89
1630059109953,-9.03
1630059109968,-12.45
1630059109984,-16.23
1630059110000,-20.33
1630059110015,-24.64
1630059110031,-28.95
1630059110046,-33.05
1630059110062,-36.81
1630059110078,-40.22
1630059110093,-43.49
1630059110109,-46.96
1630059110125,-51.04
1630059110140,-55.97
1630059110156,-61.63
1630059110171,-67.38
1630059110187,-72.16
1630059110203,-74.7
1630059110218,-73.91
1630059110234,-69.2
1630059110250,-60.75
1630059110265,-49.42
1630059110281,-36.51
1630059110296,-23.39
1630059110312,-11.16
1630059110328,-0.51
1630059110343,8.28
1630059110359,15.23
1630059110375,20.57
1630059110390,24.57
1630059110406,27.57
1630059110421,29.87
1630059110437,31.74
1630059110453,33.31
1630059110468,34.62
1630059110484,35.65
1630059110500,36.37
1630059110515,36.84
1630059110531,37.17
1630059110546,37.48
1630059110562,37.86
1630059110578,38.32
1630059110593,38.8
1630059110609,39.19
1630059110625,39.37
1630059110640,39.18
1630059110656,38.53
1630059110671,37.3
1630059110687,35.47
1630059110703,33.09
1630059110718,30.34
1630059110734,27.48
1630059110750,24.74
1630059110765,22.31
1630059110781,20.21
1630059110796,18.25
1630059110812,16.17
1630059110828,13.64
1630059110843,10.54
1630059110859,6.95
1630059110875,3.24
1630059110890,-0.19
1630059110906,-3.09
1630059110921,-5.52
1630059110937,-7.83
1630059110953,-10.45
1630059110968,-13.67
1630059110984,-17.45
1630059111000,-21.49
1630059111015,-25.46
1630059111031,-29.17
1630059111046,-32.65
1630059111062,-36.1
1630059111078,-39.76
1630059111093,-43.83
1630059111109,-48.4
1630059111125,-53.43
1630059111140,-58.69
1630059111156,-63.63
1630059111171,-67.35
1630059111187,-68.76
1630059111203,-66.9
1630059111218,-61.37
1630059111234,-52.45
1630059111250,-41.17
1630059111265,-28.89
1630059111281,-16.91
1630059111296,-6.15
1630059111312,2.97
1630059111328,10.39
1630059111343,16.25
1630059111359,20.65
1630059111375,23.7
1630059111390,25.5
1630059111406,26.25
1630059111421,26.3
1630059111437,26.08
1630059111453,25.96
1630059111468,26.21
1630059111484,26.87
1630059111500,27.82
1630059111515,28.84
1630059111531,29.72
1630059111546,30.32
1630059111562,30.65
1630059111578,30.8
1630059111593,30.84
1630059111609,30.8
1630059111625,30.52
1630059111640,29.79
1630059111656,28.38
1630059111671,26.2
1630059111687,23.39
1630059111703,20.31
1630059111718,17.35
1630059111734,14.78
1630059111750,12.58
1630059111765,10.5
1630059111781,8.16
1630059111796,5.26
1630059111812,1.69
1630059111828,-2.39
1630059111843,-6.69
1630059111859,-10.87
1630059111875,-14.67
1630059111890,-17.96
1630059111906,-20.81
1630059111921,-23.44
1630059111937,-26.25
1630059111953,-29.73
1630059111968,-34.25
1630059111984,-39.84
1630059112000,-46.02
1630059112015,-51.78
1630059112031,-55.78
1630059112046,-56.76
1630059112062,-53.94
1630059112078,-47.32
1630059112093,-37.69
1630059112109,-26.36
1630059112125,-14.85
1630059112140,-4.38
1630059112156,4.33
1630059112171,11.08
1630059112187,16.11
1630059112203,19.79
1630059112218,22.45
1630059112234,24.29
1630059112250,25.39
1630059112265,25.81
1630059112281,25.66
1630059112296,25.12
1630059112312,24.4
1630059112328,23.72
1630059112343,23.26
1630059112359,23.13
1630059112375,23.36
1630059112390,23.88
1630059112406,24.5
1630059112421,25.0
1630059112437,25.14
1630059112453,24.74
1630059112468,23.74
1630059112484,22.13
1630059112500,20.02
1630059112515,17.56
1630059112531,14.91
1630059112546,12.2
1630059112562,9.47
1630059112578,6.62
1630059112593,3.46
1630059112609,-0.2
1630059112625,-4.4
1630059112640,-8.98
1630059112656,-13.57
1630059112671,-17.83
1630059112687,-21.54
1630059112703,-24.78
1630059112718,-27.82
1630059112734,-31.04
1630059112750,-34.75
1630059112765,-39.07
1630059112781,-43.87
1630059112796,-48.68
1630059112812,-52.78
1630059112828,-55.23
1630059112843,-55.14
1630059112859,-51.88
1630059112875,-45.4
1630059112890,-36.26
1630059112906,-25.53
1630059112921,-14.45
1630059112937,-4.09
1630059112953,4.85
1630059112968,12.14
1630059112984,17.83
1630059113000,22.15
1630059113015,25.33
1630059113031,27.57
1630059113046,29.06
1630059113062,29.96
1630059113078,30.45
1630059113093,30.72
1630059113109,30.88
1630059113125,31.01
1630059113140,31.11
1630059113156,31.16
1630059113171,31.17
1630059113187,31.2
1630059113203,31.3
1630059113218,31.48
1630059113234,31.68
1630059113250,31.73
1630059113265,31.47
1630059113281,30.77
1630059113296,29.59
1630059113312,27.96
1630059113328,25.91
1630059113343,23.39
1630059113359,20.35
1630059113375,16.88
1630059113390,13.2
1630059113406,9.7
1630059113421,6.72
1630059113437,4.37
1630059113453,2.45
1630059113468,0.48
1630059113484,-2.04
1630059113500,-5.35
1630059113515,-9.33
1630059113531,-13.56
1630059113546,-17.58
1630059113562,-21.06
1630059113578,-23.99
1630059113593,-26.57
1630059113609,-29.17
1630059113625,-32.1
1630059113640,-35.62
1630059113656,-39.89
1630059113671,-44.99
1630059113687,-50.85
1630059113703,-57.08
1630059113718,-62.86
1630059113734,-67.01
1630059113750,-68.25
1630059113765,-65.62
1630059113781,-58.84
1630059113796,-48.54
1630059113812,-36.06
1630059113828,-23.06
1630059113843,-11.01
1630059113859,-0.87
1630059113875,7.03
1630059113890,12.88
1630059113906,17.09
1630059113921,20.11
1630059113937,22.27
1630059113953,23.77
1630059113968,24.79
1630059113984,25.51
1630059114000,26.11
1630059114015,26.75
1630059114031,27.5
1630059114046,28.34
1630059114062,29.18
1630059114078,29.93
1630059114093,30.55
1630059114109,31.07
1630059114125,31.58
1630059114140,32.16
1630059114156,32.8
1630059114171,33.43
1630059114187,33.89
1630059114203,33.97
1630059114218,33.52
1630059114234,32.45
1630059114250,30.75
1630059114265,28.49
1630059114281,25.84
1630059114296,23.03
1630059114312,20.37
1630059114328,18.12
1630059114343,16.41
1630059114359,15.14
1630059114375,14.0
1630059114390,12.57
1630059114406,10.56
1630059114421,7.91
1630059114437,4.85
1630059114453,1.75
1630059114468,-1.07
1630059114484,-3.51
1630059114500,-5.77
1630059114515,-8.18
1630059114531,-11.04
1630059114546,-14.45
1630059114562,-18.29
1630059114578,-22.28
1630059114593,-26.18
1630059114609,-29.83
1630059114625,-33.23
1630059114640,-36.46
1630059114656,-39.69
1630059114671,-43.07
1630059114687,-46.81
1630059114703,-51.1
1630059114718,-56.07
1630059114734,-61.57
1630059114750,-67.07
1630059114765,-71.54
1630059114781,-73.73
1630059114796,-72.47
1630059114812,-67.17
1630059114828,-58.06
1630059114843,-46.22
1630059114859,-33.22
1630059114875,-20.62
1630059114890,-9.5
1630059114906,-0.29
1630059114921,7.11
1630059114937,13.0
1630059114953,17.62
1630059114968,21.01
1630059114984,23.13
1630059115000,24.08
1630059115015,24.21
1630059115031,24.04
1630059115046,24.08
1630059115062,24.61
1630059115078,25.62
1630059115093,26.89
1630059115109,28.17
1630059115125,29.27
1630059115140,30.17
1630059115156,30.89
1630059115171,31.42
1630059115187,31.69
1630059115203,31.64
1630059115218,31.22
1630059115234,30.46
1630059115250,29.41
1630059115265,28.09
1630059115281,26.51
1630059115296,24.64
1630059115312,22.53
1630059115328,20.23
1630059115343,17.85
1630059115359,15.48
1630059115375,13.14
1630059115390,10.82
1630059115406,8.46
1630059115421,6.01
1630059115437,3.39
1630059115453,0.58
1630059115468,-2.45
1630059115484,-5.67
1630059115500,-9.03
1630059115515,-12.43
1630059115531,-15.81
1630059115546,-19.1
1630059115562,-22.33
1630059115578,-25.59
1630059115593,-29.07
1630059115609,-33.0
1630059115625,-37.59
1630059115640,-42.86
1630059115656,-48.47
1630059115671,-53.66
1630059115687,-57.32
1630059115703,-58.32
1630059115718,-55.84
1630059115734,-49.74
1630059115750,-40.65
1630059115765,-29.79
1630059115781,-18.55
1630059115796,-8.11
1630059115812,0.88
1630059115828,8.22
1630059115843,14.04
1630059115859,18.51
1630059115875,21.78
1630059115890,23.89
1630059115906,24.91
1630059115921,25.02
1630059115937,24.51
1630059115953,23.7
1630059115968,22.92
1630059115984,22.34
1630059116000,22.03
1630059116015,21.99
1630059116031,22.19
1630059116046,22.59
1630059116062,23.17
1630059116078,23.84
1630059116093,24.43
1630059116109,24.76
1630059116125,24.59
1630059116140,23.77
1630059116156,22.25
1630059116171,20.14
1630059116187,17.65
1630059116203,15.05
1630059116218,12.56
1630059116234,10.24
1630059116250,8.0
1630059116265,5.63
1630059116281,2.9
1630059116296,-0.33
1630059116312,-4.01
1630059116328,-7.91
1630059116343,-11.72
1630059116359,-15.19
1630059116375,-18.28
1630059116390,-21.17
1630059116406,-24.22
1630059116421,-27.78
1630059116437,-32.04
1630059116453,-36.83
1630059116468,-41.62
1630059116484,-45.57
1630059116500,-47.68
1630059116515,-47.08
1630059116531,-43.27
1630059116546,-36.26
1630059116562,-26.71
1630059116578,-15.71
1630059116593,-4.56
1630059116609,5.59
1630059116625,13.93
1630059116640,20.15
1630059116656,24.31
1630059116671,26.69
1630059116687,27.61
1630059116703,27.41
1630059116718,26.41
1630059116734,24.97
1630059116750,23.43
1630059116765,22.1
1630059116781,21.14
1630059116796,20.55
1630059116812,20.22
1630059116828,19.97
1630059116843,19.63
1630059116859,19.07
1630059116875,18.22
1630059116890,17.08
1630059116906,15.7
1630059116921,14.14
1630059116937,12.47
1630059116953,10.66
1630059116968,8.61
1630059116984,6.2
1630059117000,3.28
1630059117015,-0.17
1630059117031,-4.07
1630059117046,-8.26
1630059117062,-12.55
1630059117078,-16.73
1630059117093,-20.72
1630059117109,-24.47
1630059117125,-28.08
1630059117140,-31.73
1630059117156,-35.68
1630059117171,-40.12
1630059117187,-45.0
1630059117203,-49.91
1630059117218,-54.03
1630059117234,-56.37
1630059117250,-55.98
1630059117265,-52.36
1630059117281,-45.64
1630059117296,-36.52
1630059117312,-26.11
1630059117328,-15.53
1630059117343,-5.65
1630059117359,3.07
1630059117375,10.53
1630059117390,16.85
1630059117406,22.15
1630059117421,26.43
1630059117437,29.67
1630059117453,31.8
1630059117468,32.93
1630059117484,33.26
1630059117500,33.1
1630059117515,32.78
1630059117531,32.57
1630059117546,32.6
1630059117562,32.98
1630059117578,33.68
1630059117593,34.63
1630059117609,35.69
1630059117625,36.63
1630059117640,37.25
1630059117656,37.37
1630059117671,36.97
1630059117687,36.13
1630059117703,34.98
1630059117718,33.66
1630059117734,32.22
1630059117750,30.63
1630059117765,28.79
1630059117781,26.66
1630059117796,24.29
1630059117812,21.8
1630059117828,19.33
1630059117843,16.98
1630059117859,14.73
1630059117875,12.47
1630059117890,10.08
1630059117906,7.54
1630059117921,4.93
1630059117937,2.41
1630059117953,0.14
1630059117968,-1.91
1630059117984,-3.94
1630059118000,-6.27
1630059118015,-9.21
1630059118031,-12.89
1630059118046,-17.19
1630059118062,-21.76
1630059118078,-26.18
1630059118093,-30.09
1630059118109,-33.35
1630059118125,-36.05
1630059118140,-38.55
1630059118156,-41.31
1630059118171,-44.83
1630059118187,-49.45
1630059118203,-55.18
1630059118218,-61.58
1630059118234,-67.72
1630059118250,-72.32
1630059118265,-74.04
1630059118281,-71.87
1630059118296,-65.44
1630059118312,-55.22
1630059118328,-42.4
1630059118343,-28.6
1630059118359,-15.44
1630059118375,-4.09
1630059118390,4.91
1630059118406,11.67
1630059118421,16.72
1630059118437,20.72
1630059118453,24.16
1630059118468,27.27
1630059118484,30.05
1630059118500,32.41
1630059118515,34.3
1630059118531,35.74
1630059118546,36.8
1630059118562,37.54
1630059118578,37.99
1630059118593,38.14
1630059118609,38.06
1630059118625,37.87
1630059118640,37.78
1630059118656,37.97
1630059118671,38.52
1630059118687,39.34
1630059118703,40.14
1630059118718,40.58
1630059118734,40.29
1630059118750,39.08
1630059118765,36.97
1630059118781,34.2
1630059118796,31.17
1630059118812,28.28
1630059118828,25.81
1630059118843,23.84
1630059118859,22.28
1630059118875,20.88
1630059118890,19.41
1630059118906,17.63
1630059118921,15.46
1630059118937,12.88
1630059118953,9.99
1630059118968,6.95
1630059118984,3.91
1630059119000,1.01
1630059119015,-1.66
1630059119031,-4.07
1630059119046,-6.23
1630059119062,-8.25
1630059119078,-10.28
1630059119093,-12.55
1630059119109,-15.33
1630059119125,-18.75
1630059119140,-22.78
1630059119156,-27.16
1630059119171,-31.51
1630059119187,-35.47
1630059119203,-38.91
1630059119218,-42.03
1630059119234,-45.25
1630059119250,-49.02
1630059119265,-53.59
1630059119281,-58.77
1630059119296,-63.89
1630059119312,-67.95
1630059119328,-69.87
1630059119343,-68.81
1630059119359,-64.37
1630059119375,-56.78
1630059119390,-46.77
1630059119406,-35.38
1630059119421,-23.8
1630059119437,-13.02
1630059119453,-3.74
1630059119468,3.74
1630059119484,9.47
1630059119500,13.7
1630059119515,16.83
1630059119531,19.22
1630059119546,21.15
1630059119562,22.8
1630059119578,24.28
1630059119593,25.6
1630059119609,26.78
1630059119625,27.78
1630059119640,28.59
1630059119656,29.2
1630059119671,29.64
1630059119687,30.02
1630059119703,30.45
1630059119718,31.03
1630059119734,31.74
1630059119750,32.41
1630059119765,32.78
1630059119781,32.58
1630059119796,31.7
1630059119812,30.2
1630059119828,28.28
1630059119843,26.17
1630059119859,23.99
1630059119875,21.7
1630059119890,19.14
1630059119906,16.22
1630059119921,13.0
1630059119937,9.68
1630059119953,6.59
1630059119968,3.95
1630059119984,1.81
1630059120000,0.01
1630059120015,-1.71
1630059120031,-3.64
1630059120046,-5.92
1630059120062,-8.61
1630059120078,-11.62
1630059120093,-14.8
1630059120109,-18.0
1630059120125,-21.1
1630059120140,-24.01
1630059120156,-26.75
1630059120171,-29.43
1630059120187,-32.2
1630059120203,-35.35
1630059120218,-39.07
1630059120234,-43.33
1630059120250,-47.72
1630059120265,-51.41
1630059120281,-53.31
1630059120296,-52.39
1630059120312,-48.08
1630059120328,-40.55
1630059120343,-30.65
1630059120359,-19.7
1630059120375,-9.04
1630059120390,0.3
1630059120406,7.81
1630059120421,13.42
1630059120437,17.36
1630059120453,19.95
1630059120468,21.5
1630059120484,22.25
1630059120500,22.38
1630059120515,22.08
1630059120531,21.52
1630059120546,20.93
1630059120562,20.53
1630059120578,20.52
1630059120593,21.01
1630059120609,21.92
1630059120625,23.02
1630059120640,23.98
1630059120656,24.57
1630059120671,24.7
1630059120687,24.5
1630059120703,24.14
1630059120718,23.7
1630059120734,23.08
1630059120750,22.05
1630059120765,20.37
1630059120781,17.96
1630059120796,15.0
1630059120812,11.8
1630059120828,8.73
1630059120843,6.0
1630059120859,3.6
1630059120875,1.32
1630059120890,-1.15
1630059120906,-4.05
1630059120921,-7.44
1630059120937,-11.15
1630059120953,-14.88
1630059120968,-18.28
1630059120984,-21.15
1630059121000,-23.52
1630059121015,-25.67
1630059121031,-28.07
1630059121046,-31.16
1630059121062,-35.24
1630059121078,-40.21
1630059121093,-45.61
1630059121109,-50.63
1630059121125,-54.28
1630059121140,-55.6
1630059121156,-53.9
1630059121171,-49.0
1630059121187,-41.25
1630059121203,-31.48
1630059121218,-20.79
1630059121234,-10.36
1630059121250,-1.12
1630059121265,6.37
1630059121281,11.95
1630059121296,15.86
1630059121312,18.52
1630059121328,20.41
1630059121343,21.88
1630059121359,23.11
1630059121375,24.1
1630059121390,24.75
1630059121406,25.04
1630059121421,25.0
1630059121437,24.81
1630059121453,24.67
1630059121468,24.71
1630059121484,25.0
1630059121500,25.52
1630059121515,26.18
1630059121531,26.9
1630059121546,27.59
1630059121562,28.05
1630059121578,28.04
1630059121593,27.29
1630059121609,25.62
1630059121625,23.04
1630059121640,19.76
1630059121656,16.17
1630059121671,12.69
1630059121687,9.65
1630059121703,7.13
1630059121718,5.01
1630059121734,2.93
1630059121750,0.52
1630059121765,-2.55
1630059121781,-6.34
1630059121796,-10.66
1630059121812,-15.06
1630059121828,-19.03
1630059121843,-22.25
1630059121859,-24.7
1630059121875,-26.77
1630059121890,-29.13
1630059121906,-32.45
1630059121921,-37.11
1630059121937,-42.98
1630059121953,-49.34
1630059121968,-55.0
1630059121984,-58.7
1630059122000,-59.34
1630059122015,-56.43
1630059122031,-50.12
1630059122046,-41.17
1630059122062,-30.65
1630059122078,-19.73
1630059122093,-9.37
1630059122109,-0.22
1630059122125,7.41
1630059122140,13.49
1630059122156,18.18
1630059122171,21.71
1630059122187,24.33
1630059122203,26.25
1630059122218,27.63
1630059122234,28.6
1630059122250,29.26
1630059122265,29.71
1630059122281,30.05
1630059122296,30.37
1630059122312,30.72
1630059122328,31.16
1630059122343,31.71
1630059122359,32.32
1630059122375,32.88
1630059122390,33.18
1630059122406,33.05
1630059122421,32.4
1630059122437,31.33
1630059122453,30.06
1630059122468,28.83
1630059122484,27.75
1630059122500,26.71
1630059122515,25.41
1630059122531,23.52
1630059122546,20.9
1630059122562,17.63
1630059122578,14.02
1630059122593,10.45
1630059122609,7.23
1630059122625,4.43
1630059122640,1.9
1630059122656,-0.64
1630059122671,-3.42
1630059122687,-6.56
1630059122703,-9.98
1630059122718,-13.47
1630059122734,-16.85
1630059122750,-20.06
1630059122765,-23.21
1630059122781,-26.53
1630059122796,-30.2
1630059122812,-34.32
1630059122828,-38.9
1630059122843,-43.89
1630059122859,-49.13
1630059122875,-54.31
1630059122890,-58.84
1630059122906,-61.86
1630059122921,-62.39
1630059122937,-59.67
1630059122953,-53.47
1630059122968,-44.25
1630059122984,-33.05
1630059123000,-21.2
1630059123015,-9.92
1630059123031,-0.08
1630059123046,7.92
1630059123062,14.08
1630059123078,18.68
1630059123093,22.08
1630059123109,24.66
1630059123125,26.63
1630059123140,28.13
1630059123156,29.19
1630059123171,29.84
1630059123187,30.24
1630059123203,30.6
1630059123218,31.14
1630059123234,31.93
1630059123250,32.87
1630059123265,33.69
1630059123281,34.11
1630059123296,34.04
1630059123312,33.59
1630059123328,33.01
1630059123343,32.52
1630059123359,32.13
1630059123375,31.7
1630059123390,30.94
1630059123406,29.69
1630059123421,27.92
1630059123437,25.78
1630059123453,23.47
1630059123468,21.11
1630059123484,18.67
1630059123500,16.01
1630059123515,13.01
1630059123531,9.72
1630059123546,6.36
1630059123562,3.29
1630059123578,0.77
1630059123593,-1.16
1630059123609,-2.73
1630059123625,-4.4
1630059123640,-6.58
1630059123656,-9.54
1630059123671,-13.24
1630059123687,-17.38
1630059123703,-21.52
1630059123718,-25.27
1630059123734,-28.46
1630059123750,-31.18
1630059123765,-33.75
1630059123781,-36.61
1630059123796,-40.13
1630059123812,-44.5
1630059123828,-49.5
1630059123843,-54.51
1630059123859,-58.53
1630059123875,-60.52
1630059123890,-59.6
1630059123906,-55.37
1630059123921,-48.08
1630059123937,-38.46
1630059123953,-27.56
1630059123968,-16.44
1630059123984,-5.99
1630059124000,3.17
1630059124015,10.64
1630059124031,16.26
1630059124046,20.06
1630059124062,22.29
1630059124078,23.36
1630059124093,23.78
1630059124109,23.99
1630059124125,24.28
1630059124140,24.73
1630059124156,25.29
1630059124171,25.83
1630059124187,26.26
1630059124203,26.57
1630059124218,26.78
1630059124234,26.93
1630059124250,27.03
1630059124265,27.04
1630059124281,26.91
1630059124296,26.6
1630059124312,26.12
1630059124328,25.48
1630059124343,24.67
1630059124359,23.64
1630059124375,22.25
1630059124390,20.39
1630059124406,18.03
1630059124421,15.34
1630059124437,12.54
1630059124453,9.9
1630059124468,7.56
1630059124484,5.48
1630059124500,3.42
1630059124515,1.16
1630059124531,-1.45
1630059124546,-4.38
1630059124562,-7.47
1630059124578,-10.51
1630059124593,-13.38
1630059124609,-16.06
1630059124625,-18.65
1630059124640,-21.28
1630059124656,-24.13
1630059124671,-27.31
1630059124687,-30.93
1630059124703,-35.01
1630059124718,-39.36
1630059124734,-43.56
1630059124750,-46.87
1630059124765,-48.39
1630059124781,-47.31
1630059124796,-43.16
1630059124812,-36.05
1630059124828,-26.7
1630059124843,-16.25
1630059124859,-5.88
1630059124875,3.37
1630059124890,10.92
1630059124906,16.57
1630059124921,20.38
1630059124937,22.62
1630059124953,23.57
1630059124968,23.54
1630059124984,22.85
1630059125000,21.83
1630059125015,20.78
1630059125031,19.95
1630059125046,19.53
1630059125062,19.58
1630059125078,20.1
1630059125093,20.99
1630059125109,22.06
1630059125125,23.12
1630059125140,23.96
1630059125156,24.39
1630059125171,24.28
1630059125187,23.61
1630059125203,22.38
1630059125218,20.67
1630059125234,18.53
1630059125250,16.05
1630059125265,13.32
1630059125281,10.47
1630059125296,7.62
1630059125312,4.79
1630059125328,1.97
1630059125343,-0.95
1630059125359,-4.01
1630059125375,-7.26
1630059125390,-10.65
1630059125406,-14.05
1630059125421,-17.37
1630059125437,-20.52
1630059125453,-23.52
1630059125468,-26.49
1630059125484,-29.67
1630059125500,-33.32
1630059125515,-37.61
1630059125531,-42.42
1630059125546,-47.21
1630059125562,-51.04
1630059125578,-52.76
1630059125593,-51.42
1630059125609,-46.64
1630059125625,-38.77
1630059125640,-28.8
1630059125656,-18.04
1630059125671,-7.7
1630059125687,1.37
1630059125703,8.8
1630059125718,14.57
1630059125734,18.84
1630059125750,21.88
1630059125765,23.88
1630059125781,25.09
1630059125796,25.76
1630059125812,26.15
1630059125828,26.48
1630059125843,26.91
1630059125859,27.47
1630059125875,28.09
1630059125890,28.67
1630059125906,29.15
1630059125921,29.5
1630059125937,29.73
1630059125953,29.83
1630059125968,29.78
1630059125984,29.52
1630059126000,29.05
1630059126015,28.37
1630059126031,27.56
1630059126046,26.65
1630059126062,25.6
1630059126078,24.31
1630059126093,22.59
1630059126109,20.36
1630059126125,17.58
1630059126140,14.33
1630059126156,10.79
1630059126171,7.2
1630059126187,3.86
1630059126203,0.99
1630059126218,-1.31
1630059126234,-3.13
1630059126250,-4.77
1630059126265,-6.66
1630059126281,-9.13
1630059126296,-12.32
1630059126312,-16.05
1630059126328,-19.91
1630059126343,-23.53
1630059126359,-26.66
1630059126375,-29.4
1630059126390,-32.04
1630059126406,-34.98
1630059126421,-38.56
1630059126437,-42.96
1630059126453,-48.14
1630059126468,-53.74
1630059126484,-59.04
1630059126500,-63.01
1630059126515,-64.53
1630059126531,-62.69
1630059126546,-57.11
1630059126562,-48.14
1630059126578,-36.8
1630059126593,-24.51
1630059126609,-12.66
1630059126625,-2.35
1630059126640,5.84
1630059126656,11.82
1630059126671,15.87
1630059126687,18.47
1630059126703,20.18
1630059126718,21.45
1630059126734,22.64
1630059126750,23.9
1630059126765,25.22
1630059126781,26.53
1630059126796,27.71
1630059126812,28.71
1630059126828,29.52
1630059126843,30.14
1630059126859,30.6
1630059126875,30.91
1630059126890,31.11
1630059126906,31.2
1630059126921,31.22
1630059126937,31.17
1630059126953,30.97
1630059126968,30.54
1630059126984,29.78
1630059127000,28.64
1630059127015,27.12
1630059127031,25.3
1630059127046,23.25
1630059127062,21.02
1630059127078,18.61
1630059127093,15.98
1630059127109,13.13
1630059127125,10.1
1630059127140,7.05
1630059127156,4.16
1630059127171,1.54
1630059127187,-0.79
1630059127203,-2.99
1630059127218,-5.31
1630059127234,-8.01
1630059127250,-11.27
1630059127265,-15.09
1630059127281,-19.31
1630059127296,-23.62
1630059127312,-27.66
1630059127328,-31.16
1630059127343,-34.04
1630059127359,-36.47
1630059127375,-38.86
1630059127390,-41.81
1630059127406,-45.8
1630059127421,-51.01
1630059127437,-57.08
1630059127453,-63.01
1630059127468,-67.43
1630059127484,-68.94
1630059127500,-66.59
1630059127515,-60.22
1630059127531,-50.5
1630059127546,-38.73
1630059127562,-26.36
1630059127578,-14.64
1630059127593,-4.39
1630059127609,3.98
1630059127625,10.41
1630059127640,14.96
1630059127656,17.87
1630059127671,19.52
1630059127687,20.43
1630059127703,21.13
1630059127718,22.0
1630059127734,23.15
1630059127750,24.41
1630059127765,25.5
1630059127781,26.22
1630059127796,26.53
1630059127812,26.63
1630059127828,26.74
1630059127843,27.03
1630059127859,27.55
1630059127875,28.19
1630059127890,28.79
1630059127906,29.18
1630059127921,29.21
1630059127937,28.76
1630059127953,27.69
1630059127968,25.98
1630059127984,23.61
1630059128000,20.73
1630059128015,17.58
1630059128031,14.41
1630059128046,11.45
1630059128062,8.78
1630059128078,6.34
1630059128093,3.91
1630059128109,1.24
1630059128125,-1.82
1630059128140,-5.26
1630059128156,-8.9
1630059128171,-12.49
1630059128187,-15.8
1630059128203,-18.78
1630059128218,-21.49
1630059128234,-24.15
1630059128250,-26.99
1630059128265,-30.28
1630059128281,-34.23
1630059128296,-38.88
1630059128312,-43.96
1630059128328,-48.83
1630059128343,-52.52
1630059128359,-53.94
1630059128375,-52.27
1630059128390,-47.25
1630059128406,-39.33
1630059128421,-29.48
1630059128437,-18.89
1630059128453,-8.6
1630059128468,0.68
1630059128484,8.58
1630059128500,14.99
1630059128515,19.85
1630059128531,23.16
1630059128546,24.99
1630059128562,25.53
1630059128578,25.11
1630059128593,24.14
1630059128609,23.03
1630059128625,22.09
1630059128640,21.53
1630059128656,21.49
1630059128671,22.01
1630059128687,23.08
1630059128703,24.53
1630059128718,26.07
1630059128734,27.3
1630059128750,27.83
1630059128765,27.44
1630059128781,26.16
1630059128796,24.22
1630059128812,21.94
1630059128828,19.58
1630059128843,17.23
1630059128859,14.8
1630059128875,12.13
1630059128890,9.08
1630059128906,5.63
1630059128921,1.84
1630059128937,-2.17
1630059128953,-6.26
1630059128968,-10.26
1630059128984,-14.05
1630059129000,-17.56
1630059129015,-20.87
1630059129031,-24.21
1630059129046,-27.92
1630059129062,-32.32
1630059129078,-37.44
1630059129093,-42.89
1630059129109,-47.79
1630059129125,-50.98
1630059129140,-51.38
1630059129156,-48.34
1630059129171,-41.88
1630059129187,-32.71
1630059129203,-21.95
1630059129218,-10.88
1630059129234,-0.56
1630059129250,8.3
1630059129265,15.4
1630059129281,20.75
1630059129296,24.55
1630059129312,27.11
1630059129328,28.75
1630059129343,29.75
1630059129359,30.34
1630059129375,30.66
1630059129390,30.83
1630059129406,30.93
1630059129421,30.99
1630059129437,31.06
1630059129453,31.14
1630059129468,31.24
1630059129484,31.37
1630059129500,31.51
1630059129515,31.61
1630059129531,31.54
1630059129546,31.13
1630059129562,30.22
1630059129578,28.77
1630059129593,26.81
1630059129609,24.46
1630059129625,21.85
1630059129640,19.05
1630059129656,16.1
1630059129671,13.03
1630059129687,9.92
1630059129703,6.82
1630059129718,3.73
1630059129734,0.58
1630059129750,-2.79
1630059129765,-6.54
1630059129781,-10.62
1630059129796,-14.82
1630059129812,-18.8
1630059129828,-22.24
1630059129843,-25.08
1630059129859,-27.53
1630059129875,-30.08
1630059129890,-33.26
1630059129906,-37.52
1630059129921,-42.93
1630059129937,-49.07
1630059129953,-55.06
1630059129968,-59.67
1630059129984,-61.68
1630059130000,-60.21
1630059130015,-55.03
1630059130031,-46.59
1630059130046,-35.91
1630059130062,-24.28
1630059130078,-12.9
1630059130093,-2.69
1630059130109,5.89
1630059130125,12.7
1630059130140,17.91
1630059130156,21.83
1630059130171,24.8
1630059130187,27.16
1630059130203,29.14
1630059130218,30.86
1630059130234,32.32
1630059130250,33.49
1630059130265,34.33
1630059130281,34.83
1630059130296,35.01
1630059130312,34.95
1630059130328,34.81
1630059130343,34.72
1630059130359,34.86
1630059130375,35.34
1630059130390,36.12
1630059130406,37.02
1630059130421,37.73
1630059130437,37.88
1630059130453,37.22
1630059130468,35.69
1630059130484,33.47
1630059130500,30.92
1630059130515,28.39
1630059130531,26.14
1630059130546,24.21
1630059130562,22.49
1630059130578,20.83
1630059130593,19.11
1630059130609,17.31
1630059130625,15.42
1630059130640,13.38
1630059130656,11.09
1630059130671,8.41
1630059130687,5.36
1630059130703,2.12
1630059130718,-0.98
1630059130734,-3.64
1630059130750,-5.75
1630059130765,-7.5
1630059130781,-9.26
1630059130796,-11.46
1630059130812,-14.38
1630059130828,-17.98
1630059130843,-21.98
1630059130859,-26.01
1630059130875,-29.71
1630059130890,-32.94
1630059130906,-35.75
1630059130921,-38.4
1630059130937,-41.23
1630059130953,-44.62
1630059130968,-48.82
1630059130984,-53.84
1630059131000,-59.35
1630059131015,-64.64
1630059131031,-68.67
1630059131046,-70.3
1630059131062,-68.53
1630059131078,-62.9
1630059131093,-53.62
1630059131109,-41.67
1630059131125,-28.49
1630059131140,-15.68
1630059131156,-4.48
1630059131171,4.36
1630059131187,10.75
1630059131203,15.07
1630059131218,17.92
1630059131234,19.87
1630059131250,21.33
1630059131265,22.52
1630059131281,23.54
1630059131296,24.43
1630059131312,25.25
1630059131328,26.05
1630059131343,26.86
1630059131359,27.65
1630059131375,28.35
1630059131390,28.89
1630059131406,29.21
1630059131421,29.32
1630059131437,29.35
1630059131453,29.41
1630059131468,29.64
1630059131484,30.03
1630059131500,30.38
1630059131515,30.38
1630059131531,29.7
1630059131546,28.1
1630059131562,25.55
1630059131578,22.27
1630059131593,18.64
1630059131609,15.09
1630059131625,11.91
1630059131640,9.26
1630059131656,7.09
1630059131671,5.2
1630059131687,3.38
1630059131703,1.42
1630059131718,-0.77
1630059131734,-3.22
1630059131750,-5.9
1630059131765,-8.79
1630059131781,-11.83
1630059131796,-14.98
1630059131812,-18.13
1630059131828,-21.18
1630059131843,-24.09
1630059131859,-26.95
1630059131875,-30.04
1630059131890,-33.66
1630059131906,-37.93
1630059131921,-42.56
1630059131937,-46.73
1630059131953,-49.28
1630059131968,-49.1
1630059131984,-45.53
1630059132000,-38.64
1630059132015,-29.26
1630059132031,-18.64
1630059132046,-8.09
1630059132062,1.34
1630059132078,9.08
1630059132093,15.0
1630059132109,19.2
1630059132125,21.88
1630059132140,23.25
1630059132156,23.55
1630059132171,23.05
1630059132187,22.19
1630059132203,21.44
1630059132218,21.2
1630059132234,21.67
1630059132250,22.79
1630059132265,24.24
1630059132281,25.67
1630059132296,26.74
1630059132312,27.35
1630059132328,27.56
1630059132343,27.57
1630059132359,27.48
1630059132375,27.24
1630059132390,26.66
1630059132406,25.48
1630059132421,23.54
1630059132437,20.86
1630059132453,17.68
1630059132468,14.35
1630059132484,11.17
1630059132500,8.27
1630059132515,5.55
1630059132531,2.8
1630059132546,-0.26
1630059132562,-3.72
1630059132578,-7.48
1630059132593,-11.28
1630059132609,-14.86
1630059132625,-18.03
1630059132640,-20.76
1630059132656,-23.22
1630059132671,-25.68
1630059132687,-28.51
1630059132703,-32.04
1630059132718,-36.46
1630059132734,-41.7
1630059132750,-47.3
1630059132765,-52.45
1630059132781,-56.06
1630059132796,-57.06
1630059132812,-54.71
1630059132828,-48.9
1630059132843,-40.2
1630059132859,-29.77
1630059132875,-19.02
1630059132890,-9.2
1630059132906,-1.07
1630059132921,5.18
1630059132937,9.83
1630059132953,13.37
1630059132968,16.25
1630059132984,18.73
1630059133000,20.9
1630059133015,22.73
1630059133031,24.19
1630059133046,25.28
1630059133062,26.06
1630059133078,26.57
1630059133093,26.85
1630059133109,26.94
1630059133125,26.91
1630059133140,26.89
1630059133156,27.02
1630059133171,27.36
1630059133187,27.87
1630059133203,28.41
1630059133218,28.76
1630059133234,28.68
1630059133250,27.99
1630059133265,26.53
1630059133281,24.24
1630059133296,21.17
1630059133312,17.55
1630059133328,13.75
1630059133343,10.24
1630059133359,7.41
1630059133375,5.36
1630059133390,3.87
1630059133406,2.41
1630059133421,0.39
1630059133437,-2.55
1630059133453,-6.41
1630059133468,-10.81
1630059133484,-15.2
1630059133500,-19.11
1630059133515,-22.32
1630059133531,-24.92
1630059133546,-27.26
1630059133562,-29.83
1630059133578,-33.05
1630059133593,-37.18
1630059133609,-42.19
1630059133625,-47.66
1630059133640,-52.76
1630059133656,-56.43
1630059133671,-57.61
1630059133687,-55.54
1630059133703,-50.08
1630059133718,-41.71
1630059133734,-31.49
1630059133750,-20.68
1630059133765,-10.44
1630059133781,-1.58
1630059133796,5.61
1630059133812,11.21
1630059133828,15.51
1630059133843,18.85
1630059133859,21.44
1630059133875,23.35
1630059133890,24.64
1630059133906,25.39
1630059133921,25.76
1630059133937,25.99
1630059133953,26.32
1630059133968,26.9
1630059133984,27.7
1630059134000,28.53
1630059134015,29.11
1630059134031,29.21
1630059134046,28.75
1630059134062,27.9
1630059134078,26.99
1630059134093,26.35
1630059134109,26.15
1630059134125,26.31
1630059134140,26.52
1630059134156,26.41
1630059134171,25.7
1630059134187,24.32
1630059134203,22.43
1630059134218,20.28
1630059134234,18.11
1630059134250,16.01
1630059134265,13.93
1630059134281,11.77
1630059134296,9.47
1630059134312,7.07
1630059134328,4.72
1630059134343,2.61
1630059134359,0.86
1630059134375,-0.56
1630059134390,-1.84
1630059134406,-3.25
1630059134421,-5.09
1630059134437,-7.5
1630059134453,-10.39
1630059134468,-13.51
1630059134484,-16.5
1630059134500,-19.08
1630059134515,-21.16
1630059134531,-22.88
1630059134546,-24.53
1630059134562,-26.4
1630059134578,-28.74
1630059134593,-31.67
1630059134609,-35.26
1630059134625,-39.5
1630059134640,-44.2
1630059134656,-48.83
1630059134671,-52.52
1630059134687,-54.1
1630059134703,-52.55
1630059134718,-47.43
1630059134734,-39.09
1630059134750,-28.7
1630059134765,-17.83
1630059134781,-7.91
1630059134796,0.15
1630059134812,6.15
1630059134828,10.4
1630059134843,13.45
1630059134859,15.85
1630059134875,17.89
1630059134890,19.67
1630059134906,21.13
1630059134921,22.2
1630059134937,22.86
1630059134953,23.23
1630059134968,23.49
1630059134984,23.9
1630059135000,24.6
1630059135015,25.61
1630059135031,26.82
1630059135046,28.05
1630059135062,29.15
1630059135078,30.04
1630059135093,30.67
1630059135109,30.95
1630059135125,30.73
1630059135140,29.83
1630059135156,28.16
1630059135171,25.84
1630059135187,23.16
1630059135203,20.49
1630059135218,18.15
1630059135234,16.2
1630059135250,14.54
1630059135265,12.95
1630059135281,11.24
1630059135296,9.34
1630059135312,7.28
1630059135328,5.11
1630059135343,2.8
1630059135359,0.28
1630059135375,-2.56
1630059135390,-5.7
1630059135406,-8.99
1630059135421,-12.17
1630059135437,-15.02
1630059135453,-17.43
1630059135468,-19.49
1630059135484,-21.43
1630059135500,-23.55
1630059135515,-26.19
1630059135531,-29.61
1630059135546,-33.95
1630059135562,-39.05
1630059135578,-44.36
1630059135593,-48.98
1630059135609,-51.73
1630059135625,-51.54
1630059135640,-47.83
1630059135656,-40.75
1630059135671,-31.2
1630059135687,-20.54
1630059135703,-10.14
1630059135718,-1.07
1630059135734,6.17
1630059135750,11.56
1630059135765,15.36
1630059135781,17.9
1630059135796,19.54
1630059135812,20.56
1630059135828,21.2
1630059135843,21.7
1630059135859,22.22
1630059135875,22.83
1630059135890,23.52
1630059135906,24.19
1630059135921,24.7
1630059135937,25.02
1630059135953,25.16
1630059135968,25.2
1630059135984,25.22
1630059136000,25.31
1630059136015,25.48
1630059136031,25.65
1630059136046,25.71
1630059136062,25.49
1630059136078,24.85
1630059136093,23.71
1630059136109,22.11
1630059136125,20.16
1630059136140,18.05
1630059136156,15.92
1630059136171,13.84
1630059136187,11.8
1630059136203,9.75
1630059136218,7.7
1630059136234,5.69
1630059136250,3.82
1630059136265,2.12
1630059136281,0.51
1630059136296,-1.19
1630059136312,-3.13
1630059136328,-5.39
1630059136343,-7.94
1630059136359,-10.67
1630059136375,-13.43
1630059136390,-16.19
1630059136406,-18.95
1630059136421,-21.73
1630059136437,-24.48
1630059136453,-27.12
1630059136468,-29.53
1630059136484,-31.77
1630059136500,-34.12
1630059136515,-37.03
1630059136531,-40.88
1630059136546,-45.68
1630059136562,-50.86
1630059136578,-55.24
1630059136593,-57.41
1630059136609,-56.19
1630059136625,-51.14
1630059136640,-42.74
1630059136656,-32.25
1630059136671,-21.23
1630059136687,-11.05
1630059136703,-2.52
1630059136718,4.11
1630059136734,9.0
1630059136750,12.52
1630059136765,14.99
1630059136781,16.72
1630059136796,17.95
1630059136812,18.93
1630059136828,19.83
1630059136843,20.69
1630059136859,21.47
1630059136875,22.07
1630059136890,22.44
1630059136906,22.62
1630059136921,22.72
1630059136937,22.87
1630059136953,23.12
1630059136968,23.43
1630059136984,23.74
1630059137000,23.99
1630059137015,24.11
1630059137031,24.06
1630059137046,23.66
1630059137062,22.78
1630059137078,21.29
1630059137093,19.17
1630059137109,16.58
1630059137125,13.77
1630059137140,10.98
1630059137156,8.33
1630059137171,5.85
1630059137187,3.46
1630059137203,1.13
1630059137218,-1.14
1630059137234,-3.34
1630059137250,-5.46
1630059137265,-7.6
1630059137281,-9.9
1630059137296,-12.49
1630059137312,-15.42
1630059137328,-18.55
1630059137343,-21.68
1630059137359,-24.57
1630059137375,-27.13
1630059137390,-29.38
1630059137406,-31.56
1630059137421,-34.05
1630059137437,-37.23
1630059137453,-41.29
1630059137468,-46.07
1630059137484,-50.97
1630059137500,-54.95
1630059137515,-56.89
1630059137531,-55.88
1630059137546,-51.56
1630059137562,-44.23
1630059137578,-34.81
1630059137593,-24.48
1630059137609,-14.39
1630059137625,-5.42
1630059137640,1.93
1630059137656,7.5
1630059137671,11.37
1630059137687,13.81
1630059137703,15.2
1630059137718,15.95
1630059137734,16.44
1630059137750,16.92
1630059137765,17.5
1630059137781,18.16
1630059137796,18.78
1630059137812,19.22
1630059137828,19.38
1630059137843,19.25
1630059137859,18.89
1630059137875,18.48
1630059137890,18.23
1630059137906,18.3
1630059137921,18.76
1630059137937,19.47
1630059137953,20.12
1630059137968,20.33
1630059137984,19.77
1630059138000,18.34
1630059138015,16.15
1630059138031,13.5
1630059138046,10.75
1630059138062,8.12
1630059138078,5.67
1630059138093,3.27
1630059138109,0.73
1630059138125,-2.07
1630059138140,-5.12
1630059138156,-8.27
1630059138171,-11.31
1630059138187,-14.05
1630059138203,-16.46
1630059138218,-18.7
1630059138234,-21.03
1630059138250,-23.78
1630059138265,-27.19
1630059138281,-31.32
1630059138296,-35.9
1630059138312,-40.32
1630059138328,-43.71
1630059138343,-45.09
1630059138359,-43.7
1630059138375,-39.24
1630059138390,-32.04
1630059138406,-23.01
1630059138421,-13.39
1630059138437,-4.35
1630059138453,3.33
1630059138468,9.34
1630059138484,13.79
1630059138500,16.93
1630059138515,18.96
1630059138531,19.94
1630059138546,19.94
1630059138562,19.12
1630059138578,17.83
1630059138593,16.56
1630059138609,15.71
1630059138625,15.49
1630059138640,15.78
1630059138656,16.3
1630059138671,16.73
1630059138687,16.88
1630059138703,16.75
1630059138718,16.48
1630059138734,16.19
1630059138750,15.93
1630059138765,15.58
1630059138781,14.9
1630059138796,13.65
1630059138812,11.6
1630059138828,8.72
1630059138843,5.13
1630059138859,1.15
1630059138875,-2.84
1630059138890,-6.51
1630059138906,-9.7
1630059138921,-12.54
1630059138937,-15.37
1630059138953,-18.59
1630059138968,-22.52
1630059138984,-27.18
1630059139000,-32.24
1630059139015,-37.07
1630059139031,-40.83
1630059139046,-42.65
1630059139062,-41.85
1630059139078,-38.17
1630059139093,-31.83
1630059139109,-23.52
1630059139125,-14.26
1630059139140,-5.12
1630059139156,3.03
1630059139171,9.68
1630059139187,14.74
1630059139203,18.39
1630059139218,20.98
1630059139234,22.79
1630059139250,24.02
1630059139265,24.73
1630059139281,24.96
1630059139296,24.75
1630059139312,24.2
1630059139328,23.49
1630059139343,22.75
1630059139359,22.04
1630059139375,21.35
1630059139390,20.58
1630059139406,19.66
1630059139421,18.59
1630059139437,17.48
1630059139453,16.44
1630059139468,15.53
1630059139484,14.65
1630059139500,13.55
1630059139515,11.91
1630059139531,9.49
1630059139546,6.22
1630059139562,2.28
1630059139578,-1.95
1630059139593,-6.04
1630059139609,-9.7
1630059139625,-12.89
1630059139640,-15.82
1630059139656,-18.91
1630059139671,-22.64
1630059139687,-27.33
1630059139703,-32.99
1630059139718,-39.14
1630059139734,-44.91
1630059139750,-49.15
1630059139765,-50.83
1630059139781,-49.27
1630059139796,-44.41
1630059139812,-36.83
1630059139828,-27.46
1630059139843,-17.43
1630059139859,-7.68
1630059139875,1.12
1630059139890,8.64
1630059139906,14.74
1630059139921,19.45
1630059139937,22.92
1630059139953,25.31
1630059139968,26.9
1630059139984,27.94
1630059140000,28.68
1630059140015,29.26
1630059140031,29.75
1630059140046,30.15
1630059140062,30.41
1630059140078,30.56
1630059140093,30.62
1630059140109,30.66
1630059140125,30.73
1630059140140,30.81
1630059140156,30.79
1630059140171,30.52
1630059140187,29.86
1630059140203,28.71
1630059140218,27.09
1630059140234,25.05
1630059140250,22.69
1630059140265,20.03
1630059140281,17.05
1630059140296,13.68
1630059140312,9.9
1630059140328,5.76
1630059140343,1.4
1630059140359,-3.0
1630059140375,-7.25
1630059140390,-11.22
1630059140406,-14.93
1630059140421,-18.47
1630059140437,-22.02
1630059140453,-25.78
1630059140468,-29.96
1630059140484,-34.71
1630059140500,-40.07
1630059140515,-45.89
1630059140531,-51.63
1630059140546,-56.4
1630059140562,-59.0
1630059140578,-58.35
1630059140593,-53.82
1630059140609,-45.54
1630059140625,-34.54
1630059140640,-22.4
1630059140656,-10.77
1630059140671,-0.88
1630059140687,6.76
1630059140703,12.36
1630059140718,16.54
1630059140734,19.99
1630059140750,23.15
1630059140765,26.1
1630059140781,28.72
1630059140796,30.77
1630059140812,32.16
1630059140828,32.93
1630059140843,33.23
1630059140859,33.22
1630059140875,33.01
1630059140890,32.68
1630059140906,32.25
1630059140921,31.83
1630059140937,31.54
1630059140953,31.43
1630059140968,31.48
1630059140984,31.48
1630059141000,31.14
1630059141015,30.17
1630059141031,28.43
1630059141046,25.97
1630059141062,23.02
1630059141078,19.88
1630059141093,16.76
1630059141109,13.78
1630059141125,10.85
1630059141140,7.75
1630059141156,4.22
1630059141171,0.09
1630059141187,-4.61
1630059141203,-9.57
1630059141218,-14.3
1630059141234,-18.33
1630059141250,-21.45
1630059141265,-23.8
1630059141281,-25.93
1630059141296,-28.55
1630059141312,-32.28
1630059141328,-37.35
1630059141343,-43.41
1630059141359,-49.56
1630059141375,-54.54
1630059141390,-57.07
1630059141406,-56.17
1630059141421,-51.49
1630059141437,-43.42
1630059141453,-32.97
1630059141468,-21.55
1630059141484,-10.51
1630059141500,-0.89
1630059141515,6.87
1630059141531,12.84
1630059141546,17.41
1630059141562,21.03
1630059141578,23.99
1630059141593,26.41
1630059141609,28.29
1630059141625,29.65
1630059141640,30.57
1630059141656,31.26
1630059141671,31.9
1630059141687,32.63
1630059141703,33.43
1630059141718,34.22
1630059141734,34.86
1630059141750,35.33
1630059141765,35.61
1630059141781,35.75
1630059141796,35.73
1630059141812,35.54
1630059141828,35.12
1630059141843,34.36
1630059141859,33.22
1630059141875,31.62
1630059141890,29.52
1630059141906,26.91
1630059141921,23.9
1630059141937,20.65
1630059141953,17.42
1630059141968,14.4
1630059141984,11.7
1630059142000,9.25
1630059142015,6.8
1630059142031,4.12
1630059142046,1.02
1630059142062,-2.49
1630059142078,-6.21
1630059142093,-9.94
1630059142109,-13.49
1630059142125,-16.8
1630059142140,-19.95
1630059142156,-23.06
1630059142171,-26.29
1630059142187,-29.81
1630059142203,-33.83
1630059142218,-38.46
1630059142234,-43.71
1630059142250,-49.28
1630059142265,-54.44
1630059142281,-58.13
1630059142296,-59.24
1630059142312,-56.99
1630059142328,-51.18
1630059142343,-42.39
1630059142359,-31.7
1630059142375,-20.4
1630059142390,-9.62
1630059142406,-0.06
1630059142421,7.99
1630059142437,14.56
1630059142453,19.8
1630059142468,23.91
1630059142484,27.0
1630059142500,29.17
1630059142515,30.54
1630059142531,31.27
1630059142546,31.56
1630059142562,31.61
1630059142578,31.59
1630059142593,31.59
1630059142609,31.67
1630059142625,31.85
1630059142640,32.18
1630059142656,32.64
1630059142671,33.22
1630059142687,33.79
1630059142703,34.19
1630059142718,34.3
1630059142734,34.02
1630059142750,33.34
1630059142765,32.28
1630059142781,30.84
1630059142796,29.02
1630059142812,26.81
1630059142828,24.32
1630059142843,21.72
1630059142859,19.18
1630059142875,16.82
1630059142890,14.6
1630059142906,12.33
1630059142921,9.86
1630059142937,7.12
1630059142953,4.25
1630059142968,1.5
1630059142984,-0.88
1630059143000,-2.86
1630059143015,-4.66
1630059143031,-6.7
1630059143046,-9.4
1630059143062,-12.98
1630059143078,-17.28
1630059143093,-21.85
1630059143109,-26.09
1630059143125,-29.61
1630059143140,-32.33
1630059143156,-34.63
1630059143171,-37.07
1630059143187,-40.23
1630059143203,-44.41
1630059143218,-49.43
1630059143234,-54.63
1630059143250,-58.99
1630059143265,-61.35
1630059143281,-60.71
1630059143296,-56.58
1630059143312,-49.08
1630059143328,-38.98
1630059143343,-27.53
1630059143359,-16.07
1630059143375,-5.74
1630059143390,2.82
1630059143406,9.48
1630059143421,14.46
1630059143437,18.15
1630059143453,20.88
1630059143468,22.89
1630059143484,24.29
1630059143500,25.18
1630059143515,25.69
1630059143531,25.98
1630059143546,26.22
1630059143562,26.55
1630059143578,26.99
1630059143593,27.53
1630059143609,28.1
1630059143625,28.68
1630059143640,29.28
1630059143656,29.94
1630059143671,30.65
1630059143687,31.29
1630059143703,31.6
1630059143718,31.31
1630059143734,30.15
1630059143750,28.08
1630059143765,25.28
1630059143781,22.09
1630059143796,18.96
1630059143812,16.19
1630059143828,13.94
1630059143843,12.16
1630059143859,10.7
1630059143875,9.29
1630059143890,7.77
1630059143906,5.96
1630059143921,3.8
1630059143937,1.35
1630059143953,-1.28
1630059143968,-3.9
1630059143984,-6.43
1630059144000,-8.87
1630059144015,-11.34
1630059144031,-13.95
1630059144046,-16.78
1630059144062,-19.78
1630059144078,-22.79
1630059144093,-25.65
1630059144109,-28.28
1630059144125,-30.71
1630059144140,-33.15
1630059144156,-35.85
1630059144171,-39.11
1630059144187,-43.16
1630059144203,-47.94
1630059144218,-53.05
1630059144234,-57.63
1630059144250,-60.5
1630059144265,-60.51
1630059144281,-56.9
1630059144296,-49.67
1630059144312,-39.62
1630059144328,-28.11
1630059144343,-16.59
1630059144359,-6.27
1630059144375,2.23
1630059144390,8.79
1630059144406,13.56
1630059144421,16.8
1630059144437,18.71
1630059144453,19.46
1630059144468,19.32
1630059144484,18.68
1630059144500,18.02
1630059144515,17.69
1630059144531,17.86
1630059144546,18.41
1630059144562,19.09
1630059144578,19.65
1630059144593,20.01
1630059144609,20.25
1630059144625,20.51
1630059144640,20.9
1630059144656,21.33
1630059144671,21.6
1630059144687,21.44
1630059144703,20.72
1630059144718,19.46
1630059144734,17.78
1630059144750,15.84
1630059144765,13.74
1630059144781,11.52
1630059144796,9.16
1630059144812,6.68
1630059144828,4.04
1630059144843,1.31
1630059144859,-1.49
1630059144875,-4.37
1630059144890,-7.34
1630059144906,-10.4
1630059144921,-13.55
1630059144937,-16.67
1630059144953,-19.66
1630059144968,-22.41
1630059144984,-24.97
1630059145000,-27.54
1630059145015,-30.45
1630059145031,-33.95
1630059145046,-38.03
1630059145062,-42.19
1630059145078,-45.54
1630059145093,-46.97
1630059145109,-45.58
1630059145125,-41.06
1630059145140,-33.75
1630059145156,-24.58
1630059145171,-14.71
1630059145187,-5.18
1630059145203,3.28
1630059145218,10.35
1630059145234,15.94
1630059145250,20.06
1630059145265,22.73
1630059145281,23.97
1630059145296,23.89
1630059145312,22.75
1630059145328,21.02
1630059145343,19.27
1630059145359,18.03
1630059145375,17.61
1630059145390,17.97
1630059145406,18.81
1630059145421,19.66
1630059145437,20.16
1630059145453,20.14
1630059145468,19.74
1630059145484,19.2
1630059145500,18.72
1630059145515,18.27
1630059145531,17.63
1630059145546,16.47
1630059145562,14.51
1630059145578,11.63
1630059145593,7.95
1630059145609,3.74
1630059145625,-0.65
1630059145640,-4.9
1630059145656,-8.81
1630059145671,-12.28
1630059145687,-15.35
1630059145703,-18.16
1630059145718,-20.94
1630059145734,-23.98
1630059145750,-27.56
1630059145765,-31.87
1630059145781,-36.85
1630059145796,-42.01
1630059145812,-46.45
1630059145828,-49.03
1630059145843,-48.7
1630059145859,-44.94
1630059145875,-37.9
1630059145890,-28.45
1630059145906,-17.86
1630059145921,-7.36
1630059145937,2.13
1630059145953,10.12
1630059145968,16.47
1630059145984,21.26
1630059146000,24.59
1630059146015,26.6
1630059146031,27.46
1630059146046,27.45
1630059146062,26.93
1630059146078,26.26
1630059146093,25.78
1630059146109,25.69
1630059146125,26.05
1630059146140,26.78
1630059146156,27.7
1630059146171,28.68
1630059146187,29.66
1630059146203,30.62
1630059146218,31.59
1630059146234,32.51
1630059146250,33.21
1630059146265,33.41
1630059146281,32.88
1630059146296,31.52
1630059146312,29.41
1630059146328,26.85
1630059146343,24.18
1630059146359,21.64
1630059146375,19.31
1630059146390,17.14
1630059146406,14.96
1630059146421,12.63
1630059146437,10.07
1630059146453,7.27
1630059146468,4.37
1630059146484,1.47
1630059146500,-1.27
1630059146515,-3.81
1630059146531,-6.2
1630059146546,-8.61
1630059146562,-11.24
1630059146578,-14.27
1630059146593,-17.75
1630059146609,-21.58
1630059146625,-25.57
1630059146640,-29.45
1630059146656,-33.09
1630059146671,-36.47
1630059146687,-39.75
1630059146703,-43.22
1630059146718,-47.24
1630059146734,-52.02
1630059146750,-57.58
1630059146765,-63.51
1630059146781,-68.94
1630059146796,-72.67
1630059146812,-73.45
1630059146828,-70.41
1630059146843,-63.39
1630059146859,-53.03
1630059146875,-40.63
1630059146890,-27.74
1630059146906,-15.68
1630059146921,-5.28
1630059146937,3.16
1630059146953,9.78
1630059146968,14.92
1630059146984,18.94
1630059147000,22.1
1630059147015,24.62
1630059147031,26.65
1630059147046,28.3
1630059147062,29.68
1630059147078,30.87
1630059147093,31.92
1630059147109,32.92
1630059147125,33.93
1630059147140,35.03
1630059147156,36.27
1630059147171,37.67
1630059147187,39.18
1630059147203,40.72
1630059147218,42.11
1630059147234,43.15
1630059147250,43.59
1630059147265,43.25
1630059147281,42.08
1630059147296,40.15
1630059147312,37.69
1630059147328,34.92
1630059147343,32.0
1630059147359,28.94
1630059147375,25.67
1630059147390,22.06
1630059147406,18.1
1630059147421,13.86
1630059147437,9.49
1630059147453,5.18
1630059147468,1.05
1630059147484,-2.88
1630059147500,-6.7
1630059147515,-10.55
1630059147531,-14.52
1630059147546,-18.71
1630059147562,-23.11
1630059147578,-27.67
1630059147593,-32.23
1630059147609,-36.6
1630059147625,-40.63
1630059147640,-44.33
1630059147656,-47.94
1630059147671,-51.86
1630059147687,-56.5
1630059147703,-61.99
1630059147718,-67.97
1630059147734,-73.56
1630059147750,-77.48
1630059147765,-78.44
1630059147781,-75.58
1630059147796,-68.76
1630059147812,-58.65
1630059147828,-46.52
1630059147843,-33.75
1630059147859,-21.54
1630059147875,-10.63
1630059147890,-1.27
1630059147906,6.54
1630059147921,12.88
1630059147937,17.77
1630059147953,21.2
1630059147968,23.29
1630059147984,24.35
1630059148000,24.86
1630059148015,25.33
1630059148031,26.11
1630059148046,27.28
1630059148062,28.68
1630059148078,30.02
1630059148093,31.11
1630059148109,31.9
1630059148125,32.52
1630059148140,33.09
1630059148156,33.7
1630059148171,34.24
1630059148187,34.47
1630059148203,34.11
1630059148218,32.95
1630059148234,30.92
1630059148250,28.1
1630059148265,24.7
1630059148281,21.01
1630059148296,17.33
1630059148312,13.9
1630059148328,10.85
1630059148343,8.19
1630059148359,5.85
1630059148375,3.62
1630059148390,1.29
1630059148406,-1.35
1630059148421,-4.41
1630059148437,-7.88
1630059148453,-11.6
1630059148468,-15.33
1630059148484,-18.82
1630059148500,-21.92
1630059148515,-24.66
1630059148531,-27.35
1630059148546,-30.45
1630059148562,-34.44
1630059148578,-39.52
1630059148593,-45.4
1630059148609,-51.29
1630059148625,-56.0
1630059148640,-58.25
1630059148656,-57.09
1630059148671,-52.17
1630059148687,-43.82
1630059148703,-32.97
1630059148718,-20.9
1630059148734,-8.91
1630059148750,1.91
1630059148765,10.86
1630059148781,17.72
1630059148796,22.69
1630059148812,26.23
1630059148828,28.88
1630059148843,31.02
1630059148859,32.8
1630059148875,34.16
1630059148890,34.99
1630059148906,35.27
1630059148921,35.18
1630059148937,35.0
1630059148953,35.0
1630059148968,35.33
1630059148984,35.93
1630059149000,36.61
1630059149015,37.2
1630059149031,37.59
1630059149046,37.71
1630059149062,37.52
1630059149078,36.95
1630059149093,35.86
1630059149109,34.17
1630059149125,31.83
1630059149140,28.95
1630059149156,25.72
1630059149171,22.36
1630059149187,19.08
1630059149203,16.02
1630059149218,13.21
1630059149234,10.58
1630059149250,8.01
1630059149265,5.3
1630059149281,2.28
1630059149296,-1.16
1630059149312,-5.01
1630059149328,-9.1
1630059149343,-13.17
1630059149359,-16.92
1630059149375,-20.22
1630059149390,-23.12
1630059149406,-25.88
1630059149421,-28.88
1630059149437,-32.52
1630059149453,-37.07
1630059149468,-42.56
1630059149484,-48.7
1630059149500,-54.79
1630059149515,-59.87
1630059149531,-62.75
1630059149546,-62.45
1630059149562,-58.42
1630059149578,-50.8
1630059149593,-40.45
1630059149609,-28.68
1630059149625,-16.88
1630059149640,-6.17
1630059149656,2.83
1630059149671,10.03
1630059149687,15.56
1630059149703,19.68
1630059149718,22.65
1630059149734,24.63
1630059149750,25.85
1630059149765,26.59
1630059149781,27.15
1630059149796,27.73
1630059149812,28.4
1630059149828,29.07
1630059149843,29.56
1630059149859,29.8
1630059149875,29.86
1630059149890,29.94
1630059149906,30.24
1630059149921,30.84
1630059149937,31.54
1630059149953,32.04
1630059149968,31.95
1630059149984,31.05
1630059150000,29.3
1630059150015,26.84
1630059150031,23.95
1630059150046,20.87
1630059150062,17.8
1630059150078,14.83
1630059150093,11.95
1630059150109,9.09
1630059150125,6.13
1630059150140,2.99
1630059150156,-0.31
1630059150171,-3.66
1630059150187,-6.9
1630059150203,-9.9
1630059150218,-12.64
1630059150234,-15.24
1630059150250,-17.99
1630059150265,-21.21
1630059150281,-25.12
1630059150296,-29.69
1630059150312,-34.52
1630059150328,-38.88
1630059150343,-41.77
1630059150359,-42.25
1630059150375,-39.66
1630059150390,-33.99
1630059150406,-25.8
1630059150421,-16.12
1630059150437,-6.2
1630059150453,2.95
1630059150468,10.66
1630059150484,16.75
1630059150500,21.33
1630059150515,24.65
1630059150531,26.94
1630059150546,28.33
1630059150562,28.87
1630059150578,28.62
1630059150593,27.75
1630059150609,26.56
1630059150625,25.45
1630059150640,24.77
1630059150656,24.71
1630059150671,25.19
1630059150687,25.96
1630059150703,26.67
1630059150718,27.02
1630059150734,26.84
1630059150750,26.12
1630059150765,24.94
1630059150781,23.4
1630059150796,21.56
1630059150812,19.39
1630059150828,16.83
1630059150843,13.85
1630059150859,10.49
1630059150875,6.87
1630059150890,3.23
1630059150906,-0.22
1630059150921,-3.34
1630059150937,-6.14
1630059150953,-8.81
1630059150968,-11.6
1630059150984,-14.8
1630059151000,-18.58
1630059151015,-22.96
1630059151031,-27.8
1630059151046,-32.75
1630059151062,-37.24
1630059151078,-40.57
1630059151093,-42.0
1630059151109,-40.94
1630059151125,-37.16
1630059151140,-30.84
1630059151156,-22.65
1630059151171,-13.53
1630059151187,-4.5
1630059151203,3.63
1630059151218,10.32
1630059151234,15.45
1630059151250,19.15
1630059151265,21.74
1630059151281,23.56
1630059151296,24.84
1630059151312,25.73
1630059151328,26.24
1630059151343,26.39
1630059151359,26.3
1630059151375,26.1
1630059151390,26.03
1630059151406,26.19
1630059151421,26.62
1630059151437,27.21
1630059151453,27.82
1630059151468,28.29
1630059151484,28.58
1630059151500,28.64
1630059151515,28.48
1630059151531,28.05
1630059151546,27.25
1630059151562,25.98
1630059151578,24.18
1630059151593,21.95
1630059151609,19.5
1630059151625,17.07
1630059151640,14.88
1630059151656,12.95
1630059151671,11.16
1630059151687,9.26
1630059151703,7.0
1630059151718,4.33
1630059151734,1.34
1630059151750,-1.67
1630059151765,-4.42
1630059151781,-6.75
1630059151796,-8.7
1630059151812,-10.44
1630059151828,-12.21
1630059151843,-14.17
1630059151859,-16.38
1630059151875,-18.81
1630059151890,-21.42
1630059151906,-24.18
1630059151921,-27.12
1630059151937,-30.28
1630059151953,-33.67
1630059151968,-37.34
1630059151984,-41.27
1630059152000,-45.42
1630059152015,-49.53
1630059152031,-53.11
1630059152046,-55.39
1630059152062,-55.54
1630059152078,-52.95
1630059152093,-47.5
1630059152109,-39.71
1630059152125,-30.59
1630059152140,-21.29
1630059152156,-12.81
1630059152171,-5.67
1630059152187,0.05
1630059152203,4.62
1630059152218,8.37
1630059152234,11.53
1630059152250,14.19
1630059152265,16.37
1630059152281,18.07
1630059152296,19.33
1630059152312,20.25
1630059152328,20.93
1630059152343,21.45
1630059152359,21.85
1630059152375,22.17
1630059152390,22.45
1630059152406,22.69
1630059152421,22.87
1630059152437,22.94
1630059152453,22.86
1630059152468,22.67
1630059152484,22.49
1630059152500,22.38
1630059152515,22.33
1630059152531,22.18
1630059152546,21.69
1630059152562,20.68
1630059152578,19.11
1630059152593,17.16
1630059152609,15.09
1630059152625,13.13
1630059152640,11.33
1630059152656,9.6
1630059152671,7.75
1630059152687,5.65
1630059152703,3.28
1630059152718,0.82
1630059152734,-1.54
1630059152750,-3.58
1630059152765,-5.28
1630059152781,-6.73
1630059152796,-8.2
1630059152812,-9.93
1630059152828,-12.1
1630059152843,-14.68
1630059152859,-17.51
1630059152875,-20.32
1630059152890,-22.91
1630059152906,-25.16
1630059152921,-27.12
1630059152937,-28.95
1630059152953,-30.9
1630059152968,-33.27
1630059152984,-36.3
1630059153000,-40.1
1630059153015,-44.5
1630059153031,-48.97
1630059153046,-52.7
1630059153062,-54.72
1630059153078,-54.24
1630059153093,-50.86
1630059153109,-44.7
1630059153125,-36.44
1630059153140,-27.08
1630059153156,-17.71
1630059153171,-9.25
1630059153187,-2.26
1630059153203,3.09
1630059153218,7.0
1630059153234,9.83
1630059153250,11.94
1630059153265,13.54
1630059153281,14.7
1630059153296,15.4
1630059153312,15.71
1630059153328,15.81
1630059153343,15.97
1630059153359,16.38
1630059153375,17.06
1630059153390,17.84
1630059153406,18.49
1630059153421,18.84
1630059153437,18.88
1630059153453,18.8
1630059153468,18.77
1630059153484,18.85
1630059153500,18.94
1630059153515,18.81
1630059153531,18.26
1630059153546,17.27
1630059153562,15.96
1630059153578,14.51
1630059153593,13.1
1630059153609,11.75
1630059153625,10.4
1630059153640,8.94
1630059153656,7.35
1630059153671,5.63
1630059153687,3.87
1630059153703,2.1
1630059153718,0.32
1630059153734,-1.56
1630059153750,-3.61
1630059153765,-5.89
1630059153781,-8.34
1630059153796,-10.88
1630059153812,-13.34
1630059153828,-15.61
1630059153843,-17.59
1630059153859,-19.3
1630059153875,-20.88
1630059153890,-22.57
1630059153906,-24.66
1630059153921,-27.37
1630059153937,-30.81
1630059153953,-34.85
1630059153968,-39.04
1630059153984,-42.71
1630059154000,-44.98
1630059154015,-45.0
1630059154031,-42.21
1630059154046,-36.55
1630059154062,-28.56
1630059154078,-19.31
1630059154093,-10.06
1630059154109,-1.85
1630059154125,4.69
1630059154140,9.51
1630059154156,12.88
1630059154171,15.18
1630059154187,16.65
1630059154203,17.32
1630059154218,17.24
1630059154234,16.5
1630059154250,15.44
1630059154265,14.49
1630059154281,14.03
1630059154296,14.21
1630059154312,14.91
1630059154328,15.84
1630059154343,16.67
1630059154359,17.22
1630059154375,17.46
1630059154390,17.48
1630059154406,17.44
1630059154421,17.39
1630059154437,17.32
1630059154453,17.09
1630059154468,16.49
1630059154484,15.35
1630059154500,13.58
1630059154515,11.24
1630059154531,8.53
1630059154546,5.75
1630059154562,3.13
1630059154578,0.75
1630059154593,-1.52
1630059154609,-3.94
1630059154625,-6.71
1630059154640,-9.86
1630059154656,-13.17
1630059154671,-16.3
1630059154687,-18.96
1630059154703,-21.11
1630059154718,-23.0
1630059154734,-25.07
1630059154750,-27.82
1630059154765,-31.53
1630059154781,-36.16
1630059154796,-41.33
1630059154812,-46.29
1630059154828,-50.13
1630059154843,-51.98
1630059154859,-51.21
1630059154875,-47.6
1630059154890,-41.46
1630059154906,-33.5
1630059154921,-24.69
1630059154937,-15.99
1630059154953,-8.15
1630059154968,-1.56
1630059154984,3.67
1630059155000,7.73
1630059155015,10.89
1630059155031,13.44
1630059155046,15.58
1630059155062,17.4
1630059155078,18.86
1630059155093,19.84
1630059155109,20.3
1630059155125,20.32
1630059155140,20.1
1630059155156,19.93
1630059155171,20.06
1630059155187,20.62
1630059155203,21.54
1630059155218,22.65
1630059155234,23.72
1630059155250,24.58
1630059155265,25.08
1630059155281,25.15
1630059155296,24.77
1630059155312,23.91
1630059155328,22.57
1630059155343,20.77
1630059155359,18.6
1630059155375,16.18
1630059155390,13.67
1630059155406,11.22
1630059155421,8.93
1630059155437,6.78
1630059155453,4.67
1630059155468,2.38
1630059155484,-0.23
1630059155500,-3.19
1630059155515,-6.38
1630059155531,-9.57
1630059155546,-12.55
1630059155562,-15.25
1630059155578,-17.71
1630059155593,-20.13
1630059155609,-22.62
1630059155625,-25.27
1630059155640,-28.12
1630059155656,-31.24
1630059155671,-34.79
1630059155687,-38.95
1630059155703,-43.8
1630059155718,-49.11
1630059155734,-54.22
1630059155750,-58.11
1630059155765,-59.67
1630059155781,-58.05
1630059155796,-52.99
1630059155812,-44.87
1630059155828,-34.72
1630059155843,-23.83
1630059155859,-13.44
1630059155875,-4.46
1630059155890,2.73
1630059155906,8.2
1630059155921,12.32
1630059155937,15.56
1630059155953,18.3
1630059155968,20.7
1630059155984,22.78
1630059156000,24.49
1630059156015,25.78
1630059156031,26.73
1630059156046,27.47
1630059156062,28.13
1630059156078,28.77
1630059156093,29.34
1630059156109,29.78
1630059156125,30.06
1630059156140,30.29
1630059156156,30.65
1630059156171,31.24
1630059156187,32.01
1630059156203,32.7
1630059156218,32.91
1630059156234,32.32
1630059156250,30.79
1630059156265,28.48
1630059156281,25.7
1630059156296,22.82
1630059156312,20.1
1630059156328,17.64
1630059156343,15.42
1630059156359,13.3
1630059156375,11.2
1630059156390,8.98
1630059156406,6.53
1630059156421,3.73
1630059156437,0.48
1630059156453,-3.22
1630059156468,-7.28
1630059156484,-11.53
1630059156500,-15.71
1630059156515,-19.62
1630059156531,-23.15
1630059156546,-26.31
1630059156562,-29.3
1630059156578,-32.41
1630059156593,-35.98
1630059156609,-40.28
1630059156625,-45.37
1630059156640,-50.94
1630059156656,-56.28
1630059156671,-60.39
1630059156687,-62.17
1630059156703,-60.75
1630059156718,-55.81
1630059156734,-47.68
1630059156750,-37.36
1630059156765,-26.19
1630059156781,-15.49
1630059156796,-6.21
1630059156812,1.23
1630059156828,6.92
1630059156843,11.23
1630059156859,14.65
1630059156875,17.51
1630059156890,19.99
1630059156906,22.14
1630059156921,23.88
1630059156937,25.12
1630059156953,25.79
1630059156968,25.92
1630059156984,25.62
1630059157000,25.15
1630059157015,24.79
1630059157031,24.79
1630059157046,25.26
1630059157062,26.1
1630059157078,27.08
1630059157093,27.88
1630059157109,28.19
1630059157125,27.84
1630059157140,26.75
1630059157156,25.0
1630059157171,22.74
1630059157187,20.14
1630059157203,17.38
1630059157218,14.58
1630059157234,11.75
1630059157250,8.84
1630059157265,5.8
1630059157281,2.61
1630059157296,-0.66
1630059157312,-3.93
1630059157328,-7.12
1630059157343,-10.24
1630059157359,-13.35
1630059157375,-16.55
1630059157390,-19.96
1630059157406,-23.68
1630059157421,-27.75
1630059157437,-32.08
1630059157453,-36.39
1630059157468,-40.07
1630059157484,-42.27
1630059157500,-42.08
1630059157515,-38.91
1630059157531,-32.74
1630059157546,-24.26
1630059157562,-14.63
1630059157578,-5.14
1630059157593,3.25
1630059157609,10.09
1630059157625,15.42
1630059157640,19.46
1630059157656,22.39
1630059157671,24.26
1630059157687,25.01
1630059157703,24.75
1630059157718,23.76
1630059157734,22.55
1630059157750,21.63
1630059157765,21.28
1630059157781,21.5
1630059157796,22.01
1630059157812,22.51
1630059157828,22.76
1630059157843,22.78
1630059157859,22.68
1630059157875,22.56
1630059157890,22.36
1630059157906,21.81
1630059157921,20.52
1630059157937,18.17
1630059157953,14.67
1630059157968,10.23
1630059157984,5.3
1630059158000,0.39
1630059158015,-4.06
1630059158031,-7.84
1630059158046,-11.01
1630059158062,-13.87
1630059158078,-16.9
1630059158093,-20.59
1630059158109,-25.28
1630059158125,-30.94
1630059158140,-37.08
1630059158156,-42.74
1630059158171,-46.74
1630059158187,-47.97
1630059158203,-45.78
1630059158218,-40.17
1630059158234,-31.84
1630059158250,-21.93
1630059158265,-11.7
1630059158281,-2.19
1630059158296,5.97
1630059158312,12.54
1630059158328,17.65
1630059158343,21.55
1630059158359,24.47
1630059158375,26.55
1630059158390,27.85
1630059158406,28.45
1630059158421,28.45
1630059158437,28.06
1630059158453,27.51
1630059158468,27.0
1630059158484,26.58
1630059158500,26.15
1630059158515,25.51
1630059158531,24.53
1630059158546,23.2
1630059158562,21.7
1630059158578,20.25
1630059158593,19.01
1630059158609,17.92
1630059158625,16.73
1630059158640,15.09
1630059158656,12.69
1630059158671,9.41
1630059158687,5.35
1630059158703,0.81
1630059158718,-3.86
1630059158734,-8.37
1630059158750,-12.59
1630059158765,-16.57
1630059158781,-20.55
1630059158796,-24.84
1630059158812,-29.68
1630059158828,-35.18
1630059158843,-41.14
1630059158859,-46.98
1630059158875,-51.85
1630059158890,-54.74
1630059158906,-54.72
1630059158921,-51.26
1630059158937,-44.42
1630059158953,-34.9
1630059158968,-23.87
1630059158984,-12.68
1630059159000,-2.45
1630059159015,6.17
1630059159031,13.08
1630059159046,18.56
1630059159062,23.05
1630059159078,26.86
1630059159093,30.12
1630059159109,32.77
1630059159125,34.74
1630059159140,36.07
1630059159156,36.94
1630059159171,37.61
1630059159187,38.31
1630059159203,39.12
1630059159218,39.97
1630059159234,40.76
1630059159250,41.37
1630059159265,41.81
1630059159281,42.17
1630059159296,42.51
1630059159312,42.76
1630059159328,42.73
1630059159343,42.11
1630059159359,40.69
1630059159375,38.39
1630059159390,35.39
1630059159406,32.04
1630059159421,28.72
1630059159437,25.73
1630059159453,23.21
1630059159468,21.04
1630059159484,18.99
1630059159500,16.75
1630059159515,14.1
1630059159531,11.03
1630059159546,7.69
1630059159562,4.4
1630059159578,1.43
1630059159593,-1.16
1630059159609,-3.51
1630059159625,-5.98
1630059159640,-8.93
1630059159656,-12.54
1630059159671,-16.72
1630059159687,-21.18
1630059159703,-25.57
1630059159718,-29.66
1630059159734,-33.42
1630059159750,-36.99
1630059159765,-40.62
1630059159781,-44.57
1630059159796,-49.1
1630059159812,-54.34
1630059159828,-60.15
1630059159843,-66.07
1630059159859,-71.22
1630059159875,-74.43
1630059159890,-74.57
1630059159906,-70.88
1630059159921,-63.35
1630059159937,-52.7
1630059159953,-40.22
1630059159968,-27.37
1630059159984,-15.36
1630059160000,-4.88
1630059160015,3.87
1630059160031,11.07
1630059160046,16.95
1630059160062,21.67
1630059160078,25.32
1630059160093,27.97
1630059160109,29.8
1630059160125,31.09
1630059160140,32.17
1630059160156,33.27
1630059160171,34.46
1630059160187,35.64
1630059160203,36.67
1630059160218,37.43
1630059160234,37.92
1630059160250,38.2
1630059160265,38.42
1630059160281,38.68
1630059160296,38.97
1630059160312,39.2
1630059160328,39.23
1630059160343,38.87
1630059160359,38.0
1630059160375,36.56
1630059160390,34.59
1630059160406,32.26
1630059160421,29.81
1630059160437,27.43
1630059160453,25.27
1630059160468,23.29
1630059160484,21.36
1630059160500,19.3
1630059160515,16.98
1630059160531,14.44
1630059160546,11.81
1630059160562,9.27
1630059160578,6.9
1630059160593,4.64
1630059160609,2.25
1630059160625,-0.55
1630059160640,-3.98
1630059160656,-8.05
1630059160671,-12.57
1630059160687,-17.21
1630059160703,-21.61
1630059160718,-25.57
1630059160734,-29.05
1630059160750,-32.23
1630059160765,-35.39
1630059160781,-38.81
1630059160796,-42.75
1630059160812,-47.34
1630059160828,-52.6
1630059160843,-58.26
1630059160859,-63.82
1630059160875,-68.44
1630059160890,-71.06
1630059160906,-70.69
1630059160921,-66.71
1630059160937,-59.18
1630059160953,-48.81
1630059160968,-36.82
1630059160984,-24.61
1630059161000,-13.32
1630059161015,-3.67
1630059161031,4.12
1630059161046,10.16
1630059161062,14.73
1630059161078,18.13
1630059161093,20.57
1630059161109,22.2
1630059161125,23.2
1630059161140,23.8
1630059161156,24.28
1630059161171,24.94
1630059161187,25.92
1630059161203,27.25
1630059161218,28.75
1630059161234,30.22
1630059161250,31.45
1630059161265,32.37
1630059161281,33.0
1630059161296,33.4
1630059161312,33.57
1630059161328,33.42
1630059161343,32.81
1630059161359,31.67
1630059161375,30.0
1630059161390,27.96
1630059161406,25.76
1630059161421,23.57
1630059161437,21.49
1630059161453,19.52
1630059161468,17.56
1630059161484,15.49
1630059161500,13.25
1630059161515,10.88
1630059161531,8.49
1630059161546,6.22
1630059161562,4.14
1630059161578,2.17
1630059161593,0.17
1630059161609,-2.05
1630059161625,-4.59
1630059161640,-7.48
1630059161656,-10.65
1630059161671,-13.95
1630059161687,-17.24
1630059161703,-20.47
1630059161718,-23.67
1630059161734,-26.93
1630059161750,-30.46
1630059161765,-34.43
1630059161781,-38.9
1630059161796,-43.69
1630059161812,-48.27
1630059161828,-51.76
1630059161843,-53.21
1630059161859,-51.78
1630059161875,-47.11
1630059161890,-39.42
1630059161906,-29.48
1630059161921,-18.44
1630059161937,-7.54
1630059161953,2.25
1630059161968,10.3
1630059161984,16.41
1630059162000,20.68
1630059162015,23.37
1630059162031,24.79
1630059162046,25.24
1630059162062,24.95
1630059162078,24.18
1630059162093,23.19
1630059162109,22.24
1630059162125,21.62
1630059162140,21.54
1630059162156,22.06
1630059162171,23.08
1630059162187,24.41
1630059162203,25.77
1630059162218,26.91
1630059162234,27.61
1630059162250,27.72
1630059162265,27.12
1630059162281,25.74
1630059162296,23.61
1630059162312,20.88
1630059162328,17.8
1630059162343,14.68
1630059162359,11.75
1630059162375,9.11
1630059162390,6.65
1630059162406,4.18
1630059162421,1.45
1630059162437,-1.69
1630059162453,-5.26
1630059162468,-9.17
1630059162484,-13.22
1630059162500,-17.17
1630059162515,-20.83
1630059162531,-24.12
1630059162546,-27.18
1630059162562,-30.33
1630059162578,-33.99
1630059162593,-38.39
1630059162609,-43.42
1630059162625,-48.48
1630059162640,-52.6
1630059162656,-54.69
1630059162671,-53.9
1630059162687,-49.87
1630059162703,-42.84
1630059162718,-33.55
1630059162734,-23.04
1630059162750,-12.43
1630059162765,-2.68
1630059162781,5.54
1630059162796,11.91
1630059162812,16.48
1630059162828,19.55
1630059162843,21.55
1630059162859,22.87
1630059162875,23.78
1630059162890,24.42
1630059162906,24.86
1630059162921,25.18
1630059162937,25.45
1630059162953,25.8
1630059162968,26.25
1630059162984,26.73
1630059163000,27.1
1630059163015,27.26
1630059163031,27.19
1630059163046,26.97
1630059163062,26.71
1630059163078,26.42
1630059163093,25.94
1630059163109,25.04
1630059163125,23.5
1630059163140,21.28
1630059163156,18.52
1630059163171,15.52
1630059163187,12.54
1630059163203,9.67
1630059163218,6.81
1630059163234,3.75
1630059163250,0.31
1630059163265,-3.55
1630059163281,-7.71
1630059163296,-11.92
1630059163312,-15.94
1630059163328,-19.61
1630059163343,-22.91
1630059163359,-26.04
1630059163375,-29.38
1630059163390,-33.35
1630059163406,-38.25
1630059163421,-44.02
1630059163437,-50.16
1630059163453,-55.7
1630059163468,-59.48
1630059163484,-60.45
1630059163500,-57.96
1630059163515,-51.99
1630059163531,-43.13
1630059163546,-32.46
1630059163562,-21.23
1630059163578,-10.57
1630059163593,-1.29
1630059163609,6.29
1630059163625,12.25
1630059163640,16.9
1630059163656,20.67
1630059163671,23.85
1630059163687,26.57
1630059163703,28.86
1630059163718,30.64
1630059163734,31.89
1630059163750,32.65
1630059163765,33.08
1630059163781,33.36
1630059163796,33.72
1630059163812,34.34
1630059163828,35.26
1630059163843,36.39
1630059163859,37.47
1630059163875,38.24
1630059163890,38.51
1630059163906,38.27
1630059163921,37.64
1630059163937,36.8
1630059163953,35.79
1630059163968,34.53
1630059163984,32.86
1630059164000,30.67
1630059164015,28.03
1630059164031,25.16
1630059164046,22.42
1630059164062,20.04
1630059164078,18.08
1630059164093,16.37
1630059164109,14.55
1630059164125,12.33
1630059164140,9.59
1630059164156,6.5
1630059164171,3.36
1630059164187,0.56
1630059164203,-1.7
1630059164218,-3.48
1630059164234,-5.08
1630059164250,-6.92
1630059164265,-9.37
1630059164281,-12.57
1630059164296,-16.44
1630059164312,-20.74
1630059164328,-25.18
1630059164343,-29.5
1630059164359,-33.54
1630059164375,-37.22
1630059164390,-40.58
1630059164406,-43.79
1630059164421,-47.12
1630059164437,-50.93
1630059164453,-55.52
1630059164468,-60.9
1630059164484,-66.68
1630059164500,-71.97
1630059164515,-75.51
1630059164531,-76.03
1630059164546,-72.63
1630059164562,-65.17
1630059164578,-54.41
1630059164593,-41.77
1630059164609,-28.89
1630059164625,-17.15
1630059164640,-7.36
1630059164656,0.33
1630059164671,6.2
1630059164687,10.7
1630059164703,14.17
1630059164718,16.79
1630059164734,18.66
1630059164750,19.92
1630059164765,20.79
1630059164781,21.54
1630059164796,22.45
1630059164812,23.62
1630059164828,24.99
1630059164843,26.36
1630059164859,27.52
1630059164875,28.36
1630059164890,28.95
1630059164906,29.5
1630059164921,30.21
1630059164937,31.1
1630059164953,31.96
1630059164968,32.39
1630059164984,32.04
1630059165000,30.78
1630059165015,28.77
1630059165031,26.4
1630059165046,24.11
1630059165062,22.14
1630059165078,20.49
1630059165093,18.95
1630059165109,17.25
1630059165125,15.23
1630059165140,12.84
1630059165156,10.22
1630059165171,7.52
1630059165187,4.92
1630059165203,2.5
1630059165218,0.24
1630059165234,-1.98
1630059165250,-4.36
1630059165265,-7.06
1630059165281,-10.16
1630059165296,-13.57
1630059165312,-17.05
1630059165328,-20.34
1630059165343,-23.29
1630059165359,-25.94
1630059165375,-28.52
1630059165390,-31.41
1630059165406,-34.99
1630059165421,-39.47
1630059165437,-44.77
1630059165453,-50.43
1630059165468,-55.59
1630059165484,-59.16
1630059165500,-60.06
1630059165515,-57.54
1630059165531,-51.43
1630059165546,-42.25
1630059165562,-31.05
1630059165578,-19.15
1630059165593,-7.79
1630059165609,2.13
1630059165625,10.15
1630059165640,16.17
1630059165656,20.36
1630059165671,23.06
1630059165687,24.6
1630059165703,25.39
1630059165718,25.75
1630059165734,25.98
1630059165750,26.29
1630059165765,26.79
1630059165781,27.52
1630059165796,28.38
1630059165812,29.28
1630059165828,30.1
1630059165843,30.8
1630059165859,31.37
1630059165875,31.85
1630059165890,32.27
1630059165906,32.56
1630059165921,32.6
1630059165937,32.22
1630059165953,31.22
1630059165968,29.48
1630059165984,27.0
1630059166000,23.85
1630059166015,20.28
1630059166031,16.61
1630059166046,13.1
1630059166062,9.89
1630059166078,6.9
1630059166093,3.9
1630059166109,0.57
1630059166125,-3.24
1630059166140,-7.5
1630059166156,-11.96
1630059166171,-16.27
1630059166187,-20.19
1630059166203,-23.69
1630059166218,-26.99
1630059166234,-30.49
1630059166250,-34.66
1630059166265,-39.76
1630059166281,-45.7
1630059166296,-51.9
1630059166312,-57.39
1630059166328,-60.96
1630059166343,-61.59
1630059166359,-58.74
1630059166375,-52.51
1630059166390,-43.66
1630059166406,-33.3
1630059166421,-22.59
1630059166437,-12.48
1630059166453,-3.58
1630059166468,3.86
1630059166484,9.81
1630059166500,14.43
1630059166515,17.9
1630059166531,20.46
1630059166546,22.3
1630059166562,23.58
1630059166578,24.39
1630059166593,24.81
1630059166609,24.94
1630059166625,24.87
1630059166640,24.77
1630059166656,24.75
1630059166671,24.91
1630059166687,25.25
1630059166703,25.72
1630059166718,26.2
1630059166734,26.51
1630059166750,26.46
1630059166765,25.84
1630059166781,24.48
1630059166796,22.3
1630059166812,19.37
1630059166828,15.89
1630059166843,12.13
1630059166859,8.34
1630059166875,4.65
1630059166890,1.08
1630059166906,-2.49
1630059166921,-6.17
1630059166937,-10.02
1630059166953,-13.99
1630059166968,-17.97
1630059166984,-21.84
1630059167000,-25.62
1630059167015,-29.46
1630059167031,-33.62
1630059167046,-38.36
1630059167062,-43.68
1630059167078,-49.2
1630059167093,-54.12
1630059167109,-57.4
1630059167125,-58.04
1630059167140,-55.44
1630059167156,-49.59
1630059167171,-41.09
1630059167187,-30.95
1630059167203,-20.27
1630059167218,-9.96
1630059167234,-0.61
1630059167250,7.57
1630059167265,14.58
1630059167281,20.51
1630059167296,25.42
1630059167312,29.38
1630059167328,32.4
1630059167343,34.55
1630059167359,35.96
1630059167375,36.82
1630059167390,37.35
1630059167406,37.77
1630059167421,38.24
1630059167437,38.92
1630059167453,39.84
1630059167468,40.92
1630059167484,41.97
1630059167500,42.73
1630059167515,42.96
1630059167531,42.56
1630059167546,41.6
1630059167562,40.28
1630059167578,38.81
1630059167593,37.26
1630059167609,35.59
1630059167625,33.72
1630059167640,31.59
1630059167656,29.31
1630059167671,27.0
1630059167687,24.81
1630059167703,22.73
1630059167718,20.65
1630059167734,18.36
1630059167750,15.73
1630059167765,12.71
1630059167781,9.44
1630059167796,6.13
1630059167812,3.02
1630059167828,0.26
1630059167843,-2.15
1630059167859,-4.36
1630059167875,-6.67
1630059167890,-9.38
1630059167906,-12.69
1630059167921,-16.61
1630059167937,-20.93
1630059167953,-25.33
1630059167968,-29.49
1630059167984,-33.2
1630059168000,-36.43
1630059168015,-39.38
1630059168031,-42.41
1630059168046,-45.98
1630059168062,-50.47
1630059168078,-55.97
1630059168093,-62.12
1630059168109,-67.99
1630059168125,-72.29
1630059168140,-73.65
1630059168156,-71.14
1630059168171,-64.52
1630059168187,-54.41
1630059168203,-42.11
1630059168218,-29.19
1630059168234,-17.11
1630059168250,-6.8
1630059168265,1.38
1630059168281,7.63
1630059168296,12.42
1630059168312,16.32
1630059168328,19.73
1630059168343,22.84
1630059168359,25.64
1630059168375,28.0
1630059168390,29.83
1630059168406,31.06
1630059168421,31.7
1630059168437,31.86
1630059168453,31.67
1630059168468,31.29
1630059168484,30.9
1630059168500,30.62
1630059168515,30.51
1630059168531,30.56
1630059168546,30.68
1630059168562,30.74
1630059168578,30.58
1630059168593,30.04
1630059168609,28.97
1630059168625,27.26
1630059168640,24.95
1630059168656,22.23
1630059168671,19.43
1630059168687,16.86
1630059168703,14.68
1630059168718,12.83
1630059168734,11.07
1630059168750,9.13
1630059168765,6.89
1630059168781,4.43
1630059168796,1.91
1630059168812,-0.58
1630059168828,-3.07
1630059168843,-5.73
1630059168859,-8.68
1630059168875,-11.91
1630059168890,-15.23
1630059168906,-18.39
1630059168921,-21.22
1630059168937,-23.73
1630059168953,-26.14
1630059168968,-28.81
1630059168984,-32.13
1630059169000,-36.37
1630059169015,-41.52
1630059169031,-47.17
1630059169046,-52.48
1630059169062,-56.34
1630059169078,-57.63
1630059169093,-55.6
1630059169109,-50.09
1630059169125,-41.62
1630059169140,-31.2
1630059169156,-20.05
1630059169171,-9.27
1630059169187,0.31
1630059169203,8.25
1630059169218,14.47
1630059169234,19.11
1630059169250,22.45
1630059169265,24.81
1630059169281,26.47
1630059169296,27.63
1630059169312,28.42
1630059169328,28.96
1630059169343,29.37
1630059169359,29.76
1630059169375,30.23
1630059169390,30.79
1630059169406,31.37
1630059169421,31.86
1630059169437,32.17
1630059169453,32.29
1630059169468,32.3
1630059169484,32.3
1630059169500,32.31
1630059169515,32.23
1630059169531,31.79
1630059169546,30.69
1630059169562,28.71
1630059169578,25.84
1630059169593,22.32
1630059169609,18.55
1630059169625,14.98
1630059169640,11.9
1630059169656,9.31
1630059169671,6.97
1630059169687,4.56
1630059169703,1.79
1630059169718,-1.44
1630059169734,-5.03
1630059169750,-8.76
1630059169765,-12.38
1630059169781,-15.71
1630059169796,-18.73
1630059169812,-21.57
1630059169828,-24.52
1630059169843,-27.91
1630059169859,-32.03
1630059169875,-36.96
1630059169890,-42.42
1630059169906,-47.68
1630059169921,-51.65
1630059169937,-53.16
1630059169953,-51.32
1630059169968,-45.91
1630059169984,-37.47
1630059170000,-27.18
1630059170015,-16.48
1630059170031,-6.61
1630059170046,1.74
1630059170062,8.45
1630059170078,13.78
1630059170093,18.1
1630059170109,21.62
1630059170125,24.36
1630059170140,26.27
1630059170156,27.38
1630059170171,27.89
1630059170187,28.13
1630059170203,28.41
1630059170218,28.9
1630059170234,29.55
1630059170250,30.2
1630059170265,30.66
1630059170281,30.86
1630059170296,30.87
1630059170312,30.9
1630059170328,31.09
1630059170343,31.53
1630059170359,32.09
1630059170375,32.53
1630059170390,32.5
1630059170406,31.74
1630059170421,30.17
1630059170437,27.95
1630059170453,25.4
1630059170468,22.87
1630059170484,20.59
1630059170500,18.6
1630059170515,16.72
1630059170531,14.75
1630059170546,12.55
1630059170562,10.12
1630059170578,7.62
1630059170593,5.21
1630059170609,3.0
1630059170625,0.92
1630059170640,-1.2
1630059170656,-3.63
1630059170671,-6.56
1630059170687,-10.08
1630059170703,-14.11
1630059170718,-18.41
1630059170734,-22.64
1630059170750,-26.51
1630059170765,-29.85
1630059170781,-32.69
1630059170796,-35.27
1630059170812,-37.97
1630059170828,-41.21
1630059170843,-45.27
1630059170859,-50.25
1630059170875,-55.89
1630059170890,-61.54
1630059170906,-66.21
1630059170921,-68.72
1630059170937,-67.99
1630059170953,-63.46
1630059170968,-55.29
1630059170984,-44.37
1630059171000,-32.13
1630059171015,-20.09
1630059171031,-9.52
1630059171046,-1.09
1630059171062,5.09
1630059171078,9.36
1630059171093,12.34
1630059171109,14.63
1630059171125,16.71
1630059171140,18.81
1630059171156,20.97
1630059171171,23.04
1630059171187,24.86
1630059171203,26.27
1630059171218,27.19
1630059171234,27.64
1630059171250,27.72
1630059171265,27.6
1630059171281,27.48
1630059171296,27.58
1630059171312,28.06
1630059171328,28.93
1630059171343,30.02
1630059171359,30.98
1630059171375,31.43
1630059171390,31.03
1630059171406,29.7
1630059171421,27.57
1630059171437,24.98
1630059171453,22.37
1630059171468,20.08
1630059171484,18.28
1630059171500,16.91
1630059171515,15.74
1630059171531,14.51
1630059171546,13.03
1630059171562,11.26
1630059171578,9.32
1630059171593,7.36
1630059171609,5.46
1630059171625,3.59
1630059171640,1.61
1630059171656,-0.6
1630059171671,-3.1
1630059171687,-5.86
1630059171703,-8.79
1630059171718,-11.85
1630059171734,-15.05
1630059171750,-18.41
1630059171765,-21.87
1630059171781,-25.27
1630059171796,-28.41
1630059171812,-31.21
1630059171828,-33.77
1630059171843,-36.44
1630059171859,-39.66
1630059171875,-43.83
1630059171890,-49.02
1630059171906,-54.83
1630059171921,-60.43
1630059171937,-64.68
1630059171953,-66.38
1630059171968,-64.73
1630059171984,-59.48
1630059172000,-51.1
1630059172015,-40.69
1630059172031,-29.57
1630059172046,-18.99
1630059172062,-9.78
1630059172078,-2.27
1630059172093,3.64
1630059172109,8.28
1630059172125,11.97
1630059172140,14.93
1630059172156,17.25
1630059172171,19.01
1630059172187,20.28
1630059172203,21.2
1630059172218,21.93
1630059172234,22.58
1630059172250,23.21
1630059172265,23.86
1630059172281,24.52
1630059172296,25.26
1630059172312,26.12
1630059172328,27.15
1630059172343,28.24
1630059172359,29.19
1630059172375,29.7
1630059172390,29.51
1630059172406,28.54
1630059172421,26.91
1630059172437,24.94
1630059172453,22.97
1630059172468,21.21
1630059172484,19.69
1630059172500,18.22
1630059172515,16.59
1630059172531,14.67
1630059172546,12.45
1630059172562,10.05
1630059172578,7.61
1630059172593,5.21
1630059172609,2.83
1630059172625,0.38
1630059172640,-2.17
1630059172656,-4.85
1630059172671,-7.58
1630059172687,-10.25
1630059172703,-12.76
1630059172718,-15.05
1630059172734,-17.18
1630059172750,-19.3
1630059172765,-21.65
1630059172781,-24.43
1630059172796,-27.81
1630059172812,-31.8
1630059172828,-36.21
1630059172843,-40.63
1630059172859,-44.46
1630059172875,-46.98
1630059172890,-47.47
1630059172906,-45.4
1630059172921,-40.57
1630059172937,-33.24
1630059172953,-24.16
1630059172968,-14.35
1630059172984,-4.88
1630059173000,3.41
1630059173015,10.06
1630059173031,15.0
1630059173046,18.46
1630059173062,20.77
1630059173078,22.25
1630059173093,23.09
1630059173109,23.43
1630059173125,23.33
1630059173140,22.86
1630059173156,22.18
1630059173171,21.54
1630059173187,21.19
1630059173203,21.34
1630059173218,22.07
1630059173234,23.25
1630059173250,24.62
1630059173265,25.78
1630059173281,26.4
1630059173296,26.29
1630059173312,25.42
1630059173328,23.89
1630059173343,21.88
1630059173359,19.57
1630059173375,17.09
1630059173390,14.49
1630059173406,11.75
1630059173421,8.83
1630059173437,5.69
1630059173453,2.3
1630059173468,-1.28
1630059173484,-4.91
1630059173500,-8.39
1630059173515,-11.58
1630059173531,-14.43
1630059173546,-17.08
1630059173562,-19.79
1630059173578,-22.91
1630059173593,-26.71
1630059173609,-31.28
1630059173625,-36.38
1630059173640,-41.4
1630059173656,-45.44
1630059173671,-47.52
1630059173687,-46.83
1630059173703,-43.02
1630059173718,-36.38
1630059173734,-27.7
1630059173750,-18.11
1630059173765,-8.71
1630059173781,-0.29
1630059173796,6.73
1630059173812,12.28
1630059173828,16.47
1630059173843,19.49
1630059173859,21.46
1630059173875,22.49
1630059173890,22.68
1630059173906,22.19
1630059173921,21.3
1630059173937,20.35
1630059173953,19.68
1630059173968,19.54
1630059173984,19.93
1630059174000,20.66
1630059174015,21.35
1630059174031,21.61
1630059174046,21.23
1630059174062,20.17
1630059174078,18.61
1630059174093,16.83
1630059174109,15.03
1630059174125,13.25
1630059174140,11.37
1630059174156,9.15
1630059174171,6.37
1630059174187,2.97
1630059174203,-0.94
1630059174218,-5.06
1630059174234,-9.08
1630059174250,-12.79
1630059174265,-16.22
1630059174281,-19.5
1630059174296,-22.89
1630059174312,-26.57
1630059174328,-30.69
1630059174343,-35.29
1630059174359,-40.3
1630059174375,-45.47
1630059174390,-50.26
1630059174406,-53.83
1630059174421,-55.18
1630059174437,-53.5
1630059174453,-48.53
1630059174468,-40.71
1630059174484,-31.04
1630059174500,-20.75
1630059174515,-10.86
1630059174531,-1.99
1630059174546,5.7
1630059174562,12.24
1630059174578,17.69
1630059174593,22.06
1630059174609,25.31
1630059174625,27.45
1630059174640,28.61
1630059174656,29.05
1630059174671,29.08
1630059174687,29.01
1630059174703,29.08
1630059174718,29.39
1630059174734,29.91
1630059174750,30.49
1630059174765,30.97
1630059174781,31.24
1630059174796,31.29
1630059174812,31.18
1630059174828,30.96
1630059174843,30.57
1630059174859,29.8
1630059174875,28.37
1630059174890,26.15
1630059174906,23.15
1630059174921,19.62
1630059174937,15.94
1630059174953,12.47
1630059174968,9.37
1630059174984,6.62
1630059175000,3.96
1630059175015,1.11
1630059175031,-2.18
1630059175046,-5.96
1630059175062,-10.06
1630059175078,-14.17
1630059175093,-17.91
1630059175109,-21.13
1630059175125,-23.89
1630059175140,-26.56
1630059175156,-29.62
1630059175171,-33.57
1630059175187,-38.59
1630059175203,-44.5
1630059175218,-50.62
1630059175234,-55.99
1630059175250,-59.53
1630059175265,-60.3
1630059175281,-57.8
1630059175296,-52.05
1630059175312,-43.62
1630059175328,-33.48
1630059175343,-22.76
1630059175359,-12.53
1630059175375,-3.55
1630059175390,3.8
1630059175406,9.5
1630059175421,13.79
1630059175437,17.05
1630059175453,19.61
1630059175468,21.76
1630059175484,23.62
1630059175500,25.21
1630059175515,26.51
1630059175531,27.44
1630059175546,27.97
1630059175562,28.08
1630059175578,27.87
1630059175593,27.49
1630059175609,27.15
1630059175625,27.01
1630059175640,27.09
1630059175656,27.24
1630059175671,27.17
1630059175687,26.63
1630059175703,25.51
1630059175718,23.89
1630059175734,21.97
1630059175750,19.9
1630059175765,17.66
1630059175781,15.11
1630059175796,12.12
1630059175812,8.72
1630059175828,5.12
1630059175843,1.65
1630059175859,-1.49
1630059175875,-4.29
1630059175890,-6.95
1630059175906,-9.72
1630059175921,-12.73
1630059175937,-15.99
1630059175953,-19.42
1630059175968,-23.02
1630059175984,-26.93
1630059176000,-31.31
1630059176015,-36.17
1630059176031,-41.13
1630059176046,-45.4
1630059176062,-47.92
1630059176078,-47.73
1630059176093,-44.34
1630059176109,-37.89
1630059176125,-29.19
1630059176140,-19.42
1630059176156,-9.82
1630059176171,-1.31
1630059176187,5.69
1630059176203,11.18
1630059176218,15.46
1630059176234,18.84
1630059176250,21.5
1630059176265,23.5
1630059176281,24.77
1630059176296,25.27
1630059176312,25.11
1630059176328,24.51
1630059176343,23.78
1630059176359,23.27
1630059176375,23.2
1630059176390,23.61
1630059176406,24.3
1630059176421,24.98
1630059176437,25.32
1630059176453,25.14
1630059176468,24.47
1630059176484,23.46
1630059176500,22.22
1630059176515,20.72
1630059176531,18.78
1630059176546,16.22
