timestamp,bvp
1631118271000,19.61
1631118271015,18.77
1631118271031,18.84
1631118271046,19.37
1631118271062,19.91
1631118271078,20.17
1631118271093,20.04
1631118271109,19.62
1631118271125,19.0
1631118271140,18.2
1631118271156,17.01
1631118271171,15.11
1631118271187,12.14
1631118271203,7.99
1631118271218,2.84
1631118271234,-2.84
1631118271250,-8.44
1631118271265,-13.46
1631118271281,-17.66
1631118271296,-21.14
1631118271312,-24.21
1631118271328,-27.35
1631118271343,-31.01
1631118271359,-35.52
1631118271375,-41.05
1631118271390,-47.47
1631118271406,-54.19
1631118271421,-60.13
1631118271437,-63.81
1631118271453,-63.72
1631118271468,-58.79
1631118271484,-48.82
1631118271500,-34.62
1631118271515,-17.91
1631118271531,-0.78
1631118271546,14.83
1631118271562,27.6
1631118271578,36.99
1631118271593,43.06
1631118271609,46.26
1631118271625,47.07
1631118271640,45.92
1631118271656,43.19
1631118271671,39.36
1631118271687,34.99
1631118271703,30.76
1631118271718,27.26
1631118271734,24.87
1631118271750,23.59
1631118271765,23.09
1631118271781,22.92
1631118271796,22.64
1631118271812,22.04
1631118271828,21.15
1631118271843,20.14
1631118271859,19.21
1631118271875,18.39
1631118271890,17.58
1631118271906,16.47
1631118271921,14.73
1631118271937,12.03
1631118271953,8.24
1631118271968,3.5
1631118271984,-1.79
1631118272000,-7.08
1631118272015,-11.87
1631118272031,-15.86
1631118272046,-19.13
1631118272062,-22.02
1631118272078,-25.06
1631118272093,-28.81
1631118272109,-33.62
1631118272125,-39.55
1631118272140,-46.27
1631118272156,-52.99
1631118272171,-58.51
1631118272187,-61.35
1631118272203,-60.15
1631118272218,-54.02
1631118272234,-42.99
1631118272250,-28.08
1631118272265,-11.15
1631118272281,5.64
1631118272296,20.4
1631118272312,31.97
1631118272328,39.94
1631118272343,44.56
1631118272359,46.38
1631118272375,45.92
1631118272390,43.64
1631118272406,39.91
1631118272421,35.21
1631118272437,30.17
1631118272453,25.53
1631118272468,21.96
1631118272484,19.87
1631118272500,19.24
1631118272515,19.68
1631118272531,20.58
1631118272546,21.33
1631118272562,21.55
1631118272578,21.18
1631118272593,20.36
1631118272609,19.33
1631118272625,18.24
1631118272640,17.01
1631118272656,15.43
1631118272671,13.23
1631118272687,10.27
1631118272703,6.58
1631118272718,2.43
1631118272734,-1.79
1631118272750,-5.68
1631118272765,-9.0
1631118272781,-11.69
1631118272796,-13.9
1631118272812,-15.89
1631118272828,-17.99
1631118272843,-20.55
1631118272859,-23.88
1631118272875,-28.23
1631118272890,-33.65
1631118272906,-39.78
1631118272921,-45.76
1631118272937,-50.28
1631118272953,-51.86
1631118272968,-49.31
1631118272984,-42.23
1631118273000,-31.18
1631118273015,-17.55
1631118273031,-3.15
1631118273046,10.27
1631118273062,21.47
1631118273078,29.79
1631118273093,35.07
1631118273109,37.46
1631118273125,37.27
1631118273140,34.83
1631118273156,30.57
1631118273171,25.08
1631118273187,19.1
1631118273203,13.47
1631118273218,8.94
1631118273234,6.06
1631118273250,4.98
1631118273265,5.52
1631118273281,7.17
1631118273296,9.33
1631118273312,11.45
1631118273328,13.21
1631118273343,14.47
1631118273359,15.24
1631118273375,15.52
1631118273390,15.21
1631118273406,14.05
1631118273421,11.77
1631118273437,8.28
1631118273453,3.75
1631118273468,-1.32
1631118273484,-6.26
1631118273500,-10.47
1631118273515,-13.67
1631118273531,-16.0
1631118273546,-17.9
1631118273562,-20.0
1631118273578,-22.78
1631118273593,-26.58
1631118273609,-31.46
1631118273625,-37.22
1631118273640,-43.29
1631118273656,-48.71
1631118273671,-52.18
1631118273687,-52.32
1631118273703,-48.14
1631118273718,-39.46
1631118273734,-27.02
1631118273750,-12.45
1631118273765,2.33
1631118273781,15.6
1631118273796,26.2
1631118273812,33.66
1631118273828,38.03
1631118273843,39.59
1631118273859,38.7
1631118273875,35.73
1631118273890,31.16
1631118273906,25.6
1631118273921,19.83
1631118273937,14.63
1631118273953,10.65
1631118273968,8.29
1631118273984,7.6
1631118274000,8.32
1631118274015,9.96
1631118274031,11.96
1631118274046,13.77
1631118274062,14.93
1631118274078,15.2
1631118274093,14.5
1631118274109,12.93
1631118274125,10.67
1631118274140,7.91
1631118274156,4.81
1631118274171,1.47
1631118274187,-2.09
1631118274203,-5.85
1631118274218,-9.74
1631118274234,-13.65
1631118274250,-17.47
1631118274265,-21.07
1631118274281,-24.37
1631118274296,-27.35
1631118274312,-30.05
1631118274328,-32.58
1631118274343,-35.2
1631118274359,-38.3
1631118274375,-42.35
1631118274390,-47.67
1631118274406,-54.2
1631118274421,-61.2
1631118274437,-67.25
1631118274453,-70.48
1631118274468,-69.17
1631118274484,-62.29
1631118274500,-50.04
1631118274515,-33.82
1631118274531,-15.85
1631118274546,1.48
1631118274562,16.26
1631118274578,27.46
1631118274593,34.88
1631118274609,38.95
1631118274625,40.28
1631118274640,39.46
1631118274656,37.0
1631118274671,33.42
1631118274687,29.34
1631118274703,25.47
1631118274718,22.52
1631118274734,20.94
1631118274750,20.81
1631118274765,21.87
1631118274781,23.61
1631118274796,25.44
1631118274812,26.96
1631118274828,27.92
1631118274843,28.28
1631118274859,28.11
1631118274875,27.49
1631118274890,26.45
1631118274906,24.96
1631118274921,22.92
1631118274937,20.24
1631118274953,16.88
1631118274968,12.87
1631118274984,8.38
1631118275000,3.64
1631118275015,-1.12
1631118275031,-5.69
1631118275046,-9.94
1631118275062,-13.84
1631118275078,-17.41
1631118275093,-20.76
1631118275109,-24.11
1631118275125,-27.77
1631118275140,-32.16
1631118275156,-37.61
1631118275171,-44.16
1631118275187,-51.31
1631118275203,-57.92
1631118275218,-62.33
1631118275234,-62.83
1631118275250,-58.22
1631118275265,-48.28
1631118275281,-33.94
1631118275296,-16.99
1631118275312,0.37
1631118275328,16.14
1631118275343,28.95
1631118275359,38.19
1631118275375,43.85
1631118275390,46.32
1631118275406,46.16
1631118275421,44.0
1631118275437,40.54
1631118275453,36.5
1631118275468,32.55
1631118275484,29.24
1631118275500,26.9
1631118275515,25.64
1631118275531,25.33
1631118275546,25.76
1631118275562,26.69
1631118275578,27.91
1631118275593,29.3
1631118275609,30.73
1631118275625,31.98
1631118275640,32.76
1631118275656,32.76
1631118275671,31.75
1631118275687,29.66
1631118275703,26.62
1631118275718,22.98
1631118275734,19.1
1631118275750,15.35
1631118275765,12.0
1631118275781,9.18
1631118275796,6.93
1631118275812,5.21
1631118275828,3.85
1631118275843,2.61
1631118275859,1.21
1631118275875,-0.61
1631118275890,-3.03
1631118275906,-6.12
1631118275921,-9.89
1631118275937,-14.48
1631118275953,-20.05
1631118275968,-26.72
1631118275984,-34.19
1631118276000,-41.59
1631118276015,-47.37
1631118276031,-49.73
1631118276046,-47.24
1631118276062,-39.44
1631118276078,-27.19
1631118276093,-12.43
1631118276109,2.39
1631118276125,15.04
1631118276140,24.16
1631118276156,29.38
1631118276171,31.12
1631118276187,30.17
1631118276203,27.3
1631118276218,23.13
1631118276234,18.12
1631118276250,12.77
1631118276265,7.72
1631118276281,3.65
1631118276296,1.12
1631118276312,0.37
1631118276328,1.15
1631118276343,2.82
1631118276359,4.59
1631118276375,5.85
1631118276390,6.33
1631118276406,6.24
1631118276421,6.01
1631118276437,6.08
1631118276453,6.64
1631118276468,7.63
1631118276484,8.82
1631118276500,9.99
1631118276515,11.0
1631118276531,11.85
1631118276546,12.58
1631118276562,13.19
1631118276578,13.58
1631118276593,13.69
1631118276609,13.48
1631118276625,12.99
1631118276640,12.26
1631118276656,11.2
1631118276671,9.57
1631118276687,6.95
1631118276703,2.95
1631118276718,-2.56
1631118276734,-9.3
1631118276750,-16.42
1631118276765,-22.63
1631118276781,-26.52
1631118276796,-26.84
1631118276812,-22.88
1631118276828,-14.61
1631118276843,-2.84
1631118276859,11.02
1631118276875,25.22
1631118276890,38.09
1631118276906,48.31
1631118276921,55.15
1631118276937,58.42
1631118276953,58.32
1631118276968,55.14
1631118276984,49.07
1631118277000,40.32
1631118277015,29.25
1631118277031,16.64
1631118277046,3.65
1631118277062,-8.35
1631118277078,-18.27
1631118277093,-25.63
1631118277109,-30.65
1631118277125,-33.97
1631118277140,-36.16
1631118277156,-37.48
1631118277171,-37.8
1631118277187,-37.06
1631118277203,-35.64
1631118277218,-34.51
1631118277234,-34.93
1631118277250,-37.95
1631118277265,-43.76
1631118277281,-51.53
1631118277296,-59.69
1631118277312,-66.51
1631118277328,-70.68
1631118277343,-71.75
1631118277359,-70.01
1631118277375,-66.31
1631118277390,-61.78
1631118277406,-57.6
1631118277421,-54.96
1631118277437,-54.9
1631118277453,-57.92
1631118277468,-63.59
1631118277484,-70.2
1631118277500,-74.92
1631118277515,-74.5
1631118277531,-66.28
1631118277546,-49.18
1631118277562,-24.15
1631118277578,6.01
1631118277593,37.55
1631118277609,66.78
1631118277625,90.97
1631118277640,108.72
1631118277656,119.78
1631118277671,124.62
1631118277687,123.91
1631118277703,118.34
1631118277718,108.7
1631118277734,96.2
1631118277750,82.63
1631118277765,70.17
1631118277781,60.89
1631118277796,55.98
1631118277812,55.29
1631118277828,57.38
1631118277843,60.07
1631118277859,61.35
1631118277875,60.03
1631118277890,56.0
1631118277906,49.91
1631118277921,42.53
1631118277937,34.45
1631118277953,25.91
1631118277968,17.15
1631118277984,8.63
1631118278000,1.08
1631118278015,-4.81
1631118278031,-8.84
1631118278046,-11.56
1631118278062,-14.12
1631118278078,-17.7
1631118278093,-22.96
1631118278109,-29.63
1631118278125,-36.72
1631118278140,-43.07
1631118278156,-48.1
1631118278171,-52.12
1631118278187,-56.31
1631118278203,-62.2
1631118278218,-70.99
1631118278234,-82.96
1631118278250,-97.28
1631118278265,-112.06
1631118278281,-124.79
1631118278296,-132.99
1631118278312,-134.91
1631118278328,-130.02
1631118278343,-119.16
1631118278359,-104.22
1631118278375,-87.49
1631118278390,-70.9
1631118278406,-55.61
1631118278421,-42.01
1631118278437,-30.02
1631118278453,-19.49
1631118278468,-10.5
1631118278484,-3.22
1631118278500,2.25
1631118278515,6.05
1631118278531,8.52
1631118278546,10.06
1631118278562,11.06
1631118278578,12.06
1631118278593,13.78
1631118278609,17.07
1631118278625,22.53
1631118278640,29.94
1631118278656,38.06
1631118278671,44.9
1631118278687,48.6
1631118278703,48.33
1631118278718,44.86
1631118278734,40.3
1631118278750,37.1
1631118278765,36.93
1631118278781,39.92
1631118278796,44.7
1631118278812,49.13
1631118278828,51.24
1631118278843,49.94
1631118278859,45.18
1631118278875,37.58
1631118278890,27.97
1631118278906,17.11
1631118278921,5.6
1631118278937,-6.01
1631118278953,-17.13
1631118278968,-27.18
1631118278984,-35.86
1631118279000,-43.18
1631118279015,-49.47
1631118279031,-55.01
1631118279046,-59.66
1631118279062,-62.66
1631118279078,-62.84
1631118279093,-59.04
1631118279109,-50.77
1631118279125,-38.47
1631118279140,-23.52
1631118279156,-7.8
1631118279171,6.79
1631118279187,18.8
1631118279203,27.44
1631118279218,32.52
1631118279234,34.28
1631118279250,33.18
1631118279265,29.86
1631118279281,25.08
1631118279296,19.71
1631118279312,14.62
1631118279328,10.56
1631118279343,8.0
1631118279359,7.02
1631118279375,7.33
1631118279390,8.45
1631118279406,9.88
1631118279421,11.26
1631118279437,12.42
1631118279453,13.35
1631118279468,14.06
1631118279484,14.48
1631118279500,14.42
1631118279515,13.59
1631118279531,11.7
1631118279546,8.56
1631118279562,4.26
1631118279578,-0.8
1631118279593,-6.04
1631118279609,-10.81
1631118279625,-14.67
1631118279640,-17.57
1631118279656,-19.85
1631118279671,-22.12
1631118279687,-25.07
1631118279703,-29.18
1631118279718,-34.64
1631118279734,-41.16
1631118279750,-47.94
1631118279765,-53.76
1631118279781,-57.11
1631118279796,-56.6
1631118279812,-51.34
1631118279828,-41.34
1631118279843,-27.62
1631118279859,-11.94
1631118279875,3.67
1631118279890,17.49
1631118279906,28.49
1631118279921,36.39
1631118279937,41.38
1631118279953,43.85
1631118279968,44.14
1631118279984,42.51
1631118280000,39.29
1631118280015,34.97
1631118280031,30.29
1631118280046,26.05
1631118280062,22.97
1631118280078,21.4
1631118280093,21.36
1631118280109,22.46
1631118280125,24.16
1631118280140,25.91
1631118280156,27.27
1631118280171,27.97
1631118280187,27.95
1631118280203,27.23
1631118280218,25.9
1631118280234,24.02
1631118280250,21.59
1631118280265,18.56
1631118280281,14.85
1631118280296,10.41
1631118280312,5.33
1631118280328,-0.17
1631118280343,-5.72
1631118280359,-10.94
1631118280375,-15.5
1631118280390,-19.28
1631118280406,-22.33
1631118280421,-24.97
1631118280437,-27.65
1631118280453,-30.97
1631118280468,-35.45
1631118280484,-41.4
1631118280500,-48.61
1631118280515,-56.16
1631118280531,-62.46
1631118280546,-65.56
1631118280562,-63.79
1631118280578,-56.34
1631118280593,-43.62
1631118280609,-27.3
1631118280625,-9.68
1631118280640,6.92
1631118280656,20.78
1631118280671,31.12
1631118280687,37.98
1631118280703,41.91
1631118280718,43.59
1631118280734,43.61
1631118280750,42.46
1631118280765,40.54
1631118280781,38.25
1631118280796,35.99
1631118280812,34.08
1631118280828,32.68
1631118280843,31.81
1631118280859,31.41
1631118280875,31.36
1631118280890,31.54
1631118280906,31.81
1631118280921,31.99
1631118280937,31.79
1631118280953,31.0
1631118280968,29.47
1631118280984,27.23
1631118281000,24.47
1631118281015,21.4
1631118281031,18.13
1631118281046,14.62
1631118281062,10.72
1631118281078,6.33
1631118281093,1.51
1631118281109,-3.49
1631118281125,-8.29
1631118281140,-12.52
1631118281156,-16.0
1631118281171,-18.82
1631118281187,-21.33
1631118281203,-23.99
1631118281218,-27.29
1631118281234,-31.64
1631118281250,-37.2
1631118281265,-43.8
1631118281281,-50.79
1631118281296,-57.03
1631118281312,-61.0
1631118281328,-61.18
1631118281343,-56.55
1631118281359,-46.97
1631118281375,-33.34
1631118281390,-17.41
1631118281406,-1.24
1631118281421,13.34
1631118281437,25.13
1631118281453,33.64
1631118281468,38.98
1631118281484,41.55
1631118281500,41.86
1631118281515,40.46
1631118281531,37.98
1631118281546,35.06
1631118281562,32.31
1631118281578,30.18
1631118281593,28.85
1631118281609,28.21
1631118281625,28.01
1631118281640,27.99
1631118281656,28.02
1631118281671,28.15
1631118281687,28.48
1631118281703,29.06
1631118281718,29.76
1631118281734,30.22
1631118281750,30.03
1631118281765,28.79
1631118281781,26.37
1631118281796,22.87
1631118281812,18.67
1631118281828,14.19
1631118281843,9.81
1631118281859,5.72
1631118281875,1.91
1631118281890,-1.74
1631118281906,-5.34
1631118281921,-8.91
1631118281937,-12.39
1631118281953,-15.64
1631118281968,-18.55
1631118281984,-21.12
1631118282000,-23.41
1631118282015,-25.67
1631118282031,-28.27
1631118282046,-31.64
1631118282062,-36.18
1631118282078,-41.97
1631118282093,-48.53
1631118282109,-54.71
1631118282125,-58.83
1631118282140,-59.16
1631118282156,-54.53
1631118282171,-44.83
1631118282187,-31.09
1631118282203,-15.23
1631118282218,0.56
1631118282234,14.46
1631118282250,25.36
1631118282265,32.95
1631118282281,37.43
1631118282296,39.23
1631118282312,38.83
1631118282328,36.7
1631118282343,33.43
1631118282359,29.7
1631118282375,26.29
1631118282390,23.83
1631118282406,22.65
1631118282421,22.7
1631118282437,23.63
1631118282453,24.94
1631118282468,26.23
1631118282484,27.22
1631118282500,27.83
1631118282515,28.07
1631118282531,27.92
1631118282546,27.39
1631118282562,26.39
1631118282578,24.85
1631118282593,22.67
1631118282609,19.84
1631118282625,16.39
1631118282640,12.53
1631118282656,8.57
1631118282671,4.84
1631118282687,1.61
1631118282703,-1.05
1631118282718,-3.28
1631118282734,-5.38
1631118282750,-7.6
1631118282765,-10.08
1631118282781,-12.75
1631118282796,-15.43
1631118282812,-17.89
1631118282828,-19.98
1631118282843,-21.68
1631118282859,-23.16
1631118282875,-24.72
1631118282890,-26.76
1631118282906,-29.7
1631118282921,-33.89
1631118282937,-39.37
1631118282953,-45.71
1631118282968,-51.9
1631118282984,-56.42
1631118283000,-57.63
1631118283015,-54.3
1631118283031,-46.03
1631118283046,-33.56
1631118283062,-18.49
1631118283078,-2.94
1631118283093,11.17
1631118283109,22.5
1631118283125,30.49
1631118283140,35.24
1631118283156,37.19
1631118283171,36.84
1631118283187,34.66
1631118283203,31.09
1631118283218,26.68
1631118283234,22.14
1631118283250,18.28
1631118283265,15.82
1631118283281,15.13
1631118283296,16.12
1631118283312,18.27
1631118283328,20.83
1631118283343,23.12
1631118283359,24.75
1631118283375,25.68
1631118283390,26.07
1631118283406,26.11
1631118283421,25.82
1631118283437,25.02
1631118283453,23.46
1631118283468,20.96
1631118283484,17.61
1631118283500,13.77
1631118283515,9.96
1631118283531,6.65
1631118283546,4.12
1631118283562,2.28
1631118283578,0.8
1631118283593,-0.76
1631118283609,-2.72
1631118283625,-5.13
1631118283640,-7.8
1631118283656,-10.38
1631118283671,-12.61
1631118283687,-14.39
1631118283703,-15.84
1631118283718,-17.2
1631118283734,-18.73
1631118283750,-20.68
1631118283765,-23.28
1631118283781,-26.71
1631118283796,-31.1
1631118283812,-36.31
1631118283828,-41.74
1631118283843,-46.3
1631118283859,-48.52
1631118283875,-47.06
1631118283890,-41.16
1631118283906,-31.02
1631118283921,-17.87
1631118283937,-3.55
1631118283953,10.04
1631118283968,21.42
1631118283984,29.82
1631118284000,35.04
1631118284015,37.3
1631118284031,36.91
1631118284046,34.25
1631118284062,29.81
1631118284078,24.32
1631118284093,18.71
1631118284109,13.96
1631118284125,10.81
1631118284140,9.58
1631118284156,10.09
1631118284171,11.8
1631118284187,14.04
1631118284203,16.25
1631118284218,18.11
1631118284234,19.5
1631118284250,20.41
1631118284265,20.85
1631118284281,20.74
1631118284296,19.95
1631118284312,18.34
1631118284328,15.84
1631118284343,12.54
1631118284359,8.67
1631118284375,4.6
1631118284390,0.68
1631118284406,-2.76
1631118284421,-5.66
1631118284437,-8.12
1631118284453,-10.41
1631118284468,-12.81
1631118284484,-15.41
1631118284500,-18.12
1631118284515,-20.65
1631118284531,-22.74
1631118284546,-24.26
1631118284562,-25.34
1631118284578,-26.4
1631118284593,-27.98
1631118284609,-30.6
1631118284625,-34.56
1631118284640,-39.82
1631118284656,-45.85
1631118284671,-51.62
1631118284687,-55.75
1631118284703,-56.82
1631118284718,-53.73
1631118284734,-46.12
1631118284750,-34.53
1631118284765,-20.31
1631118284781,-5.27
1631118284796,8.8
1631118284812,20.53
1631118284828,29.13
1631118284843,34.43
1631118284859,36.63
1631118284875,36.2
1631118284890,33.71
1631118284906,29.77
1631118284921,25.11
1631118284937,20.43
1631118284953,16.41
1631118284968,13.56
1631118284984,12.17
1631118285000,12.22
1631118285015,13.49
1631118285031,15.59
1631118285046,18.06
1631118285062,20.42
1631118285078,22.32
1631118285093,23.48
1631118285109,23.8
1631118285125,23.28
1631118285140,21.98
1631118285156,19.98
1631118285171,17.39
1631118285187,14.27
1631118285203,10.75
1631118285218,7.06
1631118285234,3.46
1631118285250,0.19
1631118285265,-2.6
1631118285281,-4.99
1631118285296,-7.22
1631118285312,-9.6
1631118285328,-12.37
1631118285343,-15.58
1631118285359,-19.01
1631118285375,-22.35
1631118285390,-25.26
1631118285406,-27.57
1631118285421,-29.37
1631118285437,-30.99
1631118285453,-32.92
1631118285468,-35.68
1631118285484,-39.66
1631118285500,-44.99
1631118285515,-51.41
1631118285531,-58.12
1631118285546,-63.81
1631118285562,-66.93
1631118285578,-66.0
1631118285593,-60.15
1631118285609,-49.43
1631118285625,-34.94
1631118285640,-18.45
1631118285656,-2.02
1631118285671,12.62
1631118285687,24.3
1631118285703,32.54
1631118285718,37.4
1631118285734,39.27
1631118285750,38.75
1631118285765,36.52
1631118285781,33.3
1631118285796,29.81
1631118285812,26.65
1631118285828,24.29
1631118285843,22.97
1631118285859,22.69
1631118285875,23.26
1631118285890,24.35
1631118285906,25.6
1631118285921,26.72
1631118285937,27.54
1631118285953,28.01
1631118285968,28.13
1631118285984,27.86
1631118286000,27.13
1631118286015,25.85
1631118286031,23.95
1631118286046,21.43
1631118286062,18.39
1631118286078,14.94
1631118286093,11.22
1631118286109,7.4
1631118286125,3.69
1631118286140,0.28
1631118286156,-2.69
1631118286171,-5.19
1631118286187,-7.43
1631118286203,-9.64
1631118286218,-12.07
1631118286234,-14.82
1631118286250,-17.77
1631118286265,-20.66
1631118286281,-23.25
1631118286296,-25.44
1631118286312,-27.32
1631118286328,-29.23
1631118286343,-31.58
1631118286359,-34.83
1631118286375,-39.34
1631118286390,-45.19
1631118286406,-51.98
1631118286421,-58.82
1631118286437,-64.27
1631118286453,-66.71
1631118286468,-64.76
1631118286484,-57.77
1631118286500,-46.06
1631118286515,-30.99
1631118286531,-14.47
1631118286546,1.46
1631118286562,15.16
1631118286578,25.67
1631118286593,32.75
1631118286609,36.65
1631118286625,37.87
1631118286640,36.95
1631118286656,34.44
1631118286671,30.88
1631118286687,26.86
1631118286703,23.02
1631118286718,19.93
1631118286734,18.0
1631118286750,17.37
1631118286765,17.9
1631118286781,19.25
1631118286796,20.98
1631118286812,22.77
1631118286828,24.4
1631118286843,25.77
1631118286859,26.86
1631118286875,27.6
1631118286890,27.83
1631118286906,27.33
1631118286921,25.89
1631118286937,23.36
1631118286953,19.81
1631118286968,15.52
1631118286984,10.93
1631118287000,6.54
1631118287015,2.75
1631118287031,-0.26
1631118287046,-2.56
1631118287062,-4.43
1631118287078,-6.25
1631118287093,-8.34
1631118287109,-10.86
1631118287125,-13.76
1631118287140,-16.84
1631118287156,-19.78
1631118287171,-22.33
1631118287187,-24.41
1631118287203,-26.13
1631118287218,-27.82
1631118287234,-29.88
1631118287250,-32.71
1631118287265,-36.62
1631118287281,-41.68
1631118287296,-47.61
1631118287312,-53.66
1631118287328,-58.61
1631118287343,-60.99
1631118287359,-59.41
1631118287375,-53.13
1631118287390,-42.36
1631118287406,-28.29
1631118287421,-12.75
1631118287437,2.29
1631118287453,15.29
1631118287468,25.36
1631118287484,32.27
1631118287500,36.16
1631118287515,37.37
1631118287531,36.3
1631118287546,33.38
1631118287562,29.16
1631118287578,24.34
1631118287593,19.66
1631118287609,15.82
1631118287625,13.36
1631118287640,12.53
1631118287656,13.28
1631118287671,15.3
1631118287687,18.08
1631118287703,21.12
1631118287718,23.99
1631118287734,26.38
1631118287750,28.14
1631118287765,29.16
1631118287781,29.33
1631118287796,28.55
1631118287812,26.69
1631118287828,23.78
1631118287843,19.99
1631118287859,15.69
1631118287875,11.34
1631118287890,7.4
1631118287906,4.15
1631118287921,1.66
1631118287937,-0.26
1631118287953,-2.01
1631118287968,-4.02
1631118287984,-6.56
1631118288000,-9.64
1631118288015,-12.92
1631118288031,-15.94
1631118288046,-18.25
1631118288062,-19.74
1631118288078,-20.63
1631118288093,-21.49
1631118288109,-22.98
1631118288125,-25.61
1631118288140,-29.57
1631118288156,-34.64
1631118288171,-40.15
1631118288187,-45.1
1631118288203,-48.29
1631118288218,-48.51
1631118288234,-44.93
1631118288250,-37.33
1631118288265,-26.27
1631118288281,-12.99
1631118288296,0.84
1631118288312,13.61
1631118288328,24.08
1631118288343,31.57
1631118288359,35.89
1631118288375,37.17
1631118288390,35.74
1631118288406,32.09
1631118288421,26.86
1631118288437,20.89
1631118288453,15.09
1631118288468,10.34
1631118288484,7.24
1631118288500,6.08
1631118288515,6.74
1631118288531,8.83
1631118288546,11.78
1631118288562,15.04
1631118288578,18.09
1631118288593,20.58
1631118288609,22.29
1631118288625,23.1
1631118288640,22.93
1631118288656,21.77
1631118288671,19.62
1631118288687,16.55
1631118288703,12.78
1631118288718,8.62
1631118288734,4.45
1631118288750,0.59
1631118288765,-2.81
1631118288781,-5.81
1631118288796,-8.65
1631118288812,-11.58
1631118288828,-14.72
1631118288843,-17.98
1631118288859,-21.07
1631118288875,-23.71
1631118288890,-25.76
1631118288906,-27.35
1631118288921,-28.88
1631118288937,-30.94
1631118288953,-34.11
1631118288968,-38.71
1631118288984,-44.68
1631118289000,-51.34
1631118289015,-57.45
1631118289031,-61.42
1631118289046,-61.72
1631118289062,-57.37
1631118289078,-48.29
1631118289093,-35.42
1631118289109,-20.35
1631118289125,-4.95
1631118289140,9.18
1631118289156,20.92
1631118289171,29.72
1631118289187,35.41
1631118289203,38.12
1631118289218,38.09
1631118289234,35.78
1631118289250,31.81
1631118289265,26.96
1631118289281,22.11
1631118289296,18.05
1631118289312,15.33
1631118289328,14.18
1631118289343,14.47
1631118289359,15.84
1631118289375,17.8
1631118289390,19.93
1631118289406,21.97
1631118289421,23.81
1631118289437,25.4
1631118289453,26.57
1631118289468,27.04
1631118289484,26.44
1631118289500,24.47
1631118289515,21.1
1631118289531,16.64
1631118289546,11.66
1631118289562,6.8
1631118289578,2.55
1631118289593,-0.93
1631118289609,-3.8
1631118289625,-6.45
1631118289640,-9.27
1631118289656,-12.46
1631118289671,-15.95
1631118289687,-19.47
1631118289703,-22.7
1631118289718,-25.38
1631118289734,-27.55
1631118289750,-29.46
1631118289765,-31.58
1631118289781,-34.45
1631118289796,-38.55
1631118289812,-44.1
1631118289828,-50.86
1631118289843,-58.02
1631118289859,-64.18
1631118289875,-67.62
1631118289890,-66.73
1631118289906,-60.6
1631118289921,-49.37
1631118289937,-34.24
1631118289953,-17.2
1631118289968,-0.42
1631118289984,14.29
1631118290000,25.81
1631118290015,33.77
1631118290031,38.38
1631118290046,40.13
1631118290062,39.59
1631118290078,37.41
1631118290093,34.15
1631118290109,30.45
1631118290125,26.92
1631118290140,24.13
1631118290156,22.44
1631118290171,21.99
1631118290187,22.61
1631118290203,23.9
1631118290218,25.4
1631118290234,26.71
1631118290250,27.69
1631118290265,28.36
1631118290281,28.82
1631118290296,29.06
1631118290312,28.89
1631118290328,27.97
1631118290343,25.98
1631118290359,22.83
1631118290375,18.77
1631118290390,14.27
1631118290406,9.92
1631118290421,6.12
1631118290437,2.96
1631118290453,0.22
1631118290468,-2.49
1631118290484,-5.51
1631118290500,-8.96
1631118290515,-12.66
1631118290531,-16.26
1631118290546,-19.39
1631118290562,-21.85
1631118290578,-23.72
1631118290593,-25.36
1631118290609,-27.32
1631118290625,-30.19
1631118290640,-34.45
1631118290656,-40.29
1631118290671,-47.36
1631118290687,-54.66
1631118290703,-60.63
1631118290718,-63.45
1631118290734,-61.62
1631118290750,-54.45
1631118290765,-42.39
1631118290781,-26.98
1631118290796,-10.32
1631118290812,5.46
1631118290828,18.77
1631118290843,28.77
1631118290859,35.29
1631118290875,38.6
1631118290890,39.15
1631118290906,37.5
1631118290921,34.26
1631118290937,30.15
1631118290953,25.95
1631118290968,22.46
1631118290984,20.29
1631118291000,19.73
1631118291015,20.7
1631118291031,22.78
1631118291046,25.35
1631118291062,27.78
1631118291078,29.63
1631118291093,30.75
1631118291109,31.17
1631118291125,31.06
1631118291140,30.56
1631118291156,29.66
1631118291171,28.23
1631118291187,26.1
1631118291203,23.22
1631118291218,19.66
1631118291234,15.73
1631118291250,11.83
1631118291265,8.3
1631118291281,5.28
1631118291296,2.68
1631118291312,0.21
1631118291328,-2.46
1631118291343,-5.52
1631118291359,-8.95
1631118291375,-12.44
1631118291390,-15.6
1631118291406,-18.13
1631118291421,-20.01
1631118291437,-21.54
1631118291453,-23.25
1631118291468,-25.75
1631118291484,-29.52
1631118291500,-34.69
1631118291515,-40.92
1631118291531,-47.36
1631118291546,-52.72
1631118291562,-55.54
1631118291578,-54.53
1631118291593,-49.03
1631118291609,-39.2
1631118291625,-26.1
1631118291640,-11.37
1631118291656,3.17
1631118291671,15.95
1631118291687,25.98
1631118291703,32.85
1631118291718,36.59
1631118291734,37.5
1631118291750,36.01
1631118291765,32.66
1631118291781,28.16
1631118291796,23.32
1631118291812,19.05
1631118291828,16.09
1631118291843,14.86
1631118291859,15.38
1631118291875,17.23
1631118291890,19.8
1631118291906,22.48
1631118291921,24.85
1631118291937,26.7
1631118291953,27.99
1631118291968,28.69
1631118291984,28.72
1631118292000,27.91
1631118292015,26.15
1631118292031,23.45
1631118292046,20.05
1631118292062,16.36
1631118292078,12.8
1631118292093,9.66
1631118292109,6.95
1631118292125,4.5
1631118292140,2.05
1631118292156,-0.59
1631118292171,-3.38
1631118292187,-6.12
1631118292203,-8.55
1631118292218,-10.5
1631118292234,-11.94
1631118292250,-13.08
1631118292265,-14.22
1631118292281,-15.77
1631118292296,-18.13
1631118292312,-21.62
1631118292328,-26.39
1631118292343,-32.23
1631118292359,-38.4
1631118292375,-43.65
1631118292390,-46.46
1631118292406,-45.46
1631118292421,-39.96
1631118292437,-30.23
1631118292453,-17.5
1631118292468,-3.6
1631118292484,9.58
1631118292500,20.57
1631118292515,28.61
1631118292531,33.56
1631118292546,35.66
1631118292562,35.33
1631118292578,32.97
1631118292593,29.07
1631118292609,24.23
1631118292625,19.27
1631118292640,15.04
1631118292656,12.26
1631118292671,11.31
1631118292687,12.05
1631118292703,13.99
1631118292718,16.45
1631118292734,18.82
1631118292750,20.76
1631118292765,22.12
1631118292781,22.93
1631118292796,23.15
1631118292812,22.67
1631118292828,21.29
1631118292843,18.88
1631118292859,15.45
1631118292875,11.3
1631118292890,6.95
1631118292906,2.94
1631118292921,-0.35
1631118292937,-2.83
1631118292953,-4.72
1631118292968,-6.46
1631118292984,-8.45
1631118293000,-10.94
1631118293015,-13.85
1631118293031,-16.91
1631118293046,-19.77
1631118293062,-22.18
1631118293078,-24.13
1631118293093,-25.79
1631118293109,-27.58
1631118293125,-30.01
1631118293140,-33.58
1631118293156,-38.65
1631118293171,-45.14
1631118293187,-52.3
1631118293203,-58.69
1631118293218,-62.43
1631118293234,-61.77
1631118293250,-55.74
1631118293265,-44.56
1631118293281,-29.68
1631118293296,-13.28
1631118293312,2.39
1631118293328,15.61
1631118293343,25.49
1631118293359,31.93
1631118293375,35.26
1631118293390,36.0
1631118293406,34.7
1631118293421,31.94
1631118293437,28.38
1631118293453,24.77
1631118293468,21.83
1631118293484,20.09
1631118293500,19.76
1631118293515,20.65
1631118293531,22.31
1631118293546,24.17
1631118293562,25.77
1631118293578,26.88
1631118293593,27.51
1631118293609,27.81
1631118293625,27.88
1631118293640,27.67
1631118293656,26.96
1631118293671,25.48
1631118293687,23.08
1631118293703,19.84
1631118293718,16.04
1631118293734,12.17
1631118293750,8.6
1631118293765,5.54
1631118293781,2.91
1631118293796,0.41
1631118293812,-2.31
1631118293828,-5.48
1631118293843,-9.12
1631118293859,-12.96
1631118293875,-16.6
1631118293890,-19.67
1631118293906,-22.0
1631118293921,-23.7
1631118293937,-25.17
1631118293953,-26.97
1631118293968,-29.65
1631118293984,-33.64
1631118294000,-39.0
1631118294015,-45.32
1631118294031,-51.64
1631118294046,-56.53
1631118294062,-58.4
1631118294078,-55.97
1631118294093,-48.72
1631118294109,-37.15
1631118294125,-22.69
1631118294140,-7.35
1631118294156,6.91
1631118294171,18.62
1631118294187,27.03
1631118294203,32.12
1631118294218,34.31
1631118294234,34.23
1631118294250,32.5
1631118294265,29.74
1631118294281,26.51
1631118294296,23.4
1631118294312,20.95
1631118294328,19.58
1631118294343,19.47
1631118294359,20.48
1631118294375,22.19
1631118294390,24.07
1631118294406,25.62
1631118294421,26.56
1631118294437,26.87
1631118294453,26.72
1631118294468,26.28
1631118294484,25.62
1631118294500,24.61
1631118294515,23.03
1631118294531,20.7
1631118294546,17.6
1631118294562,13.93
1631118294578,10.13
1631118294593,6.62
1631118294609,3.71
1631118294625,1.47
1631118294640,-0.34
1631118294656,-2.13
1631118294671,-4.29
1631118294687,-7.0
1631118294703,-10.17
1631118294718,-13.49
1631118294734,-16.57
1631118294750,-19.13
1631118294765,-21.09
1631118294781,-22.63
1631118294796,-24.1
1631118294812,-25.97
1631118294828,-28.72
1631118294843,-32.7
1631118294859,-38.0
1631118294875,-44.17
1631118294890,-50.21
1631118294906,-54.61
1631118294921,-55.77
1631118294937,-52.46
1631118294953,-44.33
1631118294968,-32.13
1631118294984,-17.49
1631118295000,-2.47
1631118295015,11.04
1631118295031,21.76
1631118295046,29.18
1631118295062,33.38
1631118295078,34.78
1631118295093,33.94
1631118295109,31.45
1631118295125,27.89
1631118295140,23.99
1631118295156,20.48
1631118295171,18.05
1631118295187,17.1
1631118295203,17.64
1631118295218,19.29
1631118295234,21.41
1631118295250,23.36
1631118295265,24.69
1631118295281,25.3
1631118295296,25.34
1631118295312,25.09
1631118295328,24.75
1631118295343,24.33
1631118295359,23.63
1631118295375,22.36
1631118295390,20.28
1631118295406,17.39
1631118295421,13.92
1631118295437,10.32
1631118295453,7.04
1631118295468,4.34
1631118295484,2.19
1631118295500,0.3
1631118295515,-1.72
1631118295531,-4.13
1631118295546,-6.92
1631118295562,-9.85
1631118295578,-12.55
1631118295593,-14.76
1631118295609,-16.42
1631118295625,-17.73
1631118295640,-19.04
1631118295656,-20.79
1631118295671,-23.3
1631118295687,-26.84
1631118295703,-31.44
1631118295718,-36.82
1631118295734,-42.24
1631118295750,-46.51
1631118295765,-48.22
1631118295781,-46.14
1631118295796,-39.73
1631118295812,-29.41
1631118295828,-16.5
1631118295843,-2.86
1631118295859,9.7
1631118295875,19.89
1631118295890,27.12
1631118295906,31.43
1631118295921,33.18
1631118295937,32.81
1631118295953,30.68
1631118295968,27.16
1631118295984,22.78
1631118296000,18.23
1631118296015,14.33
1631118296031,11.78
1631118296046,10.96
1631118296062,11.82
1631118296078,13.86
1631118296093,16.4
1631118296109,18.81
1631118296125,20.68
1631118296140,21.92
1631118296156,22.61
1631118296171,22.81
1631118296187,22.47
1631118296203,21.4
1631118296218,19.44
1631118296234,16.56
1631118296250,12.99
1631118296265,9.11
1631118296281,5.35
1631118296296,2.04
1631118296312,-0.78
1631118296328,-3.22
1631118296343,-5.54
1631118296359,-7.96
1631118296375,-10.57
1631118296390,-13.33
1631118296406,-16.09
1631118296421,-18.67
1631118296437,-20.94
1631118296453,-22.86
1631118296468,-24.54
1631118296484,-26.3
1631118296500,-28.59
1631118296515,-31.92
1631118296531,-36.57
1631118296546,-42.34
1631118296562,-48.4
1631118296578,-53.35
1631118296593,-55.57
1631118296609,-53.78
1631118296625,-47.49
1631118296640,-37.17
1631118296656,-24.15
1631118296671,-10.17
1631118296687,3.09
1631118296703,14.41
1631118296718,23.1
1631118296734,28.95
1631118296750,32.08
1631118296765,32.74
1631118296781,31.29
1631118296796,28.23
1631118296812,24.23
1631118296828,20.06
1631118296843,16.56
1631118296859,14.37
1631118296875,13.79
1631118296890,14.71
1631118296906,16.68
1631118296921,19.07
1631118296937,21.31
1631118296953,23.0
1631118296968,24.01
1631118296984,24.39
1631118297000,24.24
1631118297015,23.62
1631118297031,22.51
1631118297046,20.8
1631118297062,18.38
1631118297078,15.27
1631118297093,11.64
1631118297109,7.8
1631118297125,4.14
1631118297140,0.98
1631118297156,-1.6
1631118297171,-3.78
1631118297187,-5.91
1631118297203,-8.3
1631118297218,-11.11
1631118297234,-14.24
1631118297250,-17.36
1631118297265,-20.14
1631118297281,-22.4
1631118297296,-24.19
1631118297312,-25.76
1631118297328,-27.51
1631118297343,-29.88
1631118297359,-33.26
1631118297375,-37.96
1631118297390,-44.05
1631118297406,-51.15
1631118297421,-58.33
1631118297437,-64.06
1631118297453,-66.59
1631118297468,-64.41
1631118297484,-56.88
1631118297500,-44.55
1631118297515,-29.04
1631118297531,-12.59
1631118297546,2.63
1631118297562,15.12
1631118297578,24.26
1631118297593,30.17
1631118297609,33.3
1631118297625,34.2
1631118297640,33.28
1631118297656,30.94
1631118297671,27.74
1631118297687,24.37
1631118297703,21.62
1631118297718,20.08
1631118297734,19.99
1631118297750,21.12
1631118297765,22.96
1631118297781,24.88
1631118297796,26.44
1631118297812,27.5
1631118297828,28.16
1631118297843,28.61
1631118297859,28.92
1631118297875,28.97
1631118297890,28.47
1631118297906,27.09
1631118297921,24.68
1631118297937,21.31
1631118297953,17.29
1631118297968,13.06
1631118297984,9.01
1631118298000,5.42
1631118298015,2.35
1631118298031,-0.29
1631118298046,-2.71
1631118298062,-5.15
1631118298078,-7.83
1631118298093,-10.86
1631118298109,-14.17
1631118298125,-17.56
1631118298140,-20.77
1631118298156,-23.61
1631118298171,-26.02
1631118298187,-28.2
1631118298203,-30.48
1631118298218,-33.27
1631118298234,-36.94
1631118298250,-41.67
1631118298265,-47.32
1631118298281,-53.29
1631118298296,-58.52
1631118298312,-61.55
1631118298328,-60.96
1631118298343,-55.79
1631118298359,-45.93
1631118298375,-32.36
1631118298390,-16.89
1631118298406,-1.57
1631118298421,11.77
1631118298437,22.03
1631118298453,28.91
1631118298468,32.7
1631118298484,33.95
1631118298500,33.26
1631118298515,31.13
1631118298531,28.08
1631118298546,24.69
1631118298562,21.64
1631118298578,19.56
1631118298593,18.87
1631118298609,19.6
1631118298625,21.36
1631118298640,23.54
1631118298656,25.5
1631118298671,26.79
1631118298687,27.31
1631118298703,27.21
1631118298718,26.76
1631118298734,26.17
1631118298750,25.43
1631118298765,24.37
1631118298781,22.77
1631118298796,20.49
1631118298812,17.54
1631118298828,14.11
1631118298843,10.51
1631118298859,7.05
1631118298875,4.01
1631118298890,1.54
1631118298906,-0.39
1631118298921,-1.92
1631118298937,-3.33
1631118298953,-4.96
1631118298968,-7.03
1631118298984,-9.64
1631118299000,-12.61
1631118299015,-15.63
1631118299031,-18.34
1631118299046,-20.55
1631118299062,-22.34
1631118299078,-24.1
1631118299093,-26.36
1631118299109,-29.63
1631118299125,-34.22
1631118299140,-40.05
1631118299156,-46.52
1631118299171,-52.56
1631118299187,-56.72
1631118299203,-57.54
1631118299218,-54.0
1631118299234,-45.88
1631118299250,-33.89
1631118299265,-19.55
1631118299281,-4.73
1631118299296,8.87
1631118299312,20.11
1631118299328,28.44
1631118299343,33.81
1631118299359,36.4
1631118299375,36.51
1631118299390,34.51
1631118299406,30.89
1631118299421,26.34
1631118299437,21.76
1631118299453,18.02
1631118299468,15.8
1631118299484,15.36
1631118299500,16.49
1631118299515,18.58
1631118299531,20.91
1631118299546,22.94
1631118299562,24.48
1631118299578,25.58
1631118299593,26.44
1631118299609,27.07
1631118299625,27.27
1631118299640,26.66
1631118299656,24.9
1631118299671,21.95
1631118299687,18.13
1631118299703,14.0
1631118299718,10.14
1631118299734,6.94
1631118299750,4.46
1631118299765,2.54
1631118299781,0.88
1631118299796,-0.82
1631118299812,-2.75
1631118299828,-4.95
1631118299843,-7.33
1631118299859,-9.76
1631118299875,-12.05
1631118299890,-14.06
1631118299906,-15.72
1631118299921,-17.14
1631118299937,-18.6
1631118299953,-20.56
1631118299968,-23.5
1631118299984,-27.75
1631118300000,-33.17
1631118300015,-39.06
1631118300031,-44.15
1631118300046,-46.89
1631118300062,-45.98
1631118300078,-40.81
1631118300093,-31.7
1631118300109,-19.83
1631118300125,-6.84
1631118300140,5.64
1631118300156,16.37
1631118300171,24.64
1631118300187,30.21
1631118300203,33.11
1631118300218,33.53
1631118300234,31.75
1631118300250,28.22
1631118300265,23.56
1631118300281,18.56
1631118300296,14.05
1631118300312,10.7
1631118300328,8.88
1631118300343,8.59
1631118300359,9.52
1631118300375,11.22
1631118300390,13.24
1631118300406,15.24
1631118300421,17.03
1631118300437,18.53
1631118300453,19.63
1631118300468,20.14
1631118300484,19.8
1631118300500,18.35
1631118300515,15.71
1631118300531,12.11
1631118300546,8.07
1631118300562,4.19
1631118300578,1.02
1631118300593,-1.31
1631118300609,-3.04
1631118300625,-4.7
1631118300640,-6.81
1631118300656,-9.58
1631118300671,-12.86
1631118300687,-16.17
1631118300703,-19.02
1631118300718,-21.18
1631118300734,-22.73
1631118300750,-24.07
1631118300765,-25.66
1631118300781,-27.95
1631118300796,-31.23
1631118300812,-35.58
1631118300828,-40.79
1631118300843,-46.28
1631118300859,-50.99
1631118300875,-53.56
1631118300890,-52.68
1631118300906,-47.51
1631118300921,-38.12
1631118300937,-25.5
1631118300953,-11.35
1631118300968,2.5
1631118300984,14.57
1631118301000,24.0
1631118301015,30.55
1631118301031,34.36
1631118301046,35.67
1631118301062,34.73
1631118301078,31.91
1631118301093,27.72
1631118301109,22.96
1631118301125,18.57
1631118301140,15.38
1631118301156,13.9
1631118301171,14.18
1631118301187,15.78
1631118301203,18.11
1631118301218,20.54
1631118301234,22.66
1631118301250,24.26
1631118301265,25.29
1631118301281,25.75
1631118301296,25.57
1631118301312,24.59
1631118301328,22.64
1631118301343,19.65
1631118301359,15.71
1631118301375,11.14
1631118301390,6.44
1631118301406,2.12
1631118301421,-1.43
1631118301437,-4.12
1631118301453,-6.23
1631118301468,-8.26
1631118301484,-10.74
1631118301500,-13.97
1631118301515,-17.89
1631118301531,-22.05
1631118301546,-25.85
1631118301562,-28.85
1631118301578,-30.89
1631118301593,-32.27
1631118301609,-33.58
1631118301625,-35.54
1631118301640,-38.8
1631118301656,-43.68
1631118301671,-49.98
1631118301687,-56.85
1631118301703,-62.88
1631118301718,-66.28
1631118301734,-65.47
1631118301750,-59.55
1631118301765,-48.74
1631118301781,-34.33
1631118301796,-18.31
1631118301812,-2.8
1631118301828,10.52
1631118301843,20.72
1631118301859,27.61
1631118301875,31.46
1631118301890,32.83
1631118301906,32.32
1631118301921,30.5
1631118301937,27.96
1631118301953,25.27
1631118301968,23.0
1631118301984,21.6
1631118302000,21.33
1631118302015,22.13
1631118302031,23.69
1631118302046,25.54
1631118302062,27.15
1631118302078,28.21
1631118302093,28.68
1631118302109,28.75
1631118302125,28.66
1631118302140,28.53
1631118302156,28.21
1631118302171,27.37
1631118302187,25.65
1631118302203,22.86
1631118302218,19.17
1631118302234,15.03
1631118302250,10.98
1631118302265,7.46
1631118302281,4.63
1631118302296,2.3
1631118302312,0.12
1631118302328,-2.31
1631118302343,-5.2
1631118302359,-8.51
1631118302375,-11.98
1631118302390,-15.28
1631118302406,-18.13
1631118302421,-20.47
1631118302437,-22.46
1631118302453,-24.52
1631118302468,-27.19
1631118302484,-30.98
1631118302500,-36.18
1631118302515,-42.6
1631118302531,-49.49
1631118302546,-55.54
1631118302562,-59.13
1631118302578,-58.81
1631118302593,-53.77
1631118302609,-44.14
1631118302625,-30.99
1631118302640,-16.11
1631118302656,-1.44
1631118302671,11.34
1631118302687,21.18
1631118302703,27.71
1631118302718,31.11
1631118302734,31.94
1631118302750,30.86
1631118302765,28.58
1631118302781,25.72
1631118302796,22.87
1631118302812,20.51
1631118302828,19.03
1631118302843,18.71
1631118302859,19.56
1631118302875,21.38
1631118302890,23.71
1631118302906,25.99
1631118302921,27.75
1631118302937,28.72
1631118302953,28.94
1631118302968,28.65
1631118302984,28.09
1631118303000,27.35
1631118303015,26.29
1631118303031,24.63
1631118303046,22.12
1631118303062,18.76
1631118303078,14.88
1631118303093,11.01
1631118303109,7.72
1631118303125,5.33
1631118303140,3.74
1631118303156,2.5
1631118303171,0.99
1631118303187,-1.23
1631118303203,-4.3
1631118303218,-7.94
1631118303234,-11.63
1631118303250,-14.86
1631118303265,-17.37
1631118303281,-19.19
1631118303296,-20.71
1631118303312,-22.41
1631118303328,-24.83
1631118303343,-28.38
1631118303359,-33.27
1631118303375,-39.31
1631118303390,-45.83
1631118303406,-51.6
1631118303421,-55.02
1631118303437,-54.58
1631118303453,-49.37
1631118303468,-39.48
1631118303484,-26.09
1631118303500,-11.08
1631118303515,3.51
1631118303531,16.05
1631118303546,25.61
1631118303562,32.02
1631118303578,35.52
1631118303593,36.59
1631118303609,35.69
1631118303625,33.26
1631118303640,29.81
1631118303656,25.92
1631118303671,22.26
1631118303687,19.44
1631118303703,17.88
1631118303718,17.69
1631118303734,18.67
1631118303750,20.35
1631118303765,22.24
1631118303781,23.91
1631118303796,25.1
1631118303812,25.76
1631118303828,25.95
1631118303843,25.71
1631118303859,25.0
1631118303875,23.71
1631118303890,21.69
1631118303906,18.95
1631118303921,15.65
1631118303937,12.14
1631118303953,8.85
1631118303968,6.11
1631118303984,4.04
1631118304000,2.5
1631118304015,1.14
1631118304031,-0.42
1631118304046,-2.43
1631118304062,-4.88
1631118304078,-7.55
1631118304093,-10.1
1631118304109,-12.32
1631118304125,-14.14
1631118304140,-15.7
1631118304156,-17.23
1631118304171,-19.03
1631118304187,-21.38
1631118304203,-24.54
1631118304218,-28.66
1631118304234,-33.62
1631118304250,-38.86
1631118304265,-43.31
1631118304281,-45.6
1631118304296,-44.48
1631118304312,-39.33
1631118304328,-30.41
1631118304343,-18.83
1631118304359,-6.19
1631118304375,5.95
1631118304390,16.43
1631118304406,24.63
1631118304421,30.31
1631118304437,33.46
1631118304453,34.1
1631118304468,32.42
1631118304484,28.77
1631118304500,23.84
1631118304515,18.6
1631118304531,14.03
1631118304546,10.96
1631118304562,9.76
1631118304578,10.34
1631118304593,12.18
1631118304609,14.61
1631118304625,17.05
1631118304640,19.13
1631118304656,20.74
1631118304671,21.92
1631118304687,22.67
1631118304703,22.87
1631118304718,22.35
1631118304734,20.9
1631118304750,18.44
1631118304765,15.13
1631118304781,11.3
1631118304796,7.42
1631118304812,3.91
1631118304828,1.02
1631118304843,-1.27
1631118304859,-3.21
1631118304875,-5.14
1631118304890,-7.31
1631118304906,-9.77
1631118304921,-12.33
1631118304937,-14.67
1631118304953,-16.53
1631118304968,-17.9
1631118304984,-19.02
1631118305000,-20.33
1631118305015,-22.32
1631118305031,-25.4
1631118305046,-29.72
1631118305062,-35.06
1631118305078,-40.72
1631118305093,-45.59
1631118305109,-48.32
1631118305125,-47.7
1631118305140,-43.04
1631118305156,-34.53
1631118305171,-23.13
1631118305187,-10.42
1631118305203,1.95
1631118305218,12.69
1631118305234,21.07
1631118305250,26.86
1631118305265,30.16
1631118305281,31.19
1631118305296,30.16
1631118305312,27.37
1631118305328,23.3
1631118305343,18.65
1631118305359,14.3
1631118305375,11.05
1631118305390,9.47
1631118305406,9.64
1631118305421,11.22
1631118305437,13.6
1631118305453,16.12
1631118305468,18.34
1631118305484,20.07
1631118305500,21.29
1631118305515,22.01
1631118305531,22.16
1631118305546,21.51
1631118305562,19.84
1631118305578,17.07
1631118305593,13.42
1631118305609,9.34
1631118305625,5.39
1631118305640,1.99
1631118305656,-0.73
1631118305671,-2.97
1631118305687,-5.12
1631118305703,-7.5
1631118305718,-10.23
1631118305734,-13.16
1631118305750,-15.98
1631118305765,-18.41
1631118305781,-20.35
1631118305796,-21.94
1631118305812,-23.51
1631118305828,-25.5
1631118305843,-28.3
1631118305859,-32.23
1631118305875,-37.33
1631118305890,-43.27
1631118305906,-49.23
1631118305921,-53.9
1631118305937,-55.83
1631118305953,-53.79
1631118305968,-47.25
1631118305984,-36.66
1631118306000,-23.33
1631118306015,-9.08
1631118306031,4.32
1631118306046,15.54
1631118306062,23.97
1631118306078,29.52
1631118306093,32.47
1631118306109,33.19
1631118306125,32.03
1631118306140,29.38
1631118306156,25.75
1631118306171,21.78
1631118306187,18.2
1631118306203,15.64
1631118306218,14.46
1631118306234,14.68
1631118306250,15.97
1631118306265,17.84
1631118306281,19.84
1631118306296,21.67
1631118306312,23.2
1631118306328,24.36
1631118306343,25.07
1631118306359,25.11
1631118306375,24.2
1631118306390,22.13
1631118306406,18.86
1631118306421,14.63
1631118306437,9.91
1631118306453,5.31
1631118306468,1.34
1631118306484,-1.72
1631118306500,-3.95
1631118306515,-5.73
1631118306531,-7.59
1631118306546,-10.0
1631118306562,-13.12
1631118306578,-16.79
1631118306593,-20.56
1631118306609,-24.0
1631118306625,-26.82
1631118306640,-29.09
1631118306656,-31.22
1631118306671,-33.78
1631118306687,-37.34
1631118306703,-42.24
1631118306718,-48.44
1631118306734,-55.31
1631118306750,-61.73
1631118306765,-66.16
1631118306781,-67.02
1631118306796,-63.18
1631118306812,-54.4
1631118306828,-41.46
1631118306843,-26.07
1631118306859,-10.3
1631118306875,4.0
1631118306890,15.59
1631118306906,24.04
1631118306921,29.52
1631118306937,32.53
1631118306953,33.62
1631118306968,33.29
1631118306984,31.98
1631118307000,30.17
1631118307015,28.34
1631118307031,26.94
1631118307046,26.31
1631118307062,26.54
1631118307078,27.43
1631118307093,28.63
1631118307109,29.68
1631118307125,30.26
1631118307140,30.29
1631118307156,29.9
1631118307171,29.34
1631118307187,28.79
1631118307203,28.17
1631118307218,27.19
1631118307234,25.48
1631118307250,22.76
1631118307265,19.08
1631118307281,14.8
1631118307296,10.51
1631118307312,6.74
1631118307328,3.77
1631118307343,1.54
1631118307359,-0.33
1631118307375,-2.32
1631118307390,-4.83
1631118307406,-7.99
1631118307421,-11.65
1631118307437,-15.4
1631118307453,-18.83
1631118307468,-21.66
1631118307484,-23.9
1631118307500,-25.86
1631118307515,-27.99
1631118307531,-30.81
1631118307546,-34.73
1631118307562,-39.88
1631118307578,-46.01
1631118307593,-52.32
1631118307609,-57.57
1631118307625,-60.21
1631118307640,-58.84
1631118307656,-52.74
1631118307671,-42.19
1631118307687,-28.42
1631118307703,-13.37
1631118307718,1.01
1631118307734,13.24
1631118307750,22.55
1631118307765,28.87
1631118307781,32.52
1631118307796,33.95
1631118307812,33.61
1631118307828,31.94
1631118307843,29.45
1631118307859,26.75
1631118307875,24.43
1631118307890,22.94
1631118307906,22.5
1631118307921,23.05
1631118307937,24.29
1631118307953,25.84
1631118307968,27.32
1631118307984,28.51
1631118308000,29.31
1631118308015,29.74
1631118308031,29.84
1631118308046,29.6
1631118308062,28.92
1631118308078,27.57
1631118308093,25.37
1631118308109,22.25
1631118308125,18.36
1631118308140,14.06
1631118308156,9.88
1631118308171,6.29
1631118308187,3.55
1631118308203,1.55
1631118308218,-0.08
1631118308234,-1.8
1631118308250,-3.99
1631118308265,-6.73
1631118308281,-9.84
1631118308296,-12.96
1631118308312,-15.75
1631118308328,-18.04
1631118308343,-19.85
1631118308359,-21.39
1631118308375,-22.97
1631118308390,-24.95
1631118308406,-27.71
1631118308421,-31.58
1631118308437,-36.73
1631118308453,-42.93
1631118308468,-49.37
1631118308484,-54.69
1631118308500,-57.24
1631118308515,-55.65
1631118308531,-49.3
1631118308546,-38.64
1631118308562,-25.07
1631118308578,-10.52
1631118308593,3.17
1631118308609,14.69
1631118308625,23.45
1631118308640,29.39
1631118308656,32.74
1631118308671,33.82
1631118308687,32.96
1631118308703,30.6
1631118308718,27.35
1631118308734,23.97
1631118308750,21.22
1631118308765,19.6
1631118308781,19.33
1631118308796,20.25
1631118308812,21.98
1631118308828,24.08
1631118308843,26.15
1631118308859,27.91
1631118308875,29.23
1631118308890,30.06
1631118308906,30.37
1631118308921,30.15
1631118308937,29.31
1631118308953,27.76
1631118308968,25.44
1631118308984,22.37
1631118309000,18.68
1631118309015,14.68
1631118309031,10.77
1631118309046,7.33
1631118309062,4.59
1631118309078,2.58
1631118309093,1.08
1631118309109,-0.3
1631118309125,-1.93
1631118309140,-4.01
1631118309156,-6.58
1631118309171,-9.4
1631118309187,-12.16
1631118309203,-14.56
1631118309218,-16.48
1631118309234,-17.97
1631118309250,-19.32
1631118309265,-20.96
1631118309281,-23.35
1631118309296,-26.87
1631118309312,-31.6
1631118309328,-37.17
1631118309343,-42.65
1631118309359,-46.71
1631118309375,-47.89
1631118309390,-45.14
1631118309406,-38.19
1631118309421,-27.65
1631118309437,-14.89
1631118309453,-1.61
1631118309468,10.62
1631118309484,20.69
1631118309500,28.0
1631118309515,32.42
1631118309531,34.04
1631118309546,33.13
1631118309562,30.09
1631118309578,25.53
1631118309593,20.26
1631118309609,15.21
1631118309625,11.24
1631118309640,8.92
1631118309656,8.4
1631118309671,9.44
1631118309687,11.54
1631118309703,14.13
1631118309718,16.77
1631118309734,19.17
1631118309750,21.15
1631118309765,22.55
1631118309781,23.18
1631118309796,22.83
1631118309812,21.36
1631118309828,18.81
1631118309843,15.43
1631118309859,11.65
1631118309875,7.94
1631118309890,4.66
1631118309906,1.94
1631118309921,-0.33
1631118309937,-2.44
1631118309953,-4.68
1631118309968,-7.26
1631118309984,-10.16
1631118310000,-13.19
1631118310015,-16.02
1631118310031,-18.34
1631118310046,-19.97
1631118310062,-20.98
1631118310078,-21.66
1631118310093,-22.52
1631118310109,-24.14
1631118310125,-27.04
1631118310140,-31.41
1631118310156,-36.98
1631118310171,-42.86
1631118310187,-47.68
1631118310203,-49.85
1631118310218,-48.08
1631118310234,-41.84
1631118310250,-31.58
1631118310265,-18.62
1631118310281,-4.81
1631118310296,8.09
1631118310312,18.78
1631118310328,26.6
1631118310343,31.48
1631118310359,33.62
1631118310375,33.36
1631118310390,31.03
1631118310406,27.1
1631118310421,22.19
1631118310437,17.16
1631118310453,12.86
1631118310468,10.0
1631118310484,8.93
1631118310500,9.55
1631118310515,11.37
1631118310531,13.77
1631118310546,16.15
1631118310562,18.11
1631118310578,19.54
1631118310593,20.45
1631118310609,20.89
1631118310625,20.8
1631118310640,19.96
1631118310656,18.15
1631118310671,15.24
1631118310687,11.38
1631118310703,7.02
1631118310718,2.73
1631118310734,-1.0
1631118310750,-3.98
1631118310765,-6.34
1631118310781,-8.48
1631118310796,-10.78
1631118310812,-13.42
1631118310828,-16.31
1631118310843,-19.15
1631118310859,-21.68
1631118310875,-23.75
1631118310890,-25.46
1631118310906,-27.09
1631118310921,-29.0
1631118310937,-31.52
1631118310953,-34.95
1631118310968,-39.36
1631118310984,-44.57
1631118311000,-49.92
1631118311015,-54.33
1631118311031,-56.42
1631118311046,-54.9
1631118311062,-49.07
1631118311078,-39.12
1631118311093,-26.14
1631118311109,-11.88
1631118311125,1.89
1631118311140,13.74
1631118311156,22.89
1631118311171,29.13
1631118311187,32.65
1631118311203,33.76
1631118311218,32.82
1631118311234,30.24
1631118311250,26.58
1631118311265,22.5
1631118311281,18.78
1631118311296,16.08
1631118311312,14.83
1631118311328,15.13
1631118311343,16.69
1631118311359,19.02
1631118311375,21.54
1631118311390,23.76
1631118311406,25.38
1631118311421,26.31
1631118311437,26.53
1631118311453,26.03
1631118311468,24.75
1631118311484,22.62
1631118311500,19.64
1631118311515,15.96
1631118311531,11.95
1631118311546,8.04
1631118311562,4.59
1631118311578,1.73
1631118311593,-0.68
1631118311609,-2.97
1631118311625,-5.48
1631118311640,-8.4
1631118311656,-11.67
1631118311671,-15.0
1631118311687,-18.06
1631118311703,-20.61
1631118311718,-22.62
1631118311734,-24.34
1631118311750,-26.22
1631118311765,-28.79
1631118311781,-32.54
1631118311796,-37.7
1631118311812,-44.02
1631118311828,-50.69
1631118311843,-56.39
1631118311859,-59.53
1631118311875,-58.72
1631118311890,-53.28
1631118311906,-43.44
1631118311921,-30.36
1631118311937,-15.76
1631118311953,-1.43
1631118311968,11.21
1631118311984,21.31
1631118312000,28.56
1631118312015,32.98
1631118312031,34.78
1631118312046,34.27
1631118312062,31.92
1631118312078,28.37
1631118312093,24.43
1631118312109,20.96
1631118312125,18.59
1631118312140,17.64
1631118312156,18.06
1631118312171,19.48
1631118312187,21.39
1631118312203,23.32
1631118312218,24.99
1631118312234,26.24
1631118312250,27.03
1631118312265,27.33
1631118312281,27.03
1631118312296,25.99
1631118312312,24.08
1631118312328,21.23
1631118312343,17.55
1631118312359,13.31
1631118312375,8.91
1631118312390,4.77
1631118312406,1.15
1631118312421,-1.9
1631118312437,-4.59
1631118312453,-7.21
1631118312468,-9.98
1631118312484,-12.95
1631118312500,-15.9
1631118312515,-18.53
1631118312531,-20.58
1631118312546,-22.05
1631118312562,-23.23
1631118312578,-24.64
1631118312593,-26.87
1631118312609,-30.39
1631118312625,-35.3
1631118312640,-41.25
1631118312656,-47.33
1631118312671,-52.15
1631118312687,-54.14
1631118312703,-52.0
1631118312718,-45.16
1631118312734,-34.12
1631118312750,-20.31
1631118312765,-5.74
1631118312781,7.69
1631118312796,18.64
1631118312812,26.61
1631118312828,31.71
1631118312843,34.37
1631118312859,35.0
1631118312875,33.9
1631118312890,31.38
1631118312906,27.92
1631118312921,24.19
1631118312937,20.97
1631118312953,18.88
1631118312968,18.19
1631118312984,18.78
1631118313000,20.23
1631118313015,22.12
1631118313031,24.08
1631118313046,25.89
1631118313062,27.41
1631118313078,28.48
1631118313093,28.89
1631118313109,28.42
1631118313125,26.95
1631118313140,24.53
1631118313156,21.4
1631118313171,17.92
1631118313187,14.47
1631118313203,11.29
1631118313218,8.48
1631118313234,5.97
1631118313250,3.59
1631118313265,1.19
1631118313281,-1.31
1631118313296,-3.83
1631118313312,-6.2
1631118313328,-8.24
1631118313343,-9.9
1631118313359,-11.3
1631118313375,-12.8
1631118313390,-14.92
1631118313406,-18.2
1631118313421,-23.04
1631118313437,-29.47
1631118313453,-37.03
1631118313468,-44.7
1631118313484,-51.04
1631118313500,-54.52
1631118313515,-53.99
1631118313531,-49.03
1631118313546,-40.09
1631118313562,-28.4
1631118313578,-15.55
1631118313593,-3.1
1631118313609,7.79
1631118313625,16.43
1631118313640,22.55
1631118313656,26.09
1631118313671,27.17
1631118313687,26.07
1631118313703,23.23
1631118313718,19.31
1631118313734,15.14
1631118313750,11.53
1631118313765,9.12
1631118313781,8.28
1631118313796,9.02
1631118313812,11.09
1631118313828,14.03
1631118313843,17.31
1631118313859,20.37
1631118313875,22.79
1631118313890,24.2
1631118313906,24.36
1631118313921,23.21
1631118313937,20.87
1631118313953,17.63
1631118313968,13.93
1631118313984,10.19
1631118314000,6.73
1631118314015,3.63
1631118314031,0.78
1631118314046,-2.06
1631118314062,-5.05
1631118314078,-8.22
1631118314093,-11.37
1631118314109,-14.25
1631118314125,-16.65
1631118314140,-18.55
1631118314156,-20.15
1631118314171,-21.76
1631118314187,-23.78
1631118314203,-26.55
1631118314218,-30.37
1631118314234,-35.34
1631118314250,-41.25
1631118314265,-47.35
1631118314281,-52.4
1631118314296,-54.81
1631118314312,-53.23
1631118314328,-46.98
1631118314343,-36.41
1631118314359,-22.85
1631118314375,-8.18
1631118314390,5.76
1631118314406,17.57
1631118314421,26.54
1631118314437,32.48
1631118314453,35.53
1631118314468,35.99
1631118314484,34.28
1631118314500,30.97
1631118314515,26.81
1631118314531,22.68
1631118314546,19.35
1631118314562,17.38
1631118314578,16.92
1631118314593,17.8
1631118314609,19.57
1631118314625,21.74
1631118314640,23.87
1631118314656,25.65
1631118314671,26.9
1631118314687,27.5
1631118314703,27.35
1631118314718,26.33
1631118314734,24.38
1631118314750,21.55
1631118314765,17.99
1631118314781,13.96
1631118314796,9.79
1631118314812,5.74
1631118314828,1.94
1631118314843,-1.6
1631118314859,-4.96
1631118314875,-8.21
1631118314890,-11.35
1631118314906,-14.24
1631118314921,-16.69
1631118314937,-18.61
1631118314953,-20.05
1631118314968,-21.32
1631118314984,-22.83
1631118315000,-25.08
1631118315015,-28.45
1631118315031,-33.17
1631118315046,-39.1
1631118315062,-45.69
1631118315078,-51.86
1631118315093,-56.18
1631118315109,-57.08
1631118315125,-53.44
1631118315140,-44.95
1631118315156,-32.37
1631118315171,-17.34
1631118315187,-1.93
1631118315203,11.95
1631118315218,23.01
1631118315234,30.73
1631118315250,35.18
1631118315265,36.77
1631118315281,36.02
1631118315296,33.45
1631118315312,29.67
1631118315328,25.38
1631118315343,21.33
1631118315359,18.24
1631118315375,16.55
1631118315390,16.34
1631118315406,17.25
1631118315421,18.71
1631118315437,20.16
1631118315453,21.25
1631118315468,21.93
1631118315484,22.3
1631118315500,22.51
1631118315515,22.5
1631118315531,22.03
1631118315546,20.8
1631118315562,18.58
1631118315578,15.41
1631118315593,11.6
1631118315609,7.58
1631118315625,3.78
1631118315640,0.36
1631118315656,-2.73
1631118315671,-5.74
1631118315687,-8.88
1631118315703,-12.22
1631118315718,-15.58
1631118315734,-18.62
1631118315750,-21.02
1631118315765,-22.66
1631118315781,-23.72
1631118315796,-24.62
1631118315812,-25.9
1631118315828,-28.06
1631118315843,-31.42
1631118315859,-35.96
1631118315875,-41.28
1631118315890,-46.51
1631118315906,-50.39
1631118315921,-51.5
1631118315937,-48.7
1631118315953,-41.52
1631118315968,-30.48
1631118315984,-17.01
1631118316000,-3.07
1631118316015,9.41
1631118316031,19.08
1631118316046,25.37
1631118316062,28.46
1631118316078,28.97
1631118316093,27.67
1631118316109,25.19
1631118316125,22.08
1631118316140,18.81
1631118316156,15.85
1631118316171,13.64
1631118316187,12.56
1631118316203,12.84
1631118316218,14.5
1631118316234,17.32
1631118316250,20.96
1631118316265,24.98
1631118316281,28.93
1631118316296,32.42
1631118316312,35.12
1631118316328,36.79
1631118316343,37.25
1631118316359,36.41
1631118316375,34.29
1631118316390,31.05
1631118316406,27.06
1631118316421,22.75
1631118316437,18.62
1631118316453,15.0
1631118316468,11.97
1631118316484,9.33
1631118316500,6.8
1631118316515,4.08
1631118316531,1.04
1631118316546,-2.23
1631118316562,-5.58
1631118316578,-8.85
1631118316593,-12.01
1631118316609,-15.17
1631118316625,-18.59
1631118316640,-22.56
1631118316656,-27.3
1631118316671,-32.75
1631118316687,-38.38
1631118316703,-43.21
1631118316718,-45.89
1631118316734,-45.16
1631118316750,-40.26
1631118316765,-31.34
1631118316781,-19.5
1631118316796,-6.45
1631118316812,6.01
1631118316828,16.55
1631118316843,24.43
1631118316859,29.55
1631118316875,32.08
1631118316890,32.22
1631118316906,30.19
1631118316921,26.27
1631118316937,21.06
1631118316953,15.48
1631118316968,10.63
1631118316984,7.42
1631118317000,6.34
1631118317015,7.24
1631118317031,9.52
1631118317046,12.4
1631118317062,15.18
1631118317078,17.43
1631118317093,18.95
1631118317109,19.64
1631118317125,19.44
1631118317140,18.26
1631118317156,16.11
1631118317171,13.13
1631118317187,9.69
1631118317203,6.21
1631118317218,3.06
1631118317234,0.39
1631118317250,-1.93
1631118317265,-4.22
1631118317281,-6.82
1631118317296,-9.93
1631118317312,-13.45
1631118317328,-17.03
1631118317343,-20.27
1631118317359,-22.81
1631118317375,-24.62
1631118317390,-25.93
1631118317406,-27.2
1631118317421,-28.98
1631118317437,-31.75
1631118317453,-35.76
1631118317468,-40.89
1631118317484,-46.55
1631118317500,-51.63
1631118317515,-54.68
1631118317531,-54.3
1631118317546,-49.57
1631118317562,-40.49
1631118317578,-28.03
1631118317593,-13.9
1631118317609,-0.05
1631118317625,11.94
1631118317640,21.13
1631118317656,27.27
1631118317671,30.63
1631118317687,31.65
1631118317703,30.78
1631118317718,28.45
1631118317734,25.12
1631118317750,21.39
1631118317765,17.93
1631118317781,15.39
1631118317796,14.18
1631118317812,14.38
1631118317828,15.78
1631118317843,17.93
1631118317859,20.41
1631118317875,22.92
1631118317890,25.27
1631118317906,27.34
1631118317921,28.91
1631118317937,29.64
1631118317953,29.16
1631118317968,27.26
1631118317984,24.03
1631118318000,19.92
1631118318015,15.58
1631118318031,11.62
1631118318046,8.38
1631118318062,5.81
1631118318078,3.51
1631118318093,1.0
1631118318109,-2.13
1631118318125,-5.98
1631118318140,-10.31
1631118318156,-14.67
1631118318171,-18.61
1631118318187,-21.79
1631118318203,-24.18
1631118318218,-26.09
1631118318234,-28.02
1631118318250,-30.58
1631118318265,-34.3
1631118318281,-39.42
1631118318296,-45.71
1631118318312,-52.32
1631118318328,-57.88
1631118318343,-60.73
1631118318359,-59.46
1631118318375,-53.32
1631118318390,-42.58
1631118318406,-28.52
1631118318421,-13.08
1631118318437,1.67
1631118318453,14.09
1631118318468,23.24
1631118318484,28.96
1631118318500,31.59
1631118318515,31.82
1631118318531,30.32
1631118318546,27.68
1631118318562,24.44
1631118318578,21.13
1631118318593,18.27
1631118318609,16.32
1631118318625,15.59
1631118318640,16.1
1631118318656,17.58
1631118318671,19.57
1631118318687,21.61
1631118318703,23.34
1631118318718,24.64
1631118318734,25.53
1631118318750,25.98
1631118318765,25.92
1631118318781,25.14
1631118318796,23.4
1631118318812,20.66
1631118318828,17.07
1631118318843,13.05
1631118318859,9.09
1631118318875,5.58
1631118318890,2.69
1631118318906,0.29
1631118318921,-1.93
1631118318937,-4.33
1631118318953,-7.16
1631118318968,-10.45
1631118318984,-13.98
1631118319000,-17.4
1631118319015,-20.34
1631118319031,-22.64
1631118319046,-24.33
1631118319062,-25.76
1631118319078,-27.44
1631118319093,-29.93
1631118319109,-33.71
1631118319125,-38.91
1631118319140,-45.18
1631118319156,-51.55
1631118319171,-56.55
1631118319187,-58.53
1631118319203,-56.12
1631118319218,-48.82
1631118319234,-37.19
1631118319250,-22.77
1631118319265,-7.63
1631118319281,6.27
1631118319296,17.55
1631118319312,25.58
1631118319328,30.4
1631118319343,32.43
1631118319359,32.21
1631118319375,30.3
1631118319390,27.27
1631118319406,23.77
1631118319421,20.52
1631118319437,18.13
1631118319453,17.02
1631118319468,17.26
1631118319484,18.59
1631118319500,20.55
1631118319515,22.63
1631118319531,24.49
1631118319546,26.01
1631118319562,27.24
1631118319578,28.29
1631118319593,29.16
1631118319609,29.66
1631118319625,29.45
1631118319640,28.17
1631118319656,25.63
1631118319671,21.93
1631118319687,17.49
1631118319703,12.91
1631118319718,8.77
1631118319734,5.39
1631118319750,2.74
1631118319765,0.49
1631118319781,-1.84
1631118319796,-4.61
1631118319812,-7.84
1631118319828,-11.26
1631118319843,-14.39
1631118319859,-16.83
1631118319875,-18.43
1631118319890,-19.44
1631118319906,-20.42
1631118319921,-22.08
1631118319937,-25.04
1631118319953,-29.56
1631118319968,-35.43
1631118319984,-41.81
1631118320000,-47.4
1631118320015,-50.68
1631118320031,-50.3
1631118320046,-45.5
1631118320062,-36.43
1631118320078,-24.13
1631118320093,-10.22
1631118320109,3.48
1631118320125,15.46
1631118320140,24.76
1631118320156,31.03
1631118320171,34.33
1631118320187,34.95
1631118320203,33.33
1631118320218,29.95
1631118320234,25.47
1631118320250,20.68
1631118320265,16.41
1631118320281,13.33
1631118320296,11.84
1631118320312,11.92
1631118320328,13.25
1631118320343,15.32
1631118320359,17.62
1631118320375,19.79
1631118320390,21.62
1631118320406,22.98
1631118320421,23.76
1631118320437,23.78
1631118320453,22.83
1631118320468,20.7
1631118320484,17.37
1631118320500,13.06
1631118320515,8.27
1631118320531,3.65
1631118320546,-0.18
1631118320562,-2.92
1631118320578,-4.69
1631118320593,-5.99
1631118320609,-7.48
1631118320625,-9.62
1631118320640,-12.5
1631118320656,-15.79
1631118320671,-18.97
1631118320687,-21.6
1631118320703,-23.51
1631118320718,-24.93
1631118320734,-26.34
1631118320750,-28.35
1631118320765,-31.47
1631118320781,-35.99
1631118320796,-41.76
1631118320812,-48.12
1631118320828,-53.8
1631118320843,-57.23
1631118320859,-56.89
1631118320875,-51.87
1631118320890,-42.26
1631118320906,-29.17
1631118320921,-14.41
1631118320937,0.03
1631118320953,12.6
1631118320968,22.4
1631118320984,29.26
1631118321000,33.34
1631118321015,35.04
1631118321031,34.66
1631118321046,32.55
1631118321062,29.16
1631118321078,25.12
1631118321093,21.27
1631118321109,18.42
1631118321125,17.11
1631118321140,17.44
1631118321156,19.06
1631118321171,21.28
1631118321187,23.41
1631118321203,25.02
1631118321218,26.02
1631118321234,26.59
1631118321250,26.92
1631118321265,27.04
1631118321281,26.7
1631118321296,25.49
1631118321312,23.09
1631118321328,19.49
1631118321343,15.04
1631118321359,10.31
1631118321375,5.95
1631118321390,2.32
1631118321406,-0.56
1631118321421,-2.96
1631118321437,-5.34
1631118321453,-7.99
1631118321468,-10.96
1631118321484,-14.03
1631118321500,-16.84
1631118321515,-19.11
1631118321531,-20.83
1631118321546,-22.22
1631118321562,-23.67
1631118321578,-25.6
1631118321593,-28.32
1631118321609,-32.06
1631118321625,-36.86
1631118321640,-42.55
1631118321656,-48.55
1631118321671,-53.81
1631118321687,-56.81
1631118321703,-56.05
1631118321718,-50.49
1631118321734,-40.09
1631118321750,-25.95
1631118321765,-9.97
1631118321781,5.66
1631118321796,19.17
1631118321812,29.57
1631118321828,36.61
1631118321843,40.61
1631118321859,42.1
1631118321875,41.56
1631118321890,39.5
1631118321906,36.46
1631118321921,33.11
1631118321937,30.19
1631118321953,28.31
1631118321968,27.83
1631118321984,28.74
1631118322000,30.73
1631118322015,33.32
1631118322031,36.07
1631118322046,38.7
1631118322062,41.1
1631118322078,43.22
1631118322093,44.96
1631118322109,46.1
1631118322125,46.33
1631118322140,45.4
1631118322156,43.21
1631118322171,39.99
1631118322187,36.14
1631118322203,32.13
1631118322218,28.34
1631118322234,24.88
1631118322250,21.66
1631118322265,18.46
1631118322281,15.13
1631118322296,11.64
1631118322312,8.15
1631118322328,4.83
1631118322343,1.86
1631118322359,-0.74
1631118322375,-3.11
1631118322390,-5.59
1631118322406,-8.66
1631118322421,-12.88
1631118322437,-18.64
1631118322453,-25.9
1631118322468,-33.92
1631118322484,-41.21
1631118322500,-45.88
1631118322515,-46.3
1631118322531,-41.64
1631118322546,-32.35
1631118322562,-19.99
1631118322578,-6.73
1631118322593,5.36
1631118322609,14.86
1631118322625,21.12
1631118322640,24.12
1631118322656,24.15
1631118322671,21.62
1631118322687,17.01
1631118322703,10.95
1631118322718,4.24
1631118322734,-2.17
1631118322750,-7.41
1631118322765,-10.93
1631118322781,-12.56
1631118322796,-12.54
1631118322812,-11.3
1631118322828,-9.33
1631118322843,-6.99
1631118322859,-4.6
1631118322875,-2.44
1631118322890,-0.86
1631118322906,-0.23
1631118322921,-0.8
1631118322937,-2.55
1631118322953,-5.19
1631118322968,-8.28
1631118322984,-11.41
1631118323000,-14.45
1631118323015,-17.59
1631118323031,-21.24
1631118323046,-25.87
1631118323062,-31.77
1631118323078,-38.96
1631118323093,-47.16
1631118323109,-55.83
1631118323125,-64.33
1631118323140,-72.01
1631118323156,-78.42
1631118323171,-83.42
1631118323187,-87.16
1631118323203,-90.06
1631118323218,-92.67
1631118323234,-95.43
1631118323250,-98.48
1631118323265,-101.43
1631118323281,-103.19
1631118323296,-102.11
1631118323312,-96.38
1631118323328,-84.72
1631118323343,-66.97
1631118323359,-44.5
1631118323375,-19.8
1631118323390,4.33
1631118323406,25.7
1631118323421,43.33
1631118323437,57.38
1631118323453,68.57
1631118323468,77.43
1631118323484,83.96
1631118323500,87.72
1631118323515,88.26
1631118323531,85.57
1631118323546,80.26
1631118323562,73.39
1631118323578,66.14
1631118323593,59.51
1631118323609,54.21
1631118323625,50.58
1631118323640,48.63
1631118323656,48.1
1631118323671,48.52
1631118323687,49.25
1631118323703,49.69
1631118323718,49.39
1631118323734,48.1
1631118323750,45.79
1631118323765,42.52
1631118323781,38.41
1631118323796,33.56
1631118323812,28.1
1631118323828,22.16
1631118323843,15.86
1631118323859,9.27
1631118323875,2.4
1631118323890,-4.78
1631118323906,-12.24
1631118323921,-19.81
1631118323937,-27.17
1631118323953,-33.98
1631118323968,-40.04
1631118323984,-45.54
1631118324000,-51.06
1631118324015,-57.48
1631118324031,-65.54
1631118324046,-75.37
1631118324062,-86.22
1631118324078,-96.38
1631118324093,-103.72
1631118324109,-106.32
1631118324125,-103.17
1631118324140,-94.51
1631118324156,-81.7
1631118324171,-66.75
1631118324187,-51.6
1631118324203,-37.7
1631118324218,-25.74
1631118324234,-15.85
1631118324250,-7.75
1631118324265,-1.08
1631118324281,4.55
1631118324296,9.47
1631118324312,13.98
1631118324328,18.3
1631118324343,22.58
1631118324359,26.78
1631118324375,30.73
1631118324390,34.2
1631118324406,36.93
1631118324421,38.8
1631118324437,39.84
1631118324453,40.27
1631118324468,40.35
1631118324484,40.38
1631118324500,40.53
1631118324515,40.84
1631118324531,41.15
1631118324546,41.22
1631118324562,40.73
1631118324578,39.43
1631118324593,37.13
1631118324609,33.81
1631118324625,29.59
1631118324640,24.74
1631118324656,19.59
1631118324671,14.41
1631118324687,9.31
1631118324703,4.2
1631118324718,-1.19
1631118324734,-7.25
1631118324750,-14.38
1631118324765,-22.81
1631118324781,-32.35
1631118324796,-42.25
1631118324812,-51.15
1631118324828,-57.3
1631118324843,-59.05
1631118324859,-55.41
1631118324875,-46.51
1631118324890,-33.59
1631118324906,-18.75
1631118324921,-4.23
1631118324937,8.14
1631118324953,17.39
1631118324968,23.42
1631118324984,26.76
1631118325000,28.21
1631118325015,28.47
1631118325031,28.08
1631118325046,27.36
1631118325062,26.56
1631118325078,25.84
1631118325093,25.31
1631118325109,24.94
1631118325125,24.56
1631118325140,23.82
1631118325156,22.3
1631118325171,19.65
1631118325187,15.79
1631118325203,10.94
1631118325218,5.69
1631118325234,0.74
1631118325250,-3.25
1631118325265,-5.92
1631118325281,-7.25
1631118325296,-7.6
1631118325312,-7.47
1631118325328,-7.33
1631118325343,-7.45
1631118325359,-7.85
1631118325375,-8.34
1631118325390,-8.76
1631118325406,-9.1
1631118325421,-9.64
1631118325437,-10.89
1631118325453,-13.44
1631118325468,-17.81
1631118325484,-24.31
1631118325500,-32.99
1631118325515,-43.53
1631118325531,-55.17
1631118325546,-66.53
1631118325562,-75.62
1631118325578,-80.17
1631118325593,-78.15
1631118325609,-68.51
1631118325625,-51.71
1631118325640,-29.75
1631118325656,-5.67
1631118325671,17.29
1631118325687,36.56
1631118325703,50.69
1631118325718,59.45
1631118325734,63.39
1631118325750,63.41
1631118325765,60.41
1631118325781,55.28
1631118325796,48.92
1631118325812,42.4
1631118325828,36.85
1631118325843,33.26
1631118325859,32.19
1631118325875,33.63
1631118325890,36.94
1631118325906,41.12
1631118325921,45.13
1631118325937,48.24
1631118325953,50.16
1631118325968,50.95
1631118325984,50.86
1631118326000,50.02
1631118326015,48.38
1631118326031,45.67
1631118326046,41.67
1631118326062,36.29
1631118326078,29.77
1631118326093,22.59
1631118326109,15.38
1631118326125,8.71
1631118326140,2.92
1631118326156,-1.98
1631118326171,-6.28
1631118326187,-10.48
1631118326203,-15.12
1631118326218,-20.65
1631118326234,-27.33
1631118326250,-35.03
1631118326265,-43.19
1631118326281,-50.72
1631118326296,-56.16
1631118326312,-58.0
1631118326328,-55.09
1631118326343,-47.07
1631118326359,-34.61
1631118326375,-19.28
1631118326390,-3.17
1631118326406,11.7
1631118326421,23.82
1631118326437,32.45
1631118326453,37.52
1631118326468,39.35
1631118326484,38.36
1631118326500,35.0
1631118326515,29.7
1631118326531,23.09
1631118326546,16.0
1631118326562,9.4
1631118326578,4.19
1631118326593,0.94
1631118326609,-0.3
1631118326625,0.07
1631118326640,1.34
1631118326656,2.85
1631118326671,4.15
1631118326687,5.13
1631118326703,5.92
1631118326718,6.71
1631118326734,7.51
1631118326750,8.11
1631118326765,8.09
1631118326781,7.05
1631118326796,4.76
1631118326812,1.27
1631118326828,-3.02
1631118326843,-7.58
1631118326859,-11.8
1631118326875,-15.28
1631118326890,-17.82
1631118326906,-19.49
1631118326921,-20.58
1631118326937,-21.6
1631118326953,-23.18
1631118326968,-25.97
1631118326984,-30.4
1631118327000,-36.37
1631118327015,-43.04
1631118327031,-48.98
1631118327046,-52.47
1631118327062,-52.08
1631118327078,-47.16
1631118327093,-38.1
1631118327109,-26.14
1631118327125,-12.94
1631118327140,-0.11
1631118327156,11.19
1631118327171,20.26
1631118327187,26.88
1631118327203,31.1
1631118327218,33.13
1631118327234,33.29
1631118327250,32.04
1631118327265,29.88
1631118327281,27.39
1631118327296,25.08
1631118327312,23.37
1631118327328,22.44
1631118327343,22.27
1631118327359,22.59
1631118327375,23.0
1631118327390,23.13
1631118327406,22.74
1631118327421,21.85
1631118327437,20.65
1631118327453,19.36
1631118327468,18.08
1631118327484,16.72
1631118327500,14.97
1631118327515,12.54
1631118327531,9.24
1631118327546,5.09
1631118327562,0.36
1631118327578,-4.56
1631118327593,-9.25
1631118327609,-13.43
1631118327625,-16.96
1631118327640,-19.91
1631118327656,-22.51
1631118327671,-25.17
1631118327687,-28.38
1631118327703,-32.61
1631118327718,-38.1
1631118327734,-44.66
1631118327750,-51.44
1631118327765,-57.02
1631118327781,-59.71
1631118327796,-58.09
1631118327812,-51.58
1631118327828,-40.66
1631118327843,-26.81
1631118327859,-11.97
1631118327875,2.02
1631118327890,13.91
1631118327906,23.19
1631118327921,29.94
1631118327937,34.53
1631118327953,37.34
1631118327968,38.64
1631118327984,38.63
1631118328000,37.53
1631118328015,35.65
1631118328031,33.38
1631118328046,31.11
1631118328062,29.16
1631118328078,27.73
1631118328093,26.89
1631118328109,26.54
1631118328125,26.49
1631118328140,26.46
1631118328156,26.2
1631118328171,25.59
1631118328187,24.65
1631118328203,23.48
1631118328218,22.16
1631118328234,20.65
1631118328250,18.74
1631118328265,16.16
1631118328281,12.73
1631118328296,8.49
1631118328312,3.74
1631118328328,-1.02
1631118328343,-5.34
1631118328359,-8.96
1631118328375,-11.91
1631118328390,-14.46
1631118328406,-16.99
1631118328421,-19.84
1631118328437,-23.3
1631118328453,-27.56
1631118328468,-32.73
1631118328484,-38.67
1631118328500,-44.88
1631118328515,-50.38
1631118328531,-53.84
1631118328546,-53.9
1631118328562,-49.66
1631118328578,-41.05
1631118328593,-28.99
1631118328609,-15.14
1631118328625,-1.38
1631118328640,10.77
1631118328656,20.42
1631118328671,27.42
1631118328687,32.09
1631118328703,34.9
1631118328718,36.24
1631118328734,36.39
1631118328750,35.54
1631118328765,33.95
1631118328781,31.97
1631118328796,29.99
1631118328812,28.35
1631118328828,27.23
1631118328843,26.61
1631118328859,26.33
1631118328875,26.16
1631118328890,25.94
1631118328906,25.58
1631118328921,25.09
1631118328937,24.41
1631118328953,23.47
1631118328968,22.13
1631118328984,20.27
1631118329000,17.89
1631118329015,15.14
1631118329031,12.26
1631118329046,9.48
1631118329062,6.87
1631118329078,4.3
1631118329093,1.55
1631118329109,-1.56
1631118329125,-5.04
1631118329140,-8.67
1631118329156,-12.11
1631118329171,-15.09
1631118329187,-17.53
1631118329203,-19.58
1631118329218,-21.62
1631118329234,-24.1
1631118329250,-27.4
1631118329265,-31.77
1631118329281,-37.15
1631118329296,-43.08
1631118329312,-48.62
1631118329328,-52.49
1631118329343,-53.34
1631118329359,-50.19
1631118329375,-42.8
1631118329390,-31.9
1631118329406,-18.9
1631118329421,-5.58
1631118329437,6.47
1631118329453,16.22
1631118329468,23.25
1631118329484,27.65
1631118329500,29.77
1631118329515,29.98
1631118329531,28.71
1631118329546,26.41
1631118329562,23.57
1631118329578,20.72
1631118329593,18.34
1631118329609,16.71
1631118329625,15.88
1631118329640,15.69
1631118329656,15.91
1631118329671,16.25
1631118329687,16.55
1631118329703,16.69
1631118329718,16.66
1631118329734,16.48
1631118329750,16.15
1631118329765,15.62
1631118329781,14.77
1631118329796,13.46
1631118329812,11.6
1631118329828,9.2
1631118329843,6.44
1631118329859,3.63
1631118329875,1.09
1631118329890,-1.0
1631118329906,-2.68
1631118329921,-4.21
1631118329937,-5.89
1631118329953,-7.95
1631118329968,-10.36
1631118329984,-12.91
1631118330000,-15.28
1631118330015,-17.19
1631118330031,-18.61
1631118330046,-19.77
1631118330062,-21.11
1631118330078,-23.19
1631118330093,-26.43
1631118330109,-30.88
1631118330125,-36.15
1631118330140,-41.32
1631118330156,-45.2
1631118330171,-46.57
1631118330187,-44.58
1631118330203,-38.97
1631118330218,-30.19
1631118330234,-19.25
1631118330250,-7.48
1631118330265,3.78
1631118330281,13.44
1631118330296,20.81
1631118330312,25.65
1631118330328,28.09
1631118330343,28.49
1631118330359,27.34
1631118330375,25.15
1631118330390,22.42
1631118330406,19.62
1631118330421,17.15
1631118330437,15.35
1631118330453,14.41
1631118330468,14.32
1631118330484,14.92
1631118330500,15.93
1631118330515,17.04
1631118330531,18.06
1631118330546,18.85
1631118330562,19.4
1631118330578,19.64
1631118330593,19.49
1631118330609,18.8
1631118330625,17.4
1631118330640,15.29
1631118330656,12.57
1631118330671,9.55
1631118330687,6.53
1631118330703,3.78
1631118330718,1.38
1631118330734,-0.76
1631118330750,-2.84
1631118330765,-5.06
1631118330781,-7.49
1631118330796,-10.1
1631118330812,-12.74
1631118330828,-15.19
1631118330843,-17.29
1631118330859,-18.93
1631118330875,-20.16
1631118330890,-21.21
1631118330906,-22.5
1631118330921,-24.54
1631118330937,-27.77
1631118330953,-32.26
1631118330968,-37.56
1631118330984,-42.61
1631118331000,-46.0
1631118331015,-46.41
1631118331031,-42.96
1631118331046,-35.65
1631118331062,-25.29
1631118331078,-13.3
1631118331093,-1.27
1631118331109,9.45
1631118331125,18.03
1631118331140,24.15
1631118331156,27.88
1631118331171,29.43
1631118331187,29.08
1631118331203,27.15
1631118331218,24.11
1631118331234,20.58
1631118331250,17.28
1631118331265,14.84
1631118331281,13.64
1631118331296,13.67
1631118331312,14.58
1631118331328,15.81
1631118331343,16.89
1631118331359,17.51
1631118331375,17.67
1631118331390,17.51
1631118331406,17.19
1631118331421,16.8
1631118331437,16.26
1631118331453,15.44
1631118331468,14.19
1631118331484,12.38
1631118331500,9.99
1631118331515,7.12
1631118331531,4.0
1631118331546,0.89
1631118331562,-1.94
1631118331578,-4.34
1631118331593,-6.33
1631118331609,-8.08
1631118331625,-9.83
1631118331640,-11.81
1631118331656,-14.1
1631118331671,-16.65
1631118331687,-19.29
1631118331703,-21.79
1631118331718,-24.0
1631118331734,-25.9
1631118331750,-27.64
1631118331765,-29.53
1631118331781,-31.98
1631118331796,-35.4
1631118331812,-39.92
1631118331828,-45.24
1631118331843,-50.51
1631118331859,-54.47
1631118331875,-55.77
1631118331890,-53.41
1631118331906,-47.09
1631118331921,-37.34
1631118331937,-25.35
1631118331953,-12.62
1631118331968,-0.56
1631118331984,9.79
1631118332000,17.83
1631118332015,23.41
1631118332031,26.62
1631118332046,27.76
1631118332062,27.22
1631118332078,25.51
1631118332093,23.17
1631118332109,20.76
1631118332125,18.75
1631118332140,17.48
1631118332156,17.11
1631118332171,17.55
1631118332187,18.6
1631118332203,19.9
1631118332218,21.14
1631118332234,22.07
1631118332250,22.65
1631118332265,22.91
1631118332281,22.95
1631118332296,22.83
1631118332312,22.48
1631118332328,21.68
1631118332343,20.24
1631118332359,18.03
1631118332375,15.07
1631118332390,11.6
1631118332406,7.93
1631118332421,4.41
1631118332437,1.31
1631118332453,-1.26
1631118332468,-3.35
1631118332484,-5.17
1631118332500,-7.03
1631118332515,-9.2
1631118332531,-11.86
1631118332546,-14.95
1631118332562,-18.25
1631118332578,-21.4
1631118332593,-24.08
1631118332609,-26.18
1631118332625,-27.82
1631118332640,-29.36
1631118332656,-31.31
1631118332671,-34.14
1631118332687,-38.12
1631118332703,-43.21
1631118332718,-48.85
1631118332734,-54.01
1631118332750,-57.35
1631118332765,-57.53
1631118332781,-53.64
1631118332796,-45.59
1631118332812,-34.1
1631118332828,-20.62
1631118332843,-6.85
1631118332859,5.73
1631118332875,16.17
1631118332890,24.04
1631118332906,29.39
1631118332921,32.45
1631118332937,33.5
1631118332953,32.87
1631118332968,30.97
1631118332984,28.31
1631118333000,25.48
1631118333015,22.99
1631118333031,21.21
1631118333046,20.3
1631118333062,20.17
1631118333078,20.63
1631118333093,21.45
1631118333109,22.43
1631118333125,23.38
1631118333140,24.15
1631118333156,24.63
1631118333171,24.7
1631118333187,24.29
1631118333203,23.33
1631118333218,21.81
1631118333234,19.69
1631118333250,17.01
1631118333265,13.9
1631118333281,10.57
1631118333296,7.34
1631118333312,4.49
1631118333328,2.22
1631118333343,0.54
1631118333359,-0.74
1631118333375,-1.91
1631118333390,-3.31
1631118333406,-5.12
1631118333421,-7.37
1631118333437,-9.93
1631118333453,-12.6
1631118333468,-15.18
1631118333484,-17.57
1631118333500,-19.75
1631118333515,-21.78
1631118333531,-23.75
1631118333546,-25.84
1631118333562,-28.33
1631118333578,-31.54
1631118333593,-35.65
1631118333609,-40.5
1631118333625,-45.35
1631118333640,-49.02
1631118333656,-50.13
1631118333671,-47.65
1631118333687,-41.23
1631118333703,-31.42
1631118333718,-19.46
1631118333734,-6.88
1631118333750,4.9
1631118333765,14.88
1631118333781,22.47
1631118333796,27.43
1631118333812,29.73
1631118333828,29.53
1631118333843,27.22
1631118333859,23.43
1631118333875,18.98
1631118333890,14.75
1631118333906,11.45
1631118333921,9.5
1631118333937,8.99
1631118333953,9.72
1631118333968,11.28
1631118333984,13.23
1631118334000,15.22
1631118334015,16.97
1631118334031,18.36
1631118334046,19.38
1631118334062,20.07
1631118334078,20.44
1631118334093,20.39
1631118334109,19.76
1631118334125,18.37
1631118334140,16.13
1631118334156,13.1
1631118334171,9.55
1631118334187,5.89
1631118334203,2.46
1631118334218,-0.53
1631118334234,-3.05
1631118334250,-5.25
1631118334265,-7.32
1631118334281,-9.36
1631118334296,-11.37
1631118334312,-13.25
1631118334328,-14.93
1631118334343,-16.36
1631118334359,-17.6
1631118334375,-18.84
1631118334390,-20.39
1631118334406,-22.59
1631118334421,-25.81
1631118334437,-30.21
1631118334453,-35.61
1631118334468,-41.36
1631118334484,-46.29
1631118334500,-49.01
1631118334515,-48.32
1631118334531,-43.54
1631118334546,-34.89
1631118334562,-23.31
1631118334578,-10.28
1631118334593,2.67
1631118334609,14.25
1631118334625,23.62
1631118334640,30.37
1631118334656,34.38
1631118334671,35.8
1631118334687,34.92
1631118334703,32.21
1631118334718,28.33
1631118334734,24.03
1631118334750,20.01
1631118334765,16.84
1631118334781,14.86
1631118334796,14.15
1631118334812,14.58
1631118334828,15.85
1631118334843,17.62
1631118334859,19.53
1631118334875,21.29
1631118334890,22.71
1631118334906,23.68
1631118334921,24.14
1631118334937,24.04
1631118334953,23.27
1631118334968,21.72
1631118334984,19.3
1631118335000,16.08
1631118335015,12.34
1631118335031,8.48
1631118335046,4.95
1631118335062,2.03
1631118335078,-0.27
1631118335093,-2.18
1631118335109,-4.08
1631118335125,-6.32
1631118335140,-9.02
1631118335156,-12.08
1631118335171,-15.22
1631118335187,-18.07
1631118335203,-20.36
1631118335218,-22.0
1631118335234,-23.16
1631118335250,-24.25
1631118335265,-25.87
1631118335281,-28.6
1631118335296,-32.84
1631118335312,-38.55
1631118335328,-45.06
1631118335343,-51.13
1631118335359,-55.13
1631118335375,-55.52
1631118335390,-51.31
1631118335406,-42.46
1631118335421,-29.92
1631118335437,-15.3
1631118335453,-0.48
1631118335468,12.96
1631118335484,23.97
1631118335500,32.08
1631118335515,37.28
1631118335531,39.81
1631118335546,40.02
1631118335562,38.41
1631118335578,35.56
1631118335593,32.16
1631118335609,28.87
1631118335625,26.19
1631118335640,24.39
1631118335656,23.49
1631118335671,23.24
1631118335687,23.13
1631118335703,22.54
1631118335718,20.85
1631118335734,17.76
1631118335750,13.45
1631118335765,8.56
1631118335781,3.95
1631118335796,0.29
1631118335812,-2.2
1631118335828,-3.9
1631118335843,-5.48
1631118335859,-7.62
1631118335875,-10.62
1631118335890,-14.33
1631118335906,-18.34
1631118335921,-22.19
1631118335937,-25.63
1631118335953,-28.64
1631118335968,-31.26
1631118335984,-33.44
1631118336000,-35.01
1631118336015,-35.66
1631118336031,-35.17
1631118336046,-33.53
1631118336062,-31.03
1631118336078,-28.27
1631118336093,-25.99
1631118336109,-24.87
1631118336125,-25.39
1631118336140,-27.77
1631118336156,-31.9
1631118336171,-37.41
1631118336187,-43.61
1631118336203,-49.43
1631118336218,-53.57
1631118336234,-54.68
1631118336250,-51.76
1631118336265,-44.48
1631118336281,-33.37
1631118336296,-19.67
1631118336312,-5.0
1631118336328,9.07
1631118336343,21.34
1631118336359,31.03
1631118336375,37.77
1631118336390,41.5
1631118336406,42.34
1631118336421,40.64
1631118336437,36.99
1631118336453,32.15
1631118336468,26.99
1631118336484,22.35
1631118336500,18.83
1631118336515,16.72
1631118336531,15.99
1631118336546,16.37
1631118336562,17.45
1631118336578,18.92
1631118336593,20.54
1631118336609,22.24
1631118336625,23.95
1631118336640,25.55
1631118336656,26.78
1631118336671,27.34
1631118336687,26.94
1631118336703,25.46
1631118336718,23.02
1631118336734,19.93
1631118336750,16.56
1631118336765,13.3
1631118336781,10.38
1631118336796,7.88
1631118336812,5.69
1631118336828,3.62
1631118336843,1.44
1631118336859,-0.98
1631118336875,-3.62
1631118336890,-6.34
1631118336906,-8.91
1631118336921,-11.17
1631118336937,-13.09
1631118336953,-14.78
1631118336968,-16.51
1631118336984,-18.64
1631118337000,-21.56
1631118337015,-25.48
1631118337031,-30.29
1631118337046,-35.37
1631118337062,-39.63
1631118337078,-41.69
1631118337093,-40.32
1631118337109,-34.94
1631118337125,-25.77
1631118337140,-13.9
1631118337156,-0.89
1631118337171,11.62
1631118337187,22.32
1631118337203,30.37
1631118337218,35.41
1631118337234,37.41
1631118337250,36.66
1631118337265,33.68
1631118337281,29.13
1631118337296,23.79
1631118337312,18.4
1631118337328,13.6
1631118337343,9.83
1631118337359,7.39
1631118337375,6.39
1631118337390,6.82
1631118337406,8.44
1631118337421,10.9
1631118337437,13.74
1631118337453,16.52
1631118337468,18.87
1631118337484,20.63
1631118337500,21.74
1631118337515,22.26
1631118337531,22.31
1631118337546,22.02
1631118337562,21.54
1631118337578,20.99
1631118337593,20.42
1631118337609,19.7
1631118337625,18.5
1631118337640,16.37
1631118337656,12.9
1631118337671,7.98
1631118337687,1.96
1631118337703,-4.4
1631118337718,-10.27
1631118337734,-15.09
1631118337750,-18.9
1631118337765,-22.3
1631118337781,-26.19
1631118337796,-31.26
1631118337812,-37.68
1631118337828,-44.85
1631118337843,-51.6
1631118337859,-56.52
1631118337875,-58.33
1631118337890,-56.17
1631118337906,-49.83
1631118337921,-39.73
1631118337937,-26.87
1631118337953,-12.69
1631118337968,1.27
1631118337984,13.61
1631118338000,23.29
1631118338015,29.77
1631118338031,32.91
1631118338046,33.01
1631118338062,30.59
1631118338078,26.43
1631118338093,21.38
1631118338109,16.3
1631118338125,11.88
1631118338140,8.62
1631118338156,6.72
1631118338171,6.17
1631118338187,6.81
1631118338203,8.38
1631118338218,10.59
1631118338234,13.12
1631118338250,15.64
1631118338265,17.79
1631118338281,19.27
1631118338296,19.82
1631118338312,19.27
1631118338328,17.57
1631118338343,14.89
1631118338359,11.51
1631118338375,7.91
1631118338390,4.54
1631118338406,1.74
1631118338421,-0.39
1631118338437,-2.09
1631118338453,-3.75
1631118338468,-5.78
1631118338484,-8.41
1631118338500,-11.56
1631118338515,-14.89
1631118338531,-17.99
1631118338546,-20.56
1631118338562,-22.62
1631118338578,-24.5
1631118338593,-26.76
1631118338609,-30.01
1631118338625,-34.68
1631118338640,-40.73
1631118338656,-47.5
1631118338671,-53.72
1631118338687,-57.7
1631118338703,-57.85
1631118338718,-53.12
1631118338734,-43.44
1631118338750,-29.82
1631118338765,-14.1
1631118338781,1.59
1631118338796,15.35
1631118338812,25.96
1631118338828,32.98
1631118338843,36.6
1631118338859,37.37
1631118338875,35.97
1631118338890,33.05
1631118338906,29.22
1631118338921,25.11
1631118338937,21.28
1631118338953,18.22
1631118338968,16.23
1631118338984,15.41
1631118339000,15.6
1631118339015,16.52
1631118339031,17.91
1631118339046,19.54
1631118339062,21.29
1631118339078,22.99
1631118339093,24.44
1631118339109,25.35
1631118339125,25.42
1631118339140,24.46
1631118339156,22.44
1631118339171,19.56
1631118339187,16.15
1631118339203,12.58
1631118339218,9.08
1631118339234,5.77
1631118339250,2.58
1631118339265,-0.63
1631118339281,-3.95
1631118339296,-7.27
1631118339312,-10.28
1631118339328,-12.58
1631118339343,-13.85
1631118339359,-14.07
1631118339375,-13.62
1631118339390,-13.22
1631118339406,-13.79
1631118339421,-16.07
1631118339437,-20.34
1631118339453,-26.2
1631118339468,-32.62
1631118339484,-38.04
1631118339500,-40.88
1631118339515,-39.9
1631118339531,-34.62
1631118339546,-25.48
1631118339562,-13.74
1631118339578,-1.12
1631118339593,10.66
1631118339609,20.29
1631118339625,27.13
1631118339640,31.18
1631118339656,32.84
1631118339671,32.7
1631118339687,31.25
1631118339703,28.84
1631118339718,25.75
1631118339734,22.32
1631118339750,19.03
1631118339765,16.45
1631118339781,15.08
1631118339796,15.11
1631118339812,16.37
1631118339828,18.34
1631118339843,20.37
1631118339859,21.94
1631118339875,22.81
1631118339890,22.97
1631118339906,22.52
1631118339921,21.49
1631118339937,19.81
1631118339953,17.36
1631118339968,14.09
1631118339984,10.12
1631118340000,5.71
1631118340015,1.18
1631118340031,-3.21
1631118340046,-7.33
1631118340062,-11.16
1631118340078,-14.72
1631118340093,-18.03
1631118340109,-21.08
1631118340125,-23.87
1631118340140,-26.46
1631118340156,-29.0
1631118340171,-31.73
1631118340187,-34.97
1631118340203,-38.96
1631118340218,-43.65
1631118340234,-48.47
1631118340250,-52.33
1631118340265,-53.84
1631118340281,-51.75
1631118340296,-45.47
1631118340312,-35.34
1631118340328,-22.53
1631118340343,-8.74
1631118340359,4.4
1631118340375,15.68
1631118340390,24.46
1631118340406,30.55
1631118340421,33.96
1631118340437,34.83
1631118340453,33.37
1631118340468,30.01
1631118340484,25.47
1631118340500,20.65
1631118340515,16.47
1631118340531,13.62
1631118340546,12.43
1631118340562,12.81
1631118340578,14.39
1631118340593,16.66
1631118340609,19.13
1631118340625,21.38
1631118340640,23.05
1631118340656,23.83
1631118340671,23.52
1631118340687,22.11
1631118340703,19.76
1631118340718,16.82
1631118340734,13.7
1631118340750,10.66
1631118340765,7.7
1631118340781,4.68
1631118340796,1.37
1631118340812,-2.31
1631118340828,-6.22
1631118340843,-10.08
1631118340859,-13.53
1631118340875,-16.39
1631118340890,-18.69
1631118340906,-20.68
1631118340921,-22.74
1631118340937,-25.31
1631118340953,-28.75
1631118340968,-33.28
1631118340984,-38.86
1631118341000,-45.05
1631118341015,-50.88
1631118341031,-54.99
1631118341046,-55.91
1631118341062,-52.52
1631118341078,-44.53
1631118341093,-32.62
1631118341109,-18.33
1631118341125,-3.55
1631118341140,9.95
1631118341156,21.0
1631118341171,29.08
1631118341187,34.28
1631118341203,36.97
1631118341218,37.61
1631118341234,36.64
1631118341250,34.54
1631118341265,31.81
1631118341281,28.99
1631118341296,26.6
1631118341312,25.01
1631118341328,24.38
1631118341343,24.62
1631118341359,25.49
1631118341375,26.66
1631118341390,27.85
1631118341406,28.83
1631118341421,29.43
1631118341437,29.46
1631118341453,28.79
1631118341468,27.33
1631118341484,25.1
1631118341500,22.22
1631118341515,18.9
1631118341531,15.35
1631118341546,11.75
1631118341562,8.18
1631118341578,4.67
1631118341593,1.17
1631118341609,-2.32
1631118341625,-5.78
1631118341640,-9.18
1631118341656,-12.45
1631118341671,-15.55
1631118341687,-18.52
1631118341703,-21.45
1631118341718,-24.57
1631118341734,-28.26
1631118341750,-32.88
1631118341765,-38.66
1631118341781,-45.46
1631118341796,-52.52
1631118341812,-58.55
1631118341828,-61.91
1631118341843,-61.18
1631118341859,-55.63
1631118341875,-45.6
1631118341890,-32.4
1631118341906,-17.87
1631118341921,-3.87
1631118341937,8.27
1631118341953,17.89
1631118341968,24.89
1631118341984,29.52
1631118342000,32.07
1631118342015,32.84
1631118342031,32.21
1631118342046,30.67
1631118342062,28.78
1631118342078,27.11
1631118342093,26.07
1631118342109,25.81
1631118342125,26.3
1631118342140,27.31
1631118342156,28.6
1631118342171,29.94
1631118342187,31.16
1631118342203,32.17
1631118342218,32.98
1631118342234,33.55
1631118342250,33.85
1631118342265,33.82
1631118342281,33.35
1631118342296,32.39
1631118342312,30.87
1631118342328,28.84
1631118342343,26.29
1631118342359,23.19
1631118342375,19.45
1631118342390,14.93
1631118342406,9.61
1631118342421,3.61
1631118342437,-2.76
1631118342453,-9.12
1631118342468,-15.12
1631118342484,-20.51
1631118342500,-25.23
1631118342515,-29.37
1631118342531,-33.24
1631118342546,-37.2
1631118342562,-41.7
1631118342578,-46.94
1631118342593,-52.76
1631118342609,-58.36
1631118342625,-62.45
1631118342640,-63.57
1631118342656,-60.54
1631118342671,-52.99
1631118342687,-41.51
1631118342703,-27.56
1631118342718,-13.02
1631118342734,0.36
1631118342750,11.35
1631118342765,19.44
1631118342781,24.69
1631118342796,27.54
1631118342812,28.51
1631118342828,28.08
1631118342843,26.69
1631118342859,24.8
1631118342875,22.88
1631118342890,21.38
1631118342906,20.63
1631118342921,20.69
1631118342937,21.41
1631118342953,22.51
1631118342968,23.66
1631118342984,24.71
1631118343000,25.6
1631118343015,26.32
1631118343031,26.81
1631118343046,26.9
1631118343062,26.35
1631118343078,25.0
1631118343093,22.86
1631118343109,20.09
1631118343125,16.99
1631118343140,13.8
1631118343156,10.67
1631118343171,7.6
1631118343187,4.53
1631118343203,1.42
1631118343218,-1.71
1631118343234,-4.69
1631118343250,-7.34
1631118343265,-9.49
1631118343281,-11.11
1631118343296,-12.37
1631118343312,-13.5
1631118343328,-14.86
1631118343343,-16.79
1631118343359,-19.59
1631118343375,-23.46
1631118343390,-28.37
1631118343406,-33.88
1631118343421,-39.08
1631118343437,-42.73
1631118343453,-43.58
1631118343468,-40.73
1631118343484,-34.05
1631118343500,-24.24
1631118343515,-12.63
1631118343531,-0.79
1631118343546,9.92
1631118343562,18.62
1631118343578,24.92
1631118343593,28.78
1631118343609,30.31
1631118343625,29.75
1631118343640,27.49
1631118343656,24.12
1631118343671,20.44
1631118343687,17.3
1631118343703,15.35
1631118343718,14.9
1631118343734,15.85
1631118343750,17.74
1631118343765,19.98
1631118343781,22.05
1631118343796,23.6
1631118343812,24.55
1631118343828,24.94
1631118343843,24.88
1631118343859,24.4
1631118343875,23.47
1631118343890,21.96
1631118343906,19.75
1631118343921,16.83
1631118343937,13.38
1631118343953,9.77
1631118343968,6.43
1631118343984,3.67
1631118344000,1.58
1631118344015,-0.05
1631118344031,-1.57
1631118344046,-3.37
1631118344062,-5.64
1631118344078,-8.37
1631118344093,-11.37
1631118344109,-14.37
1631118344125,-17.11
1631118344140,-19.51
1631118344156,-21.66
1631118344171,-23.9
1631118344187,-26.68
1631118344203,-30.52
1631118344218,-35.68
1631118344234,-41.95
1631118344250,-48.49
1631118344265,-53.93
1631118344281,-56.66
1631118344296,-55.4
1631118344312,-49.59
1631118344328,-39.66
1631118344343,-26.92
1631118344359,-13.12
1631118344375,0.04
1631118344390,11.31
1631118344406,20.06
1631118344421,26.2
1631118344437,29.92
1631118344453,31.57
1631118344468,31.48
1631118344484,30.04
1631118344500,27.76
1631118344515,25.22
1631118344531,23.02
1631118344546,21.61
1631118344562,21.19
1631118344578,21.7
1631118344593,22.82
1631118344609,24.19
1631118344625,25.45
1631118344640,26.36
1631118344656,26.82
1631118344671,26.86
1631118344687,26.55
1631118344703,25.98
1631118344718,25.14
1631118344734,23.95
1631118344750,22.21
1631118344765,19.77
1631118344781,16.6
1631118344796,12.86
1631118344812,8.89
1631118344828,5.13
1631118344843,1.97
1631118344859,-0.45
1631118344875,-2.25
1631118344890,-3.76
1631118344906,-5.43
1631118344921,-7.56
1631118344937,-10.24
1631118344953,-13.31
1631118344968,-16.41
1631118344984,-19.22
1631118345000,-21.56
1631118345015,-23.5
1631118345031,-25.33
1631118345046,-27.47
1631118345062,-30.38
1631118345078,-34.4
1631118345093,-39.65
1631118345109,-45.93
1631118345125,-52.57
1631118345140,-58.44
1631118345156,-62.08
1631118345171,-62.13
1631118345187,-57.73
1631118345203,-48.88
1631118345218,-36.52
1631118345234,-22.31
1631118345250,-8.14
1631118345265,4.4
1631118345281,14.35
1631118345296,21.47
1631118345312,26.04
1631118345328,28.62
1631118345343,29.73
1631118345359,29.78
1631118345375,29.01
1631118345390,27.68
1631118345406,26.08
1631118345421,24.55
1631118345437,23.43
1631118345453,22.9
1631118345468,23.01
1631118345484,23.56
1631118345500,24.3
1631118345515,25.0
1631118345531,25.52
1631118345546,25.86
1631118345562,26.03
1631118345578,26.05
1631118345593,25.86
1631118345609,25.31
1631118345625,24.24
1631118345640,22.56
1631118345656,20.25
1631118345671,17.44
1631118345687,14.32
1631118345703,11.12
1631118345718,8.08
1631118345734,5.36
1631118345750,3.09
1631118345765,1.24
1631118345781,-0.3
1631118345796,-1.76
1631118345812,-3.4
1631118345828,-5.4
1631118345843,-7.86
1631118345859,-10.7
1631118345875,-13.7
1631118345890,-16.64
1631118345906,-19.32
1631118345921,-21.67
1631118345937,-23.76
1631118345953,-25.82
1631118345968,-28.18
1631118345984,-31.22
1631118346000,-35.25
1631118346015,-40.3
1631118346031,-45.93
1631118346046,-51.17
1631118346062,-54.69
1631118346078,-55.09
1631118346093,-51.45
1631118346109,-43.66
1631118346125,-32.53
1631118346140,-19.56
1631118346156,-6.43
1631118346171,5.41
1631118346187,15.11
1631118346203,22.33
1631118346218,27.14
1631118346234,29.74
1631118346250,30.34
1631118346265,29.23
1631118346281,26.79
1631118346296,23.58
1631118346312,20.28
1631118346328,17.56
1631118346343,15.87
1631118346359,15.43
1631118346375,16.14
1631118346390,17.71
1631118346406,19.72
1631118346421,21.8
1631118346437,23.62
1631118346453,24.97
1631118346468,25.74
1631118346484,25.85
1631118346500,25.27
1631118346515,24.02
1631118346531,22.12
1631118346546,19.69
1631118346562,16.86
1631118346578,13.83
1631118346593,10.84
1631118346609,8.08
1631118346625,5.71
1631118346640,3.78
1631118346656,2.24
1631118346671,0.9
1631118346687,-0.48
1631118346703,-2.16
1631118346718,-4.28
1631118346734,-6.8
1631118346750,-9.5
1631118346765,-12.08
1631118346781,-14.3
1631118346796,-16.06
1631118346812,-17.46
1631118346828,-18.71
1631118346843,-20.16
1631118346859,-22.14
1631118346875,-24.97
1631118346890,-28.86
1631118346906,-33.77
1631118346921,-39.23
1631118346937,-44.28
1631118346953,-47.64
1631118346968,-48.01
1631118346984,-44.51
1631118347000,-37.07
1631118347015,-26.45
1631118347031,-14.08
1631118347046,-1.6
1631118347062,9.61
1631118347078,18.62
1631118347093,25.08
1631118347109,29.0
1631118347125,30.6
1631118347140,30.14
1631118347156,27.93
1631118347171,24.43
1631118347187,20.24
1631118347203,16.15
1631118347218,12.87
1631118347234,10.94
1631118347250,10.53
1631118347265,11.44
1631118347281,13.21
1631118347296,15.36
1631118347312,17.4
1631118347328,19.04
1631118347343,20.08
1631118347359,20.45
1631118347375,20.1
1631118347390,19.07
1631118347406,17.48
1631118347421,15.45
1631118347437,13.1
1631118347453,10.54
1631118347468,7.85
1631118347484,5.09
1631118347500,2.36
1631118347515,-0.16
1631118347531,-2.35
1631118347546,-4.15
1631118347562,-5.62
1631118347578,-7.01
1631118347593,-8.58
1631118347609,-10.54
1631118347625,-12.91
1631118347640,-15.54
1631118347656,-18.11
1631118347671,-20.31
1631118347687,-21.98
1631118347703,-23.17
1631118347718,-24.17
1631118347734,-25.38
1631118347750,-27.23
1631118347765,-30.11
1631118347781,-34.2
1631118347796,-39.4
1631118347812,-45.26
1631118347828,-50.85
1631118347843,-54.88
1631118347859,-55.95
1631118347875,-52.97
1631118347890,-45.6
1631118347906,-34.43
1631118347921,-20.85
1631118347937,-6.73
1631118347953,6.23
1631118347968,16.79
1631118347984,24.41
1631118348000,29.14
1631118348015,31.36
1631118348031,31.56
1631118348046,30.24
1631118348062,27.87
1631118348078,24.93
1631118348093,21.91
1631118348109,19.24
1631118348125,17.28
1631118348140,16.28
1631118348156,16.35
1631118348171,17.43
1631118348187,19.31
1631118348203,21.62
1631118348218,23.9
1631118348234,25.73
1631118348250,26.8
1631118348265,27.03
1631118348281,26.52
1631118348296,25.45
1631118348312,23.95
1631118348328,22.08
1631118348343,19.81
1631118348359,17.1
1631118348375,14.04
1631118348390,10.79
1631118348406,7.57
1631118348421,4.58
1631118348437,1.9
1631118348453,-0.49
1631118348468,-2.67
1631118348484,-4.72
1631118348500,-6.71
1631118348515,-8.68
1631118348531,-10.7
1631118348546,-12.87
1631118348562,-15.27
1631118348578,-17.94
1631118348593,-20.79
1631118348609,-23.62
1631118348625,-26.24
1631118348640,-28.6
1631118348656,-30.83
1631118348671,-33.35
1631118348687,-36.66
1631118348703,-41.17
1631118348718,-46.85
1631118348734,-53.03
1631118348750,-58.46
1631118348765,-61.57
1631118348781,-60.92
1631118348796,-55.71
1631118348812,-46.11
1631118348828,-33.22
1631118348843,-18.75
1631118348859,-4.54
1631118348875,7.9
1631118348890,17.68
1631118348906,24.51
1631118348921,28.58
1631118348937,30.28
1631118348953,30.04
1631118348968,28.26
1631118348984,25.44
1631118349000,22.1
1631118349015,18.87
1631118349031,16.34
1631118349046,14.94
1631118349062,14.83
1631118349078,15.85
1631118349093,17.68
1631118349109,19.88
1631118349125,22.09
1631118349140,24.07
1631118349156,25.66
1631118349171,26.78
1631118349187,27.34
1631118349203,27.25
1631118349218,26.46
1631118349234,24.9
1631118349250,22.62
1631118349265,19.77
1631118349281,16.56
1631118349296,13.26
1631118349312,10.14
1631118349328,7.39
1631118349343,5.1
1631118349359,3.21
1631118349375,1.52
1631118349390,-0.24
1631118349406,-2.31
1631118349421,-4.82
1631118349437,-7.7
1631118349453,-10.72
1631118349468,-13.58
1631118349484,-16.03
1631118349500,-17.99
1631118349515,-19.53
1631118349531,-20.9
1631118349546,-22.4
1631118349562,-24.33
1631118349578,-26.97
1631118349593,-30.52
1631118349609,-35.03
1631118349625,-40.26
1631118349640,-45.49
1631118349656,-49.56
1631118349671,-51.14
1631118349687,-49.09
1631118349703,-42.94
1631118349718,-33.1
1631118349734,-20.8
1631118349750,-7.71
1631118349765,4.56
1631118349781,14.86
1631118349796,22.62
1631118349812,27.74
1631118349828,30.47
1631118349843,31.08
1631118349859,29.88
1631118349875,27.23
1631118349890,23.64
1631118349906,19.73
1631118349921,16.19
1631118349937,13.6
1631118349953,12.3
1631118349968,12.29
1631118349984,13.35
1631118350000,15.08
1631118350015,17.14
1631118350031,19.25
1631118350046,21.28
1631118350062,23.1
1631118350078,24.59
1631118350093,25.53
1631118350109,25.75
1631118350125,25.14
1631118350140,23.8
1631118350156,22.06
1631118350171,20.38
1631118350187,19.16
1631118350203,18.6
1631118350218,18.56
1631118350234,18.58
1631118350250,18.07
1631118350265,16.45
1631118350281,13.39
1631118350296,8.89
1631118350312,3.27
1631118350328,-2.98
1631118350343,-9.33
1631118350359,-15.36
1631118350375,-20.81
1631118350390,-25.59
1631118350406,-29.75
1631118350421,-33.53
1631118350437,-37.32
1631118350453,-41.62
1631118350468,-46.83
1631118350484,-53.0
1631118350500,-59.53
1631118350515,-65.21
1631118350531,-68.44
1631118350546,-67.75
1631118350562,-62.39
1631118350578,-52.56
1631118350593,-39.42
1631118350609,-24.65
1631118350625,-10.0
1631118350640,3.14
1631118350656,13.93
1631118350671,21.98
1631118350687,27.23
1631118350703,29.83
1631118350718,30.05
1631118350734,28.29
1631118350750,25.09
1631118350765,21.11
1631118350781,17.08
1631118350796,13.7
1631118350812,11.51
1631118350828,10.8
1631118350843,11.48
1631118350859,13.18
1631118350875,15.36
1631118350890,17.46
1631118350906,19.14
1631118350921,20.28
1631118350937,20.96
1631118350953,21.33
1631118350968,21.46
1631118350984,21.21
1631118351000,20.32
1631118351015,18.52
1631118351031,15.67
1631118351046,11.96
1631118351062,7.79
1631118351078,3.75
1631118351093,0.34
1631118351109,-2.22
1631118351125,-4.06
1631118351140,-5.56
1631118351156,-7.23
1631118351171,-9.41
1631118351187,-12.19
1631118351203,-15.4
1631118351218,-18.69
1631118351234,-21.7
1631118351250,-24.28
1631118351265,-26.48
1631118351281,-28.56
1631118351296,-30.94
1631118351312,-34.04
1631118351328,-38.19
1631118351343,-43.51
1631118351359,-49.74
1631118351375,-56.14
1631118351390,-61.46
1631118351406,-64.22
1631118351421,-63.08
1631118351437,-57.32
1631118351453,-47.14
1631118351468,-33.7
1631118351484,-18.79
1631118351500,-4.3
1631118351515,8.29
1631118351531,18.19
1631118351546,25.26
1631118351562,29.77
1631118351578,32.08
1631118351593,32.52
1631118351609,31.4
1631118351625,29.12
1631118351640,26.27
1631118351656,23.54
1631118351671,21.56
1631118351687,20.67
1631118351703,20.88
1631118351718,21.89
1631118351734,23.31
1631118351750,24.79
1631118351765,26.15
1631118351781,27.35
1631118351796,28.37
1631118351812,29.14
1631118351828,29.52
1631118351843,29.31
1631118351859,28.33
1631118351875,26.43
1631118351890,23.61
1631118351906,20.0
1631118351921,15.91
1631118351937,11.78
1631118351953,8.1
1631118351968,5.19
1631118351984,3.12
1631118352000,1.62
1631118352015,0.22
1631118352031,-1.56
1631118352046,-3.97
1631118352062,-6.98
1631118352078,-10.3
1631118352093,-13.53
1631118352109,-16.38
1631118352125,-18.73
1631118352140,-20.74
1631118352156,-22.73
1631118352171,-25.12
1631118352187,-28.35
1631118352203,-32.78
1631118352218,-38.49
1631118352234,-45.09
1631118352250,-51.64
1631118352265,-56.77
1631118352281,-58.9
1631118352296,-56.83
1631118352312,-50.13
1631118352328,-39.34
1631118352343,-25.84
1631118352359,-11.45
1631118352375,2.11
1631118352390,13.61
1631118352406,22.42
1631118352421,28.45
1631118352437,31.92
1631118352453,33.16
1631118352468,32.53
1631118352484,30.41
1631118352500,27.29
1631118352515,23.8
1631118352531,20.61
1631118352546,18.35
1631118352562,17.43
1631118352578,17.91
1631118352593,19.48
1631118352609,21.57
1631118352625,23.62
1631118352640,25.25
1631118352656,26.4
1631118352671,27.21
1631118352687,27.89
1631118352703,28.44
1631118352718,28.62
1631118352734,27.99
1631118352750,26.19
1631118352765,23.13
1631118352781,19.11
1631118352796,14.77
1631118352812,10.8
1631118352828,7.69
1631118352843,5.54
1631118352859,4.06
1631118352875,2.7
1631118352890,1.01
1631118352906,-1.25
1631118352921,-3.98
1631118352937,-6.88
1631118352953,-9.58
1631118352968,-11.86
1631118352984,-13.75
1631118353000,-15.49
1631118353015,-17.46
1631118353031,-20.03
1631118353046,-23.44
1631118353062,-27.78
1631118353078,-32.83
1631118353093,-38.01
1631118353109,-42.38
1631118353125,-44.82
1631118353140,-44.28
1631118353156,-40.14
1631118353171,-32.47
1631118353187,-22.01
1631118353203,-10.05
1631118353218,2.0
1631118353234,12.89
1631118353250,21.75
1631118353265,28.1
1631118353281,31.77
1631118353296,32.83
1631118353312,31.55
1631118353328,28.38
1631118353343,23.99
1631118353359,19.21
1631118353375,14.82
1631118353390,11.5
1631118353406,9.66
1631118353421,9.46
1631118353437,10.78
1631118353453,13.3
1631118353468,16.54
1631118353484,19.97
1631118353500,23.03
1631118353515,25.25
1631118353531,26.3
1631118353546,26.07
1631118353562,24.56
1631118353578,21.94
1631118353593,18.51
1631118353609,14.65
1631118353625,10.76
1631118353640,7.18
1631118353656,4.1
1631118353671,1.49
1631118353687,-0.85
1631118353703,-3.19
1631118353718,-5.71
1631118353734,-8.42
1631118353750,-11.14
1631118353765,-13.58
1631118353781,-15.54
1631118353796,-17.0
1631118353812,-18.23
1631118353828,-19.66
1631118353843,-21.88
1631118353859,-25.34
1631118353875,-30.17
1631118353890,-36.05
1631118353906,-42.13
1631118353921,-47.12
1631118353937,-49.61
1631118353953,-48.47
1631118353968,-43.2
1631118353984,-34.16
1631118354000,-22.43
1631118354015,-9.56
1631118354031,2.92
1631118354046,13.83
1631118354062,22.49
1631118354078,28.64
1631118354093,32.24
1631118354109,33.36
1631118354125,32.11
1631118354140,28.84
1631118354156,24.2
1631118354171,19.19
1631118354187,14.91
1631118354203,12.26
1631118354218,11.66
1631118354234,12.94
1631118354250,15.45
1631118354265,18.39
1631118354281,21.06
1631118354296,23.11
1631118354312,24.49
1631118354328,25.3
1631118354343,25.62
1631118354359,25.38
1631118354375,24.4
1631118354390,22.51
1631118354406,19.65
1631118354421,16.03
1631118354437,12.09
1631118354453,8.32
1631118354468,5.13
1631118354484,2.62
1631118354500,0.6
1631118354515,-1.38
1631118354531,-3.79
1631118354546,-6.92
1631118354562,-10.71
1631118354578,-14.82
1631118354593,-18.74
1631118354609,-22.06
1631118354625,-24.59
1631118354640,-26.53
1631118354656,-28.35
1631118354671,-30.68
1631118354687,-34.08
1631118354703,-38.9
1631118354718,-45.02
1631118354734,-51.8
1631118354750,-58.05
1631118354765,-62.22
1631118354781,-62.79
1631118354796,-58.75
1631118354812,-49.94
1631118354828,-37.21
1631118354843,-22.19
1631118354859,-6.84
1631118354875,7.06
1631118354890,18.32
1631118354906,26.42
1631118354921,31.47
1631118354937,33.9
1631118354953,34.3
1631118354968,33.24
1631118354984,31.22
1631118355000,28.74
1631118355015,26.28
1631118355031,24.32
1631118355046,23.2
1631118355062,23.08
1631118355078,23.85
1631118355093,25.16
1631118355109,26.58
1631118355125,27.76
1631118355140,28.52
1631118355156,28.88
1631118355171,28.91
1631118355187,28.6
1631118355203,27.81
1631118355218,26.29
1631118355234,23.81
1631118355250,20.35
1631118355265,16.15
1631118355281,11.73
1631118355296,7.65
1631118355312,4.31
1631118355328,1.86
1631118355343,0.05
1631118355359,-1.56
1631118355375,-3.49
1631118355390,-6.0
1631118355406,-9.1
1631118355421,-12.52
1631118355437,-15.87
1631118355453,-18.85
1631118355468,-21.34
1631118355484,-23.47
1631118355500,-25.54
1631118355515,-27.99
1631118355531,-31.27
1631118355546,-35.72
1631118355562,-41.39
1631118355578,-47.79
1631118355593,-53.86
1631118355609,-58.08
1631118355625,-58.87
1631118355640,-55.15
1631118355656,-46.78
1631118355671,-34.68
1631118355687,-20.58
1631118355703,-6.46
1631118355718,6.06
1631118355734,16.03
1631118355750,23.19
1631118355765,27.77
1631118355781,30.14
1631118355796,30.68
1631118355812,29.75
1631118355828,27.85
1631118355843,25.53
1631118355859,23.42
1631118355875,22.0
1631118355890,21.5
1631118355906,21.84
1631118355921,22.76
1631118355937,23.91
1631118355953,25.03
1631118355968,25.97
1631118355984,26.64
1631118356000,26.98
1631118356015,26.92
1631118356031,26.44
1631118356046,25.59
1631118356062,24.44
1631118356078,23.03
1631118356093,21.33
1631118356109,19.19
1631118356125,16.53
1631118356140,13.39
1631118356156,10.01
1631118356171,6.79
1631118356187,4.05
1631118356203,1.9
1631118356218,0.14
1631118356234,-1.64
1631118356250,-3.85
1631118356265,-6.63
1631118356281,-9.8
1631118356296,-12.93
1631118356312,-15.58
1631118356328,-17.51
1631118356343,-18.87
1631118356359,-20.09
1631118356375,-21.78
1631118356390,-24.5
1631118356406,-28.59
1631118356421,-34.05
1631118356437,-40.45
1631118356453,-46.92
1631118356468,-52.2
1631118356484,-54.9
1631118356500,-53.8
1631118356515,-48.28
1631118356531,-38.62
1631118356546,-25.94
1631118356562,-11.94
1631118356578,1.58
1631118356593,13.19
1631118356609,22.06
1631118356625,28.01
1631118356640,31.28
1631118356656,32.28
1631118356671,31.5
1631118356687,29.41
1631118356703,26.54
1631118356718,23.47
1631118356734,20.73
1631118356750,18.81
1631118356765,17.96
1631118356781,18.22
1631118356796,19.36
1631118356812,21.05
1631118356828,22.92
1631118356843,24.63
1631118356859,26.0
1631118356875,26.95
1631118356890,27.46
1631118356906,27.54
1631118356921,27.09
1631118356937,25.94
1631118356953,23.93
1631118356968,21.02
1631118356984,17.39
1631118357000,13.48
1631118357015,9.84
1631118357031,6.91
1631118357046,4.81
1631118357062,3.29
1631118357078,1.89
1631118357093,0.09
1631118357109,-2.38
1631118357125,-5.45
1631118357140,-8.76
1631118357156,-11.83
1631118357171,-14.25
1631118357187,-15.86
1631118357203,-16.84
1631118357218,-17.62
1631118357234,-18.83
1631118357250,-21.09
1631118357265,-24.78
1631118357281,-29.91
1631118357296,-35.91
1631118357312,-41.7
1631118357328,-45.93
1631118357343,-47.28
1631118357359,-44.85
1631118357375,-38.51
1631118357390,-28.82
1631118357406,-17.0
1631118357421,-4.55
1631118357437,7.15
1631118357453,17.02
1631118357468,24.46
1631118357484,29.27
1631118357500,31.56
1631118357515,31.57
1631118357531,29.67
1631118357546,26.4
1631118357562,22.37
1631118357578,18.33
1631118357593,14.95
1631118357609,12.72
1631118357625,11.81
1631118357640,12.14
1631118357656,13.4
1631118357671,15.28
1631118357687,17.51
1631118357703,19.92
1631118357718,22.35
1631118357734,24.59
1631118357750,26.26
1631118357765,26.96
1631118357781,26.31
1631118357796,24.16
1631118357812,20.62
1631118357828,16.07
1631118357843,11.08
1631118357859,6.22
1631118357875,1.93
1631118357890,-1.56
1631118357906,-4.29
1631118357921,-6.47
1631118357937,-8.4
1631118357953,-10.35
1631118357968,-12.43
1631118357984,-14.6
1631118358000,-16.71
1631118358015,-18.63
1631118358031,-20.29
1631118358046,-21.83
1631118358062,-23.52
1631118358078,-25.73
1631118358093,-28.84
1631118358109,-33.07
1631118358125,-38.4
1631118358140,-44.37
1631118358156,-50.05
1631118358171,-54.16
1631118358187,-55.33
1631118358203,-52.54
1631118358218,-45.49
1631118358234,-34.75
1631118358250,-21.67
1631118358265,-7.97
1631118358281,4.74
1631118358296,15.33
1631118358312,23.23
1631118358328,28.43
1631118358343,31.18
1631118358359,31.85
1631118358375,30.81
1631118358390,28.55
1631118358406,25.61
1631118358421,22.62
1631118358437,20.24
1631118358453,18.89
1631118358468,18.73
1631118358484,19.53
1631118358500,20.89
1631118358515,22.34
1631118358531,23.6
1631118358546,24.59
1631118358562,25.44
1631118358578,26.25
1631118358593,27.02
1631118358609,27.56
1631118358625,27.59
1631118358640,26.82
1631118358656,25.14
1631118358671,22.66
1631118358687,19.64
1631118358703,16.42
1631118358718,13.34
1631118358734,10.66
1631118358750,8.5
1631118358765,6.82
1631118358781,5.4
1631118358796,3.89
1631118358812,1.92
1631118358828,-0.78
1631118358843,-4.27
1631118358859,-8.37
1631118358875,-12.7
1631118358890,-16.82
1631118358906,-20.4
1631118358921,-23.29
1631118358937,-25.62
1631118358953,-27.75
1631118358968,-30.2
1631118358984,-33.54
1631118359000,-38.16
1631118359015,-44.01
1631118359031,-50.37
1631118359046,-55.98
1631118359062,-59.21
1631118359078,-58.69
1631118359093,-53.74
1631118359109,-44.71
1631118359125,-32.89
1631118359140,-20.07
1631118359156,-8.01
1631118359171,2.06
1631118359187,9.62
1631118359203,14.74
1631118359218,17.81
1631118359234,19.28
1631118359250,19.5
1631118359265,18.78
1631118359281,17.4
1631118359296,15.72
1631118359312,14.13
1631118359328,13.04
1631118359343,12.68
1631118359359,13.15
1631118359375,14.36
1631118359390,16.13
1631118359406,18.27
1631118359421,20.65
1631118359437,23.18
1631118359453,25.78
1631118359468,28.25
1631118359484,30.33
1631118359500,31.64
1631118359515,31.87
1631118359531,30.79
1631118359546,28.4
1631118359562,24.85
1631118359578,20.46
1631118359593,15.62
1631118359609,10.74
1631118359625,6.18
1631118359640,2.2
1631118359656,-1.06
1631118359671,-3.64
1631118359687,-5.68
1631118359703,-7.42
1631118359718,-9.11
1631118359734,-10.91
1631118359750,-12.89
1631118359765,-14.98
1631118359781,-17.04
1631118359796,-18.88
1631118359812,-20.41
1631118359828,-21.68
1631118359843,-22.96
1631118359859,-24.73
1631118359875,-27.57
1631118359890,-31.94
1631118359906,-37.89
1631118359921,-44.86
1631118359937,-51.67
1631118359953,-56.74
1631118359968,-58.51
1631118359984,-55.94
1631118360000,-48.86
1631118360015,-38.02
1631118360031,-24.83
1631118360046,-11.0
1631118360062,1.98
1631118360078,13.01
1631118360093,21.52
1631118360109,27.41
1631118360125,30.81
1631118360140,32.02
1631118360156,31.39
1631118360171,29.36
1631118360187,26.47
1631118360203,23.34
1631118360218,20.6
1631118360234,18.84
1631118360250,18.45
1631118360265,19.51
1631118360281,21.79
1631118360296,24.83
1631118360312,28.13
1631118360328,31.16
1631118360343,33.58
1631118360359,35.1
1631118360375,35.55
1631118360390,34.84
1631118360406,33.02
1631118360421,30.21
1631118360437,26.72
1631118360453,22.85
1631118360468,18.86
1631118360484,14.9
1631118360500,11.03
1631118360515,7.28
1631118360531,3.73
1631118360546,0.55
1631118360562,-2.11
1631118360578,-4.17
1631118360593,-5.71
1631118360609,-6.97
1631118360625,-8.21
1631118360640,-9.6
1631118360656,-11.13
1631118360671,-12.69
1631118360687,-14.1
1631118360703,-15.29
1631118360718,-16.35
1631118360734,-17.57
1631118360750,-19.32
1631118360765,-21.97
1631118360781,-25.79
1631118360796,-30.89
1631118360812,-37.04
1631118360828,-43.61
1631118360843,-49.51
1631118360859,-53.35
1631118360875,-53.74
1631118360890,-49.76
1631118360906,-41.24
1631118360921,-29.0
1631118360937,-14.57
1631118360953,0.14
1631118360968,13.36
1631118360984,23.85
1631118361000,30.98
1631118361015,34.69
1631118361031,35.28
1631118361046,33.28
1631118361062,29.31
1631118361078,24.07
1631118361093,18.27
1631118361109,12.64
1631118361125,7.85
1631118361140,4.4
1631118361156,2.6
1631118361171,2.49
1631118361187,3.85
1631118361203,6.25
1631118361218,9.16
1631118361234,12.08
1631118361250,14.67
1631118361265,16.81
1631118361281,18.47
1631118361296,19.71
1631118361312,20.46
1631118361328,20.57
1631118361343,19.89
1631118361359,18.29
1631118361375,15.89
1631118361390,12.97
1631118361406,9.94
1631118361421,7.16
1631118361437,4.87
1631118361453,3.1
1631118361468,1.69
1631118361484,0.4
1631118361500,-1.04
1631118361515,-2.76
1631118361531,-4.76
1631118361546,-6.87
1631118361562,-8.84
1631118361578,-10.43
1631118361593,-11.65
1631118361609,-12.72
1631118361625,-14.11
1631118361640,-16.41
1631118361656,-20.07
1631118361671,-25.24
1631118361687,-31.68
1631118361703,-38.65
1631118361718,-45.04
1631118361734,-49.5
1631118361750,-50.8
1631118361765,-48.05
1631118361781,-41.05
1631118361796,-30.38
1631118361812,-17.32
1631118361828,-3.54
1631118361843,9.29
1631118361859,19.9
1631118361875,27.55
1631118361890,32.07
1631118361906,33.7
1631118361921,32.89
1631118361937,30.21
1631118361953,26.33
1631118361968,22.01
1631118361984,18.04
1631118362000,15.17
1631118362015,13.88
1631118362031,14.28
1631118362046,16.07
1631118362062,18.62
1631118362078,21.2
1631118362093,23.13
1631118362109,23.95
1631118362125,23.5
1631118362140,21.87
1631118362156,19.39
1631118362171,16.45
1631118362187,13.44
1631118362203,10.56
1631118362218,7.77
1631118362234,4.83
1631118362250,1.46
1631118362265,-2.46
1631118362281,-6.74
1631118362296,-10.89
1631118362312,-14.33
1631118362328,-16.69
1631118362343,-17.97
1631118362359,-18.56
1631118362375,-19.02
1631118362390,-19.82
1631118362406,-21.13
1631118362421,-22.83
1631118362437,-24.67
1631118362453,-26.45
1631118362468,-28.17
1631118362484,-29.99
1631118362500,-32.06
1631118362515,-34.47
1631118362531,-37.2
1631118362546,-40.24
1631118362562,-43.62
1631118362578,-47.31
1631118362593,-50.98
1631118362609,-53.85
1631118362625,-54.67
1631118362640,-52.16
1631118362656,-45.53
1631118362671,-34.9
1631118362687,-21.38
1631118362703,-6.76
1631118362718,7.11
1631118362734,18.74
1631118362750,27.31
1631118362765,32.6
1631118362781,34.79
1631118362796,34.28
1631118362812,31.62
1631118362828,27.51
1631118362843,22.77
1631118362859,18.27
1631118362875,14.75
1631118362890,12.74
1631118362906,12.47
1631118362921,13.88
1631118362937,16.69
1631118362953,20.41
1631118362968,24.51
1631118362984,28.44
1631118363000,31.78
1631118363015,34.36
1631118363031,36.13
1631118363046,37.15
1631118363062,37.35
1631118363078,36.55
1631118363093,34.51
1631118363109,31.04
1631118363125,26.24
1631118363140,20.48
1631118363156,14.37
1631118363171,8.54
1631118363187,3.46
1631118363203,-0.72
1631118363218,-4.12
1631118363234,-7.05
1631118363250,-9.82
1631118363265,-12.69
1631118363281,-15.77
1631118363296,-19.05
1631118363312,-22.39
1631118363328,-25.53
1631118363343,-28.24
1631118363359,-30.33
1631118363375,-31.84
1631118363390,-33.04
1631118363406,-34.43
1631118363421,-36.68
1631118363437,-40.35
1631118363453,-45.64
1631118363468,-52.14
1631118363484,-58.8
1631118363500,-64.08
1631118363515,-66.25
1631118363531,-64.02
1631118363546,-56.81
1631118363562,-45.07
1631118363578,-30.14
1631118363593,-13.89
1631118363609,1.81
1631118363625,15.47
1631118363640,26.17
1631118363656,33.59
1631118363671,37.75
1631118363687,38.93
1631118363703,37.55
1631118363718,34.17
1631118363734,29.55
1631118363750,24.56
1631118363765,20.06
1631118363781,16.71
1631118363796,14.84
1631118363812,14.33
1631118363828,14.84
1631118363843,15.87
1631118363859,17.02
1631118363875,18.09
1631118363890,19.06
1631118363906,20.02
1631118363921,21.05
1631118363937,22.1
1631118363953,22.97
1631118363968,23.34
