timestamp,bvp
1629795340000,9.67
1629795340015,9.42
1629795340031,9.21
1629795340046,8.75
1629795340062,7.76
1629795340078,6.18
1629795340093,4.13
1629795340109,1.85
1629795340125,-0.35
1629795340140,-2.2
1629795340156,-3.58
1629795340171,-4.44
1629795340187,-4.81
1629795340203,-4.71
1629795340218,-4.12
1629795340234,-2.98
1629795340250,-1.3
1629795340265,0.81
1629795340281,3.08
1629795340296,5.16
1629795340312,6.77
1629795340328,7.66
1629795340343,7.82
1629795340359,7.4
1629795340375,6.6
1629795340390,5.62
1629795340406,4.64
1629795340421,3.74
1629795340437,2.96
1629795340453,2.34
1629795340468,1.86
1629795340484,1.44
1629795340500,1.01
1629795340515,0.45
1629795340531,-0.32
1629795340546,-1.3
1629795340562,-2.38
1629795340578,-3.41
1629795340593,-4.21
1629795340609,-4.74
1629795340625,-5.18
1629795340640,-5.81
1629795340656,-6.97
1629795340671,-8.83
1629795340687,-11.3
1629795340703,-14.07
1629795340718,-16.71
1629795340734,-18.81
1629795340750,-20.15
1629795340765,-20.76
1629795340781,-20.79
1629795340796,-20.4
1629795340812,-19.69
1629795340828,-18.67
1629795340843,-17.35
1629795340859,-15.8
1629795340875,-14.19
1629795340890,-12.7
1629795340906,-11.49
1629795340921,-10.6
1629795340937,-9.94
1629795340953,-9.26
1629795340968,-8.3
1629795340984,-6.93
1629795341000,-5.18
1629795341015,-3.25
1629795341031,-1.39
1629795341046,0.11
1629795341062,1.12
1629795341078,1.64
1629795341093,1.81
1629795341109,1.83
1629795341125,1.85
1629795341140,1.9
1629795341156,1.97
1629795341171,1.93
1629795341187,1.55
1629795341203,0.67
1629795341218,-0.75
1629795341234,-2.58
1629795341250,-4.5
1629795341265,-6.13
1629795341281,-7.13
1629795341296,-7.37
1629795341312,-6.83
1629795341328,-5.74
1629795341343,-4.29
1629795341359,-2.64
1629795341375,-0.9
1629795341390,0.88
1629795341406,2.64
1629795341421,4.29
1629795341437,5.73
1629795341453,6.87
1629795341468,7.71
1629795341484,8.35
1629795341500,8.93
1629795341515,9.66
1629795341531,10.63
1629795341546,11.85
1629795341562,13.14
1629795341578,14.27
1629795341593,15.04
1629795341609,15.41
1629795341625,15.48
1629795341640,15.43
1629795341656,15.43
1629795341671,15.54
1629795341687,15.65
1629795341703,15.65
1629795341718,15.49
1629795341734,15.28
1629795341750,15.2
1629795341765,15.45
1629795341781,16.1
1629795341796,16.94
1629795341812,17.66
1629795341828,17.85
1629795341843,17.18
1629795341859,15.49
1629795341875,12.85
1629795341890,9.44
1629795341906,5.5
1629795341921,1.22
1629795341937,-3.34
1629795341953,-8.16
1629795341968,-13.21
1629795341984,-18.43
1629795342000,-23.71
1629795342015,-28.87
1629795342031,-33.7
1629795342046,-37.86
1629795342062,-40.88
1629795342078,-42.21
1629795342093,-41.25
1629795342109,-37.68
1629795342125,-31.54
1629795342140,-23.36
1629795342156,-14.0
1629795342171,-4.56
1629795342187,3.98
1629795342203,10.89
1629795342218,15.81
1629795342234,18.8
1629795342250,20.17
1629795342265,20.47
1629795342281,20.29
1629795342296,20.16
1629795342312,20.4
1629795342328,21.08
1629795342343,22.08
1629795342359,23.17
1629795342375,24.16
1629795342390,24.85
1629795342406,25.05
1629795342421,24.63
1629795342437,23.48
1629795342453,21.63
1629795342468,19.3
1629795342484,16.83
1629795342500,14.64
1629795342515,12.99
1629795342531,11.84
1629795342546,10.93
1629795342562,9.93
1629795342578,8.58
1629795342593,6.88
1629795342609,5.0
1629795342625,3.18
1629795342640,1.58
1629795342656,0.27
1629795342671,-0.77
1629795342687,-1.6
1629795342703,-2.28
1629795342718,-2.95
1629795342734,-3.75
1629795342750,-4.88
1629795342765,-6.46
1629795342781,-8.41
1629795342796,-10.42
1629795342812,-11.97
1629795342828,-12.54
1629795342843,-11.77
1629795342859,-9.66
1629795342875,-6.46
1629795342890,-2.62
1629795342906,1.41
1629795342921,5.32
1629795342937,8.96
1629795342953,12.18
1629795342968,14.8
1629795342984,16.5
1629795343000,16.87
1629795343015,15.58
1629795343031,12.53
1629795343046,7.75
1629795343062,1.46
1629795343078,-6.1
1629795343093,-14.67
1629795343109,-23.93
1629795343125,-33.37
1629795343140,-42.29
1629795343156,-49.88
1629795343171,-55.49
1629795343187,-58.76
1629795343203,-59.63
1629795343218,-58.16
1629795343234,-54.32
1629795343250,-47.94
1629795343265,-38.87
1629795343281,-27.34
1629795343296,-14.26
1629795343312,-1.11
1629795343328,10.4
1629795343343,18.93
1629795343359,24.02
1629795343375,26.08
1629795343390,26.09
1629795343406,25.09
1629795343421,23.74
1629795343437,22.26
1629795343453,20.53
1629795343468,18.43
1629795343484,15.94
1629795343500,13.2
1629795343515,10.35
1629795343531,7.53
1629795343546,4.86
1629795343562,2.56
1629795343578,0.99
1629795343593,0.49
1629795343609,1.24
1629795343625,3.03
1629795343640,5.41
1629795343656,7.77
1629795343671,9.68
1629795343687,10.95
1629795343703,11.63
1629795343718,11.92
1629795343734,12.03
1629795343750,12.08
1629795343765,12.22
1629795343781,12.62
1629795343796,13.44
1629795343812,14.81
1629795343828,16.66
1629795343843,18.7
1629795343859,20.52
1629795343875,21.7
1629795343890,22.01
1629795343906,21.43
1629795343921,20.16
1629795343937,18.56
1629795343953,16.97
1629795343968,15.68
1629795343984,14.77
1629795344000,14.12
1629795344015,13.46
1629795344031,12.5
1629795344046,11.1
1629795344062,9.33
1629795344078,7.46
1629795344093,5.78
1629795344109,4.54
1629795344125,3.73
1629795344140,3.11
1629795344156,2.31
1629795344171,1.0
1629795344187,-0.87
1629795344203,-3.21
1629795344218,-5.7
1629795344234,-8.04
1629795344250,-10.05
1629795344265,-11.69
1629795344281,-13.08
1629795344296,-14.42
1629795344312,-15.91
1629795344328,-17.6
1629795344343,-19.4
1629795344359,-21.11
1629795344375,-22.44
1629795344390,-23.16
1629795344406,-23.1
1629795344421,-22.28
1629795344437,-20.83
1629795344453,-18.95
1629795344468,-16.83
1629795344484,-14.62
1629795344500,-12.35
1629795344515,-9.94
1629795344531,-7.3
1629795344546,-4.28
1629795344562,-0.8
1629795344578,3.03
1629795344593,7.05
1629795344609,10.93
1629795344625,14.43
1629795344640,17.38
1629795344656,19.75
1629795344671,21.54
1629795344687,22.71
1629795344703,23.21
1629795344718,22.9
1629795344734,21.76
1629795344750,19.87
1629795344765,17.41
1629795344781,14.57
1629795344796,11.57
1629795344812,8.61
1629795344828,5.92
1629795344843,3.75
1629795344859,2.32
1629795344875,1.62
1629795344890,1.38
1629795344906,1.11
1629795344921,0.29
1629795344937,-1.38
1629795344953,-3.74
1629795344968,-6.36
1629795344984,-8.65
1629795345000,-10.2
1629795345015,-10.9
1629795345031,-10.98
1629795345046,-10.79
1629795345062,-10.56
1629795345078,-10.42
1629795345093,-10.36
1629795345109,-10.38
1629795345125,-10.61
1629795345140,-11.34
1629795345156,-12.8
1629795345171,-15.04
1629795345187,-17.83
1629795345203,-20.66
1629795345218,-22.93
1629795345234,-24.15
1629795345250,-24.05
1629795345265,-22.65
1629795345281,-20.2
1629795345296,-17.1
1629795345312,-13.68
1629795345328,-10.24
1629795345343,-6.94
1629795345359,-3.81
1629795345375,-0.84
1629795345390,1.93
1629795345406,4.45
1629795345421,6.63
1629795345437,8.35
1629795345453,9.59
1629795345468,10.44
1629795345484,11.04
1629795345500,11.56
1629795345515,12.1
1629795345531,12.68
1629795345546,13.24
1629795345562,13.69
1629795345578,13.94
1629795345593,13.95
1629795345609,13.72
1629795345625,13.28
1629795345640,12.72
1629795345656,12.1
1629795345671,11.44
1629795345687,10.73
1629795345703,9.89
1629795345718,8.9
1629795345734,7.73
1629795345750,6.42
1629795345765,5.09
1629795345781,3.81
1629795345796,2.59
1629795345812,1.39
1629795345828,0.16
1629795345843,-1.05
1629795345859,-2.15
1629795345875,-3.04
1629795345890,-3.71
1629795345906,-4.25
1629795345921,-4.81
1629795345937,-5.5
1629795345953,-6.34
1629795345968,-7.24
1629795345984,-8.09
1629795346000,-8.91
1629795346015,-9.87
1629795346031,-11.21
1629795346046,-13.08
1629795346062,-15.45
1629795346078,-18.04
1629795346093,-20.43
1629795346109,-22.12
1629795346125,-22.79
1629795346140,-22.3
1629795346156,-20.77
1629795346171,-18.46
1629795346187,-15.73
1629795346203,-12.95
1629795346218,-10.33
1629795346234,-7.94
1629795346250,-5.78
1629795346265,-3.79
1629795346281,-1.93
1629795346296,-0.19
1629795346312,1.44
1629795346328,2.94
1629795346343,4.33
1629795346359,5.62
1629795346375,6.78
1629795346390,7.73
1629795346406,8.44
1629795346421,8.87
1629795346437,9.08
1629795346453,9.18
1629795346468,9.31
1629795346484,9.52
1629795346500,9.8
1629795346515,10.02
1629795346531,10.06
1629795346546,9.86
1629795346562,9.42
1629795346578,8.82
1629795346593,8.18
1629795346609,7.62
1629795346625,7.24
1629795346640,7.03
1629795346656,6.95
1629795346671,6.84
1629795346687,6.55
1629795346703,5.93
1629795346718,4.94
1629795346734,3.57
1629795346750,1.9
1629795346765,0.06
1629795346781,-1.82
1629795346796,-3.6
1629795346812,-5.18
1629795346828,-6.46
1629795346843,-7.46
1629795346859,-8.28
1629795346875,-9.07
1629795346890,-9.96
1629795346906,-11.02
1629795346921,-12.21
1629795346937,-13.32
1629795346953,-14.15
1629795346968,-14.44
1629795346984,-14.03
1629795347000,-12.81
1629795347015,-10.75
1629795347031,-7.96
1629795347046,-4.67
1629795347062,-1.23
1629795347078,1.94
1629795347093,4.5
1629795347109,6.25
1629795347125,7.26
1629795347140,7.77
1629795347156,8.08
1629795347171,8.5
1629795347187,9.15
1629795347203,9.99
1629795347218,10.91
1629795347234,11.76
1629795347250,12.44
1629795347265,12.94
1629795347281,13.2
1629795347296,13.17
1629795347312,12.78
1629795347328,12.07
1629795347343,11.17
1629795347359,10.26
1629795347375,9.51
1629795347390,8.97
1629795347406,8.57
1629795347421,8.08
1629795347437,7.26
1629795347453,5.96
1629795347468,4.13
1629795347484,1.8
1629795347500,-0.83
1629795347515,-3.59
1629795347531,-6.24
1629795347546,-8.58
1629795347562,-10.4
1629795347578,-11.56
1629795347593,-12.02
1629795347609,-11.85
1629795347625,-11.26
1629795347640,-10.49
1629795347656,-9.84
1629795347671,-9.53
1629795347687,-9.7
1629795347703,-10.29
1629795347718,-11.1
1629795347734,-11.77
1629795347750,-11.94
1629795347765,-11.33
1629795347781,-9.82
1629795347796,-7.5
1629795347812,-4.63
1629795347828,-1.56
1629795347843,1.39
1629795347859,3.97
1629795347875,6.01
1629795347890,7.44
1629795347906,8.25
1629795347921,8.58
1629795347937,8.68
1629795347953,8.81
1629795347968,9.17
1629795347984,9.76
1629795348000,10.43
1629795348015,10.91
1629795348031,11.0
1629795348046,10.65
1629795348062,9.96
1629795348078,9.15
1629795348093,8.43
1629795348109,7.9
1629795348125,7.56
1629795348140,7.35
1629795348156,7.18
1629795348171,6.98
1629795348187,6.73
1629795348203,6.4
1629795348218,5.93
1629795348234,5.3
1629795348250,4.45
1629795348265,3.45
1629795348281,2.38
1629795348296,1.39
1629795348312,0.57
1629795348328,-0.06
1629795348343,-0.58
1629795348359,-1.14
1629795348375,-1.85
1629795348390,-2.8
1629795348406,-3.91
1629795348421,-5.15
1629795348437,-6.45
1629795348453,-7.76
1629795348468,-8.98
1629795348484,-9.93
1629795348500,-10.39
1629795348515,-10.14
1629795348531,-9.17
1629795348546,-7.57
1629795348562,-5.58
1629795348578,-3.51
1629795348593,-1.62
1629795348609,-0.05
1629795348625,1.09
1629795348640,1.87
1629795348656,2.43
1629795348671,2.96
1629795348687,3.65
1629795348703,4.68
1629795348718,6.07
1629795348734,7.72
1629795348750,9.37
1629795348765,10.69
1629795348781,11.45
1629795348796,11.63
1629795348812,11.36
1629795348828,10.88
1629795348843,10.4
1629795348859,10.04
1629795348875,9.77
1629795348890,9.54
1629795348906,9.3
1629795348921,8.99
1629795348937,8.61
1629795348953,8.12
1629795348968,7.55
1629795348984,7.02
1629795349000,6.87
1629795349015,7.44
1629795349031,8.89
1629795349046,10.97
1629795349062,12.93
1629795349078,13.92
1629795349093,13.23
1629795349109,10.78
1629795349125,7.01
1629795349140,2.65
1629795349156,-1.67
1629795349171,-5.7
1629795349187,-9.57
1629795349203,-13.47
1629795349218,-17.36
1629795349234,-20.94
1629795349250,-23.65
1629795349265,-25.0
1629795349281,-24.79
1629795349296,-23.07
1629795349312,-20.13
1629795349328,-16.41
1629795349343,-12.37
1629795349359,-8.36
1629795349375,-4.58
1629795349390,-1.01
1629795349406,2.57
1629795349421,6.36
1629795349437,10.39
1629795349453,14.36
1629795349468,17.74
1629795349484,19.92
1629795349500,20.6
1629795349515,19.94
1629795349531,18.45
1629795349546,16.78
1629795349562,15.33
1629795349578,14.16
1629795349593,13.01
1629795349609,11.63
1629795349625,9.9
1629795349640,8.06
1629795349656,6.52
1629795349671,5.63
1629795349687,5.52
1629795349703,6.0
1629795349718,6.71
1629795349734,7.21
1629795349750,7.29
1629795349765,6.88
1629795349781,6.07
1629795349796,5.05
1629795349812,3.98
1629795349828,2.97
1629795349843,2.02
1629795349859,1.16
1629795349875,0.32
1629795349890,-0.53
1629795349906,-1.48
1629795349921,-2.59
1629795349937,-3.87
1629795349953,-5.34
1629795349968,-6.99
1629795349984,-8.81
1629795350000,-10.84
1629795350015,-13.04
1629795350031,-15.22
1629795350046,-17.12
1629795350062,-18.31
1629795350078,-18.4
1629795350093,-17.28
1629795350109,-15.05
1629795350125,-12.16
1629795350140,-9.15
1629795350156,-6.49
1629795350171,-4.34
1629795350187,-2.64
1629795350203,-1.14
1629795350218,0.41
1629795350234,2.13
1629795350250,4.0
1629795350265,5.88
1629795350281,7.61
1629795350296,9.03
1629795350312,10.01
1629795350328,10.5
1629795350343,10.5
1629795350359,10.14
1629795350375,9.57
1629795350390,9.07
1629795350406,8.86
1629795350421,9.09
1629795350437,9.77
1629795350453,10.74
1629795350468,11.75
1629795350484,12.57
1629795350500,12.97
1629795350515,12.81
1629795350531,12.07
1629795350546,10.75
1629795350562,8.92
1629795350578,6.74
1629795350593,4.37
1629795350609,2.06
1629795350625,-0.07
1629795350640,-1.93
1629795350656,-3.57
1629795350671,-5.03
1629795350687,-6.34
1629795350703,-7.49
1629795350718,-8.36
1629795350734,-8.9
1629795350750,-9.1
1629795350765,-9.18
1629795350781,-9.41
1629795350796,-10.09
1629795350812,-11.38
1629795350828,-13.22
1629795350843,-15.33
1629795350859,-17.29
1629795350875,-18.69
1629795350890,-19.28
1629795350906,-18.89
1629795350921,-17.54
1629795350937,-15.41
1629795350953,-12.72
1629795350968,-9.75
1629795350984,-6.75
1629795351000,-3.93
1629795351015,-1.37
1629795351031,0.84
1629795351046,2.7
1629795351062,4.12
1629795351078,5.08
1629795351093,5.44
1629795351109,5.21
1629795351125,4.39
1629795351140,3.09
1629795351156,1.57
1629795351171,0.03
1629795351187,-1.28
1629795351203,-2.31
1629795351218,-3.14
1629795351234,-4.0
1629795351250,-5.14
1629795351265,-6.77
1629795351281,-8.88
1629795351296,-11.34
1629795351312,-13.83
1629795351328,-16.08
1629795351343,-17.86
1629795351359,-18.98
1629795351375,-19.27
1629795351390,-18.55
1629795351406,-16.66
1629795351421,-13.57
1629795351437,-9.44
1629795351453,-4.65
1629795351468,0.37
1629795351484,5.16
1629795351500,9.35
1629795351515,12.78
1629795351531,15.32
1629795351546,16.96
1629795351562,17.65
1629795351578,17.43
1629795351593,16.37
1629795351609,14.58
1629795351625,12.26
1629795351640,9.61
1629795351656,6.92
1629795351671,4.48
1629795351687,2.6
1629795351703,1.45
1629795351718,1.13
1629795351734,1.55
1629795351750,2.5
1629795351765,3.73
1629795351781,4.96
1629795351796,5.91
1629795351812,6.29
1629795351828,5.93
1629795351843,4.71
1629795351859,2.77
1629795351875,0.43
1629795351890,-1.85
1629795351906,-3.62
1629795351921,-4.59
1629795351937,-4.73
1629795351953,-4.29
1629795351968,-3.54
1629795351984,-2.74
1629795352000,-1.96
1629795352015,-1.06
1629795352031,0.13
1629795352046,1.76
1629795352062,3.8
1629795352078,6.06
1629795352093,8.15
1629795352109,9.76
1629795352125,10.68
1629795352140,10.93
1629795352156,10.7
1629795352171,10.23
1629795352187,9.66
1629795352203,9.01
1629795352218,8.1
1629795352234,6.73
1629795352250,4.82
1629795352265,2.47
1629795352281,-0.04
1629795352296,-2.36
1629795352312,-4.22
1629795352328,-5.54
1629795352343,-6.44
1629795352359,-7.18
1629795352375,-8.0
1629795352390,-9.05
1629795352406,-10.28
1629795352421,-11.5
1629795352437,-12.47
1629795352453,-13.05
1629795352468,-13.11
1629795352484,-12.61
1629795352500,-11.46
1629795352515,-9.62
1629795352531,-7.14
1629795352546,-4.21
1629795352562,-1.17
1629795352578,1.53
1629795352593,3.49
1629795352609,4.57
1629795352625,4.84
1629795352640,4.61
1629795352656,4.21
1629795352671,3.9
1629795352687,3.79
1629795352703,3.91
1629795352718,4.27
1629795352734,4.82
1629795352750,5.46
1629795352765,6.05
1629795352781,6.46
1629795352796,6.58
1629795352812,6.48
1629795352828,6.29
1629795352843,6.18
1629795352859,6.23
1629795352875,6.42
1629795352890,6.62
1629795352906,6.62
1629795352921,6.31
1629795352937,5.61
1629795352953,4.51
1629795352968,3.08
1629795352984,1.39
1629795353000,-0.4
1629795353015,-2.12
1629795353031,-3.59
1629795353046,-4.75
1629795353062,-5.62
1629795353078,-6.35
1629795353093,-7.08
1629795353109,-7.94
1629795353125,-8.99
1629795353140,-10.21
1629795353156,-11.5
1629795353171,-12.74
1629795353187,-13.77
1629795353203,-14.35
1629795353218,-14.3
1629795353234,-13.46
1629795353250,-11.81
1629795353265,-9.51
1629795353281,-6.83
1629795353296,-4.13
1629795353312,-1.75
1629795353328,0.12
1629795353343,1.42
1629795353359,2.21
1629795353375,2.6
1629795353390,2.74
1629795353406,2.76
1629795353421,2.78
1629795353437,2.86
1629795353453,2.99
1629795353468,3.14
1629795353484,3.21
1629795353500,3.16
1629795353515,3.02
1629795353531,2.88
1629795353546,2.92
1629795353562,3.3
1629795353578,4.15
1629795353593,5.41
1629795353609,6.89
1629795353625,8.24
1629795353640,9.08
1629795353656,9.18
1629795353671,8.53
1629795353687,7.24
1629795353703,5.56
1629795353718,3.73
1629795353734,1.94
1629795353750,0.28
1629795353765,-1.23
1629795353781,-2.54
1629795353796,-3.64
1629795353812,-4.59
1629795353828,-5.59
1629795353843,-6.83
1629795353859,-8.46
1629795353875,-10.47
1629795353890,-12.53
1629795353906,-14.21
1629795353921,-15.02
1629795353937,-14.62
1629795353953,-12.97
1629795353968,-10.29
1629795353984,-7.06
1629795354000,-3.81
1629795354015,-1.06
1629795354031,0.88
1629795354046,1.83
1629795354062,1.85
1629795354078,1.19
1629795354093,0.26
1629795354109,-0.57
1629795354125,-1.04
1629795354140,-1.12
1629795354156,-1.07
1629795354171,-1.23
1629795354187,-1.91
1629795354203,-3.18
1629795354218,-4.86
1629795354234,-6.57
1629795354250,-7.9
1629795354265,-8.54
1629795354281,-8.39
1629795354296,-7.55
1629795354312,-6.12
1629795354328,-4.33
1629795354343,-2.34
1629795354359,-0.4
1629795354375,1.18
1629795354390,2.12
1629795354406,2.15
1629795354421,1.23
1629795354437,-0.51
1629795354453,-2.67
1629795354468,-4.79
1629795354484,-6.4
1629795354500,-7.24
1629795354515,-7.33
1629795354531,-6.98
1629795354546,-6.62
1629795354562,-6.61
1629795354578,-7.19
1629795354593,-8.26
1629795354609,-9.59
1629795354625,-10.84
1629795354640,-11.73
1629795354656,-12.0
1629795354671,-11.55
1629795354687,-10.31
1629795354703,-8.29
1629795354718,-5.66
1629795354734,-2.7
1629795354750,0.24
1629795354765,2.81
1629795354781,4.84
1629795354796,6.26
1629795354812,7.12
1629795354828,7.42
1629795354843,7.09
1629795354859,6.06
1629795354875,4.32
1629795354890,2.12
1629795354906,-0.14
1629795354921,-1.99
1629795354937,-3.13
1629795354953,-3.47
1629795354968,-3.21
1629795354984,-2.71
1629795355000,-2.34
1629795355015,-2.27
1629795355031,-2.44
1629795355046,-2.64
1629795355062,-2.56
1629795355078,-2.0
1629795355093,-0.86
1629795355109,0.75
1629795355125,2.6
1629795355140,4.37
1629795355156,5.77
1629795355171,6.61
1629795355187,6.83
1629795355203,6.51
1629795355218,5.76
1629795355234,4.77
1629795355250,3.64
1629795355265,2.45
1629795355281,1.18
1629795355296,-0.22
1629795355312,-1.78
1629795355328,-3.45
1629795355343,-5.14
1629795355359,-6.76
1629795355375,-8.2
1629795355390,-9.37
1629795355406,-10.12
1629795355421,-10.34
1629795355437,-9.91
1629795355453,-8.76
1629795355468,-6.93
1629795355484,-4.56
1629795355500,-1.91
1629795355515,0.71
1629795355531,3.02
1629795355546,4.85
1629795355562,6.07
1629795355578,6.69
1629795355593,6.8
1629795355609,6.56
1629795355625,6.16
1629795355640,5.79
1629795355656,5.59
1629795355671,5.61
1629795355687,5.86
1629795355703,6.27
1629795355718,6.73
1629795355734,7.06
1629795355750,7.06
1629795355765,6.63
1629795355781,5.78
1629795355796,4.56
1629795355812,3.12
1629795355828,1.59
1629795355843,0.06
1629795355859,-1.39
1629795355875,-2.78
1629795355890,-4.09
1629795355906,-5.23
1629795355921,-6.18
1629795355937,-6.92
1629795355953,-7.53
1629795355968,-8.07
1629795355984,-8.59
1629795356000,-9.03
1629795356015,-9.31
1629795356031,-9.38
1629795356046,-9.23
1629795356062,-8.86
1629795356078,-8.3
1629795356093,-7.58
1629795356109,-6.62
1629795356125,-5.37
1629795356140,-3.75
1629795356156,-1.79
1629795356171,0.43
1629795356187,2.8
1629795356203,5.16
1629795356218,7.36
1629795356234,9.24
1629795356250,10.63
1629795356265,11.42
1629795356281,11.65
1629795356296,11.44
1629795356312,10.94
1629795356328,10.34
1629795356343,9.78
1629795356359,9.4
1629795356375,9.26
1629795356390,9.4
1629795356406,9.76
1629795356421,10.27
1629795356437,10.74
1629795356453,11.0
1629795356468,10.95
1629795356484,10.6
1629795356500,10.09
1629795356515,9.64
1629795356531,9.36
1629795356546,9.21
1629795356562,9.05
1629795356578,8.64
1629795356593,7.86
1629795356609,6.65
1629795356625,5.08
1629795356640,3.3
1629795356656,1.46
1629795356671,-0.37
1629795356687,-2.17
1629795356703,-3.92
1629795356718,-5.64
1629795356734,-7.28
1629795356750,-8.84
1629795356765,-10.34
1629795356781,-11.76
1629795356796,-13.04
1629795356812,-14.01
1629795356828,-14.42
1629795356843,-13.9
1629795356859,-12.29
1629795356875,-9.57
1629795356890,-6.04
1629795356906,-2.23
1629795356921,1.31
1629795356937,4.09
1629795356953,5.88
1629795356968,6.68
1629795356984,6.74
1629795357000,6.42
1629795357015,6.13
1629795357031,6.2
1629795357046,6.74
1629795357062,7.68
1629795357078,8.67
1629795357093,9.31
1629795357109,9.32
1629795357125,8.64
1629795357140,7.59
1629795357156,6.71
1629795357171,6.46
1629795357187,7.07
1629795357203,8.41
1629795357218,10.07
1629795357234,11.59
1629795357250,12.64
1629795357265,13.02
1629795357281,12.69
1629795357296,11.6
1629795357312,9.69
1629795357328,6.97
1629795357343,3.72
1629795357359,0.44
1629795357375,-2.18
1629795357390,-3.65
1629795357406,-3.91
1629795357421,-3.38
1629795357437,-2.77
1629795357453,-2.67
1629795357468,-3.29
1629795357484,-4.36
1629795357500,-5.38
1629795357515,-5.94
1629795357531,-5.97
1629795357546,-5.77
1629795357562,-5.72
1629795357578,-6.09
1629795357593,-6.78
1629795357609,-7.45
1629795357625,-7.73
1629795357640,-7.47
1629795357656,-6.78
1629795357671,-6.0
1629795357687,-5.51
1629795357703,-5.43
1629795357718,-5.6
1629795357734,-5.64
1629795357750,-5.15
1629795357765,-4.05
1629795357781,-2.49
1629795357796,-0.84
1629795357812,0.53
1629795357828,1.41
1629795357843,1.83
1629795357859,2.0
1629795357875,2.21
1629795357890,2.61
1629795357906,3.19
1629795357921,3.85
1629795357937,4.44
1629795357953,4.86
1629795357968,5.11
1629795357984,5.3
1629795358000,5.52
1629795358015,5.81
1629795358031,6.07
1629795358046,6.14
1629795358062,5.87
1629795358078,5.15
1629795358093,4.04
1629795358109,2.69
1629795358125,1.3
1629795358140,0.01
1629795358156,-1.02
1629795358171,-1.65
1629795358187,-1.84
1629795358203,-1.57
1629795358218,-1.06
1629795358234,-0.67
1629795358250,-0.82
1629795358265,-1.9
1629795358281,-4.04
1629795358296,-7.12
1629795358312,-10.76
1629795358328,-14.52
1629795358343,-17.98
1629795358359,-20.8
1629795358375,-22.71
1629795358390,-23.47
1629795358406,-22.94
1629795358421,-21.09
1629795358437,-18.06
1629795358453,-14.23
1629795358468,-10.1
1629795358484,-6.21
1629795358500,-2.95
1629795358515,-0.47
1629795358531,1.36
1629795358546,2.78
1629795358562,4.09
1629795358578,5.44
1629795358593,6.79
1629795358609,7.98
1629795358625,8.8
1629795358640,9.12
1629795358656,9.01
1629795358671,8.66
1629795358687,8.27
1629795358703,8.06
1629795358718,8.07
1629795358734,8.22
1629795358750,8.34
1629795358765,8.26
1629795358781,7.95
1629795358796,7.48
1629795358812,6.99
1629795358828,6.57
1629795358843,6.17
1629795358859,5.63
1629795358875,4.72
1629795358890,3.29
1629795358906,1.38
1629795358921,-0.84
1629795358937,-3.06
1629795358953,-5.09
1629795358968,-6.77
1629795358984,-8.1
1629795359000,-8.97
1629795359015,-9.33
1629795359031,-9.18
1629795359046,-8.62
1629795359062,-7.94
1629795359078,-7.51
1629795359093,-7.6
1629795359109,-8.22
1629795359125,-9.06
1629795359140,-9.61
1629795359156,-9.39
1629795359171,-8.21
1629795359187,-6.17
1629795359203,-3.7
1629795359218,-1.29
1629795359234,0.64
1629795359250,1.89
1629795359265,2.42
1629795359281,2.38
1629795359296,2.02
1629795359312,1.55
1629795359328,1.24
1629795359343,1.23
1629795359359,1.6
1629795359375,2.31
1629795359390,3.24
1629795359406,4.23
1629795359421,5.1
1629795359437,5.72
1629795359453,5.99
1629795359468,6.01
1629795359484,5.95
1629795359500,6.05
1629795359515,6.68
1629795359531,7.99
1629795359546,10.03
1629795359562,12.53
1629795359578,15.06
1629795359593,17.12
1629795359609,18.43
1629795359625,18.92
1629795359640,18.72
1629795359656,18.12
1629795359671,17.28
1629795359687,16.27
1629795359703,15.04
1629795359718,13.51
1629795359734,11.53
1629795359750,9.05
1629795359765,6.08
1629795359781,2.69
1629795359796,-0.88
1629795359812,-4.36
1629795359828,-7.4
1629795359843,-9.79
1629795359859,-11.53
1629795359875,-12.86
1629795359890,-14.02
1629795359906,-15.2
1629795359921,-16.33
1629795359937,-17.11
1629795359953,-17.2
1629795359968,-16.25
1629795359984,-14.2
1629795360000,-11.22
1629795360015,-7.69
1629795360031,-4.03
1629795360046,-0.68
1629795360062,2.11
1629795360078,4.28
1629795360093,5.92
1629795360109,7.19
1629795360125,8.25
1629795360140,9.18
1629795360156,9.93
1629795360171,10.41
1629795360187,10.51
1629795360203,10.22
1629795360218,9.63
1629795360234,8.89
1629795360250,8.14
1629795360265,7.46
1629795360281,6.93
1629795360296,6.61
1629795360312,6.56
1629795360328,6.82
1629795360343,7.39
1629795360359,8.28
1629795360375,9.31
1629795360390,10.3
1629795360406,11.04
1629795360421,11.42
1629795360437,11.41
1629795360453,11.11
1629795360468,10.64
1629795360484,10.14
1629795360500,9.67
1629795360515,9.19
1629795360531,8.56
1629795360546,7.6
1629795360562,6.11
1629795360578,4.03
1629795360593,1.36
1629795360609,-1.81
1629795360625,-5.35
1629795360640,-9.11
1629795360656,-13.03
1629795360671,-17.03
1629795360687,-21.06
1629795360703,-25.02
1629795360718,-28.77
1629795360734,-32.07
1629795360750,-34.62
1629795360765,-36.16
1629795360781,-36.38
1629795360796,-35.17
1629795360812,-32.52
1629795360828,-28.69
1629795360843,-24.04
1629795360859,-19.07
1629795360875,-14.24
1629795360890,-9.87
1629795360906,-6.13
1629795360921,-2.98
1629795360937,-0.3
1629795360953,2.14
1629795360968,4.42
1629795360984,6.58
1629795361000,8.56
1629795361015,10.23
1629795361031,11.44
1629795361046,12.12
1629795361062,12.29
1629795361078,12.07
1629795361093,11.75
1629795361109,11.6
1629795361125,11.88
1629795361140,12.73
1629795361156,14.11
1629795361171,15.79
1629795361187,17.42
1629795361203,18.67
1629795361218,19.24
1629795361234,19.01
1629795361250,17.96
1629795361265,16.23
1629795361281,14.02
1629795361296,11.59
1629795361312,9.17
1629795361328,6.92
1629795361343,4.92
1629795361359,3.16
1629795361375,1.55
1629795361390,-0.04
1629795361406,-1.69
1629795361421,-3.45
1629795361437,-5.33
1629795361453,-7.29
1629795361468,-9.31
1629795361484,-11.4
1629795361500,-13.53
1629795361515,-15.65
1629795361531,-17.67
1629795361546,-19.37
1629795361562,-20.49
1629795361578,-20.82
1629795361593,-20.18
1629795361609,-18.62
1629795361625,-16.35
1629795361640,-13.71
1629795361656,-11.09
1629795361671,-8.87
1629795361687,-7.19
1629795361703,-5.97
1629795361718,-4.92
1629795361734,-3.67
1629795361750,-1.98
1629795361765,0.14
1629795361781,2.52
1629795361796,4.9
1629795361812,7.02
1629795361828,8.78
1629795361843,10.14
1629795361859,11.13
1629795361875,11.75
1629795361890,11.97
1629795361906,11.82
1629795361921,11.4
1629795361937,10.91
1629795361953,10.58
1629795361968,10.53
1629795361984,10.73
1629795362000,11.0
1629795362015,11.1
1629795362031,10.79
1629795362046,9.9
1629795362062,8.41
1629795362078,6.38
1629795362093,3.96
1629795362109,1.52
1629795362125,-0.62
1629795362140,-2.16
1629795362156,-3.08
1629795362171,-3.58
1629795362187,-4.07
1629795362203,-4.83
1629795362218,-5.91
1629795362234,-7.0
1629795362250,-7.6
1629795362265,-7.41
1629795362281,-6.49
1629795362296,-5.36
1629795362312,-4.79
1629795362328,-5.43
1629795362343,-7.49
1629795362359,-10.59
1629795362375,-13.89
1629795362390,-16.32
1629795362406,-17.0
1629795362421,-15.5
1629795362437,-12.02
1629795362453,-7.38
1629795362468,-2.77
1629795362484,0.53
1629795362500,1.58
1629795362515,0.06
1629795362531,-3.6
1629795362546,-8.38
1629795362562,-12.95
1629795362578,-16.09
1629795362593,-17.19
1629795362609,-16.39
1629795362625,-14.62
1629795362640,-13.17
1629795362656,-13.19
1629795362671,-15.05
1629795362687,-18.23
1629795362703,-21.4
1629795362718,-23.05
1629795362734,-22.18
1629795362750,-18.69
1629795362765,-13.38
1629795362781,-7.46
1629795362796,-2.0
1629795362812,2.5
1629795362828,6.09
1629795362843,9.13
1629795362859,11.85
1629795362875,14.08
1629795362890,15.47
1629795362906,15.63
1629795362921,14.52
1629795362937,12.44
1629795362953,9.99
1629795362968,7.7
1629795362984,5.92
1629795363000,4.64
1629795363015,3.6
1629795363031,2.51
1629795363046,1.23
1629795363062,-0.11
1629795363078,-1.24
1629795363093,-1.88
1629795363109,-2.03
1629795363125,-1.95
1629795363140,-2.18
1629795363156,-3.2
1629795363171,-5.22
1629795363187,-7.96
1629795363203,-10.67
1629795363218,-12.45
1629795363234,-12.52
1629795363250,-10.65
1629795363265,-7.22
1629795363281,-3.05
1629795363296,0.89
1629795363312,3.84
1629795363328,5.51
1629795363343,6.05
1629795363359,5.93
1629795363375,5.66
1629795363390,5.62
1629795363406,5.88
1629795363421,6.37
1629795363437,6.82
1629795363453,7.04
1629795363468,6.88
1629795363484,6.36
1629795363500,5.61
1629795363515,4.89
1629795363531,4.48
1629795363546,4.57
1629795363562,5.22
1629795363578,6.27
1629795363593,7.41
1629795363609,8.29
1629795363625,8.66
1629795363640,8.42
1629795363656,7.67
1629795363671,6.68
1629795363687,5.72
1629795363703,5.05
1629795363718,4.78
1629795363734,4.9
1629795363750,5.21
1629795363765,5.42
1629795363781,5.2
1629795363796,4.39
1629795363812,2.89
1629795363828,0.76
1629795363843,-1.78
1629795363859,-4.51
1629795363875,-7.2
1629795363890,-9.69
1629795363906,-11.9
1629795363921,-13.86
1629795363937,-15.57
1629795363953,-17.06
1629795363968,-18.24
1629795363984,-18.89
1629795364000,-18.85
1629795364015,-18.01
1629795364031,-16.38
1629795364046,-14.18
1629795364062,-11.64
1629795364078,-8.93
1629795364093,-6.1
1629795364109,-3.12
1629795364125,0.02
1629795364140,3.17
1629795364156,6.01
1629795364171,8.25
1629795364187,9.72
1629795364203,10.48
1629795364218,10.81
1629795364234,10.98
1629795364250,11.17
1629795364265,11.43
1629795364281,11.63
1629795364296,11.68
1629795364312,11.58
1629795364328,11.38
1629795364343,11.15
1629795364359,10.93
1629795364375,10.67
1629795364390,10.27
1629795364406,9.68
1629795364421,8.86
1629795364437,7.88
1629795364453,6.86
1629795364468,5.89
1629795364484,4.99
1629795364500,4.15
1629795364515,3.23
1629795364531,2.18
1629795364546,1.01
1629795364562,-0.17
1629795364578,-1.27
1629795364593,-2.27
1629795364609,-3.31
1629795364625,-4.61
1629795364640,-6.29
1629795364656,-8.32
1629795364671,-10.42
1629795364687,-12.26
1629795364703,-13.5
1629795364718,-14.0
1629795364734,-13.76
1629795364750,-12.89
1629795364765,-11.49
1629795364781,-9.57
1629795364796,-7.18
1629795364812,-4.45
1629795364828,-1.61
1629795364843,1.07
1629795364859,3.39
1629795364875,5.27
1629795364890,6.79
1629795364906,8.12
1629795364921,9.37
1629795364937,10.6
1629795364953,11.71
1629795364968,12.61
1629795364984,13.25
1629795365000,13.66
1629795365015,13.87
1629795365031,13.98
1629795365046,14.01
1629795365062,13.98
1629795365078,13.92
1629795365093,13.9
1629795365109,13.98
1629795365125,14.15
1629795365140,14.32
1629795365156,14.31
1629795365171,13.96
1629795365187,13.21
1629795365203,12.14
1629795365218,10.9
1629795365234,9.61
1629795365250,8.27
1629795365265,6.78
1629795365281,5.01
1629795365296,2.9
1629795365312,0.53
1629795365328,-1.96
1629795365343,-4.44
1629795365359,-6.86
1629795365375,-9.27
1629795365390,-11.75
1629795365406,-14.29
1629795365421,-16.83
1629795365437,-19.2
1629795365453,-21.16
1629795365468,-22.42
1629795365484,-22.74
1629795365500,-21.9
1629795365515,-19.87
1629795365531,-16.88
1629795365546,-13.33
1629795365562,-9.75
1629795365578,-6.61
1629795365593,-4.08
1629795365609,-2.05
1629795365625,-0.27
1629795365640,1.59
1629795365656,3.69
1629795365671,5.97
1629795365687,8.23
1629795365703,10.25
1629795365718,11.88
1629795365734,13.12
1629795365750,14.15
1629795365765,15.16
1629795365781,16.36
1629795365796,17.9
1629795365812,19.72
1629795365828,21.68
1629795365843,23.49
1629795365859,24.82
1629795365875,25.32
1629795365890,24.67
1629795365906,22.64
1629795365921,19.24
1629795365937,14.77
1629795365953,9.81
1629795365968,5.14
1629795365984,1.36
1629795366000,-1.54
1629795366015,-4.25
1629795366031,-7.97
1629795366046,-13.73
1629795366062,-21.7
1629795366078,-30.87
1629795366093,-39.49
1629795366109,-45.75
1629795366125,-48.68
1629795366140,-48.56
1629795366156,-46.56
1629795366171,-44.01
1629795366187,-41.72
1629795366203,-39.68
1629795366218,-37.29
1629795366234,-34.04
1629795366250,-29.76
1629795366265,-24.81
1629795366281,-19.73
1629795366296,-14.86
1629795366312,-10.27
1629795366328,-5.79
1629795366343,-1.34
1629795366359,2.97
1629795366375,6.83
1629795366390,9.96
1629795366406,12.18
1629795366421,13.6
1629795366437,14.53
1629795366453,15.34
1629795366468,16.25
1629795366484,17.32
1629795366500,18.44
1629795366515,19.44
1629795366531,20.26
1629795366546,20.9
1629795366562,21.47
1629795366578,22.13
1629795366593,23.04
1629795366609,24.22
1629795366625,25.53
1629795366640,26.78
1629795366656,27.76
1629795366671,28.36
1629795366687,28.63
1629795366703,28.69
1629795366718,28.73
1629795366734,28.81
1629795366750,28.9
1629795366765,28.86
1629795366781,28.53
1629795366796,27.78
1629795366812,26.62
1629795366828,25.23
1629795366843,23.78
1629795366859,22.43
1629795366875,21.19
1629795366890,20.01
1629795366906,18.77
1629795366921,17.33
1629795366937,15.58
1629795366953,13.53
1629795366968,11.28
1629795366984,9.15
1629795367000,7.38
1629795367015,6.19
1629795367031,5.52
1629795367046,4.94
1629795367062,3.82
1629795367078,1.44
1629795367093,-2.6
1629795367109,-8.1
1629795367125,-14.1
1629795367140,-19.07
1629795367156,-21.24
1629795367171,-19.34
1629795367187,-13.13
1629795367203,-3.86
1629795367218,5.7
1629795367234,12.0
1629795367250,11.68
1629795367265,2.83
1629795367281,-14.21
1629795367296,-36.66
1629795367312,-60.16
1629795367328,-79.94
1629795367343,-92.34
1629795367359,-95.62
1629795367375,-90.17
1629795367390,-77.95
1629795367406,-61.64
1629795367421,-43.76
1629795367437,-26.22
1629795367453,-10.23
1629795367468,3.5
1629795367484,14.65
1629795367500,23.17
1629795367515,29.34
1629795367531,33.71
1629795367546,36.98
1629795367562,39.72
1629795367578,42.19
1629795367593,44.29
1629795367609,45.54
1629795367625,45.47
1629795367640,43.78
1629795367656,40.55
1629795367671,36.16
1629795367687,31.26
1629795367703,26.44
1629795367718,22.13
1629795367734,18.56
1629795367750,15.64
1629795367765,13.2
1629795367781,10.93
1629795367796,8.61
1629795367812,6.18
1629795367828,3.77
1629795367843,1.7
1629795367859,0.28
1629795367875,-0.34
1629795367890,-0.38
1629795367906,-0.34
1629795367921,-0.9
1629795367937,-2.65
1629795367953,-5.81
1629795367968,-10.21
1629795367984,-15.34
1629795368000,-20.49
1629795368015,-24.93
1629795368031,-28.06
1629795368046,-29.47
1629795368062,-29.04
1629795368078,-27.01
1629795368093,-23.84
1629795368109,-20.2
1629795368125,-16.74
1629795368140,-13.84
1629795368156,-11.46
1629795368171,-9.28
1629795368187,-6.79
1629795368203,-3.7
1629795368218,-0.03
1629795368234,3.94
1629795368250,7.76
1629795368265,11.03
1629795368281,13.54
1629795368296,15.25
1629795368312,16.24
1629795368328,16.64
1629795368343,16.66
1629795368359,16.53
1629795368375,16.46
1629795368390,16.7
1629795368406,17.36
1629795368421,18.46
1629795368437,19.86
1629795368453,21.26
1629795368468,22.36
1629795368484,22.85
1629795368500,22.59
1629795368515,21.62
1629795368531,20.16
1629795368546,18.45
1629795368562,16.73
1629795368578,14.96
1629795368593,13.02
1629795368609,10.67
1629795368625,7.8
1629795368640,4.44
1629795368656,0.86
1629795368671,-2.63
1629795368687,-5.76
1629795368703,-8.43
1629795368718,-10.64
1629795368734,-12.43
1629795368750,-13.9
1629795368765,-15.19
1629795368781,-16.5
1629795368796,-18.07
1629795368812,-20.11
1629795368828,-22.7
1629795368843,-25.71
1629795368859,-28.79
1629795368875,-31.4
1629795368890,-32.97
1629795368906,-33.04
1629795368921,-31.37
1629795368937,-28.05
1629795368953,-23.5
1629795368968,-18.35
1629795368984,-13.35
1629795369000,-9.11
1629795369015,-5.92
1629795369031,-3.74
1629795369046,-2.25
1629795369062,-1.06
1629795369078,0.13
1629795369093,1.51
1629795369109,3.13
1629795369125,5.02
1629795369140,7.17
1629795369156,9.46
1629795369171,11.65
1629795369187,13.41
1629795369203,14.4
1629795369218,14.46
1629795369234,13.72
1629795369250,12.54
1629795369265,11.38
1629795369281,10.53
1629795369296,10.02
1629795369312,9.62
1629795369328,8.98
1629795369343,7.82
1629795369359,5.99
1629795369375,3.56
1629795369390,0.83
1629795369406,-1.61
1629795369421,-3.05
1629795369437,-2.78
1629795369453,-0.46
1629795369468,3.56
1629795369484,8.31
1629795369500,12.38
1629795369515,14.54
1629795369531,14.18
1629795369546,11.59
1629795369562,7.58
1629795369578,3.13
1629795369593,-1.13
1629795369609,-5.14
1629795369625,-9.19
1629795369640,-13.68
1629795369656,-18.77
1629795369671,-24.31
1629795369687,-29.96
1629795369703,-35.31
1629795369718,-39.86
1629795369734,-43.21
1629795369750,-45.01
1629795369765,-44.94
1629795369781,-42.94
1629795369796,-39.22
1629795369812,-34.24
1629795369828,-28.75
1629795369843,-23.47
1629795369859,-18.9
1629795369875,-15.25
1629795369890,-12.41
1629795369906,-9.93
1629795369921,-7.34
1629795369937,-4.19
1629795369953,-0.17
1629795369968,4.7
1629795369984,10.19
1629795370000,15.81
1629795370015,20.88
1629795370031,24.77
1629795370046,27.15
1629795370062,28.14
1629795370078,28.32
1629795370093,28.61
1629795370109,29.74
1629795370125,31.96
1629795370140,34.8
1629795370156,37.18
1629795370171,37.93
1629795370187,36.37
1629795370203,32.45
1629795370218,26.92
1629795370234,20.88
1629795370250,15.27
1629795370265,10.58
1629795370281,6.75
1629795370296,3.39
1629795370312,0.1
1629795370328,-3.25
1629795370343,-6.6
1629795370359,-9.75
1629795370375,-12.5
1629795370390,-14.89
1629795370406,-17.07
1629795370421,-19.2
1629795370437,-21.37
1629795370453,-23.49
1629795370468,-25.23
1629795370484,-26.2
1629795370500,-25.95
1629795370515,-24.13
1629795370531,-20.72
1629795370546,-16.05
1629795370562,-10.74
1629795370578,-5.63
1629795370593,-1.42
1629795370609,1.57
1629795370625,3.38
1629795370640,4.44
1629795370656,5.21
1629795370671,6.01
1629795370687,6.78
1629795370703,7.25
1629795370718,7.1
1629795370734,6.25
1629795370750,4.98
1629795370765,3.73
1629795370781,2.98
1629795370796,3.0
1629795370812,3.74
1629795370828,4.89
1629795370843,6.08
1629795370859,6.95
1629795370875,7.43
1629795370890,7.55
1629795370906,7.38
1629795370921,7.01
1629795370937,6.52
1629795370953,5.91
1629795370968,5.2
1629795370984,4.42
1629795371000,3.58
1629795371015,2.63
1629795371031,1.61
1629795371046,0.54
1629795371062,-0.47
1629795371078,-1.32
1629795371093,-2.01
1629795371109,-2.63
1629795371125,-3.33
1629795371140,-4.26
1629795371156,-5.52
1629795371171,-6.99
1629795371187,-8.54
1629795371203,-10.01
1629795371218,-11.36
1629795371234,-12.61
1629795371250,-13.83
1629795371265,-15.08
1629795371281,-16.22
1629795371296,-17.09
1629795371312,-17.39
1629795371328,-16.88
1629795371343,-15.33
1629795371359,-12.84
1629795371375,-9.67
1629795371390,-6.19
1629795371406,-2.83
1629795371421,0.15
1629795371437,2.68
1629795371453,4.91
1629795371468,7.0
1629795371484,9.05
1629795371500,11.0
1629795371515,12.66
1629795371531,13.86
1629795371546,14.52
1629795371562,14.75
1629795371578,14.72
1629795371593,14.7
1629795371609,14.8
1629795371625,15.03
1629795371640,15.22
1629795371656,15.16
1629795371671,14.7
1629795371687,13.83
1629795371703,12.72
1629795371718,11.56
1629795371734,10.49
1629795371750,9.52
1629795371765,8.51
1629795371781,7.39
1629795371796,6.17
1629795371812,5.02
1629795371828,4.09
1629795371843,3.43
1629795371859,2.8
1629795371875,1.84
1629795371890,0.3
1629795371906,-1.84
1629795371921,-4.29
1629795371937,-6.59
1629795371953,-8.41
1629795371968,-9.74
1629795371984,-10.78
1629795372000,-11.78
1629795372015,-12.74
1629795372031,-13.37
1629795372046,-13.2
1629795372062,-11.85
1629795372078,-9.28
1629795372093,-5.8
1629795372109,-2.05
1629795372125,1.45
1629795372140,4.28
1629795372156,6.38
1629795372171,7.98
1629795372187,9.42
1629795372203,10.97
1629795372218,12.7
1629795372234,14.45
1629795372250,15.89
1629795372265,16.79
1629795372281,17.02
1629795372296,16.68
1629795372312,16.07
1629795372328,15.56
1629795372343,15.39
1629795372359,15.63
1629795372375,16.16
1629795372390,16.81
1629795372406,17.35
1629795372421,17.64
1629795372437,17.58
1629795372453,17.14
1629795372468,16.3
1629795372484,15.08
1629795372500,13.49
1629795372515,11.6
1629795372531,9.55
1629795372546,7.52
1629795372562,5.73
1629795372578,4.28
1629795372593,3.19
1629795372609,2.34
1629795372625,1.49
1629795372640,0.44
1629795372656,-1.04
1629795372671,-3.01
1629795372687,-5.42
1629795372703,-8.08
1629795372718,-10.8
1629795372734,-13.4
1629795372750,-15.78
1629795372765,-17.87
1629795372781,-19.57
1629795372796,-20.69
1629795372812,-21.01
1629795372828,-20.31
1629795372843,-18.45
1629795372859,-15.53
1629795372875,-11.86
1629795372890,-7.83
1629795372906,-3.86
1629795372921,-0.22
1629795372937,3.01
1629795372953,5.82
1629795372968,8.2
1629795372984,10.19
1629795373000,11.81
1629795373015,13.1
1629795373031,14.14
1629795373046,15.04
1629795373062,15.83
1629795373078,16.46
1629795373093,16.86
1629795373109,16.98
1629795373125,16.87
1629795373140,16.7
1629795373156,16.65
1629795373171,16.86
1629795373187,17.26
1629795373203,17.58
1629795373218,17.46
1629795373234,16.62
1629795373250,14.85
1629795373265,12.26
1629795373281,9.14
1629795373296,5.97
1629795373312,3.29
1629795373328,1.47
1629795373343,0.6
1629795373359,0.46
1629795373375,0.6
1629795373390,0.54
1629795373406,-0.08
1629795373421,-1.31
1629795373437,-2.95
1629795373453,-4.67
1629795373468,-6.22
1629795373484,-7.62
1629795373500,-9.06
1629795373515,-10.77
1629795373531,-12.89
1629795373546,-15.21
1629795373562,-17.29
1629795373578,-18.52
1629795373593,-18.41
1629795373609,-16.85
1629795373625,-14.17
1629795373640,-11.06
1629795373656,-8.24
1629795373671,-6.13
1629795373687,-4.67
1629795373703,-3.43
1629795373718,-1.91
1629795373734,0.14
1629795373750,2.35
1629795373765,3.95
1629795373781,4.13
1629795373796,2.45
1629795373812,-0.78
1629795373828,-4.62
1629795373843,-7.95
1629795373859,-9.96
1629795373875,-10.44
1629795373890,-9.83
1629795373906,-8.88
1629795373921,-8.23
1629795373937,-8.16
1629795373953,-8.53
1629795373968,-8.98
1629795373984,-9.22
1629795374000,-9.25
1629795374015,-9.25
1629795374031,-9.42
1629795374046,-9.7
1629795374062,-9.83
1629795374078,-9.38
1629795374093,-8.07
1629795374109,-5.94
1629795374125,-3.37
1629795374140,-1.0
1629795374156,0.62
1629795374171,1.15
1629795374187,0.64
1629795374203,-0.62
1629795374218,-2.24
1629795374234,-3.94
1629795374250,-5.67
1629795374265,-7.56
1629795374281,-9.72
1629795374296,-12.19
1629795374312,-14.74
1629795374328,-16.94
1629795374343,-18.29
1629795374359,-18.4
1629795374375,-17.1
1629795374390,-14.54
1629795374406,-11.06
1629795374421,-7.13
1629795374437,-3.24
1629795374453,0.26
1629795374468,3.13
1629795374484,5.29
1629795374500,6.85
1629795374515,8.02
1629795374531,9.02
1629795374546,10.0
1629795374562,10.94
1629795374578,11.73
1629795374593,12.32
1629795374609,12.76
1629795374625,13.23
1629795374640,13.95
1629795374656,15.07
1629795374671,16.51
1629795374687,18.07
1629795374703,19.4
1629795374718,20.23
1629795374734,20.44
1629795374750,20.04
1629795374765,19.22
1629795374781,18.24
1629795374796,17.27
1629795374812,16.41
1629795374828,15.63
1629795374843,14.71
1629795374859,13.44
1629795374875,11.64
1629795374890,9.25
1629795374906,6.42
1629795374921,3.46
1629795374937,0.71
1629795374953,-1.61
1629795374968,-3.37
1629795374984,-4.68
1629795375000,-5.78
1629795375015,-6.99
1629795375031,-8.58
1629795375046,-10.66
1629795375062,-13.11
1629795375078,-15.66
1629795375093,-17.99
1629795375109,-19.78
1629795375125,-20.87
1629795375140,-21.18
1629795375156,-20.68
1629795375171,-19.31
1629795375187,-17.07
1629795375203,-14.1
1629795375218,-10.79
1629795375234,-7.72
1629795375250,-5.55
1629795375265,-4.66
1629795375281,-5.1
1629795375296,-6.45
1629795375312,-8.11
1629795375328,-9.45
1629795375343,-10.09
1629795375359,-9.98
1629795375375,-9.3
1629795375390,-8.34
1629795375406,-7.33
1629795375421,-6.39
1629795375437,-5.39
1629795375453,-4.2
1629795375468,-2.62
1629795375484,-0.51
1629795375500,2.07
1629795375515,4.91
1629795375531,7.7
1629795375546,10.1
1629795375562,11.89
1629795375578,13.07
1629795375593,13.75
1629795375609,14.13
1629795375625,14.32
1629795375640,14.25
1629795375656,13.75
1629795375671,12.59
1629795375687,10.7
1629795375703,8.22
1629795375718,5.41
1629795375734,2.61
1629795375750,-0.02
1629795375765,-2.45
1629795375781,-4.79
1629795375796,-7.21
1629795375812,-9.87
1629795375828,-12.82
1629795375843,-15.97
1629795375859,-19.13
1629795375875,-22.05
1629795375890,-24.5
1629795375906,-26.2
1629795375921,-26.91
1629795375937,-26.33
1629795375953,-24.28
1629795375968,-20.71
1629795375984,-15.9
1629795376000,-10.47
1629795376015,-5.3
1629795376031,-1.22
1629795376046,1.33
1629795376062,2.54
1629795376078,3.14
1629795376093,4.05
1629795376109,5.94
1629795376125,8.89
1629795376140,12.35
1629795376156,15.55
1629795376171,17.85
1629795376187,19.09
1629795376203,19.54
1629795376218,19.61
1629795376234,19.54
1629795376250,19.29
1629795376265,18.59
1629795376281,17.19
1629795376296,15.13
1629795376312,12.67
1629795376328,10.15
1629795376343,7.74
1629795376359,5.35
1629795376375,2.81
1629795376390,0.04
1629795376406,-2.66
1629795376421,-4.77
1629795376437,-5.62
1629795376453,-4.84
1629795376468,-2.51
1629795376484,0.81
1629795376500,4.17
1629795376515,6.61
1629795376531,7.43
1629795376546,6.36
1629795376562,3.63
1629795376578,-0.18
1629795376593,-4.42
1629795376609,-8.55
1629795376625,-12.36
1629795376640,-15.97
1629795376656,-19.58
1629795376671,-23.38
1629795376687,-27.18
1629795376703,-30.38
1629795376718,-32.13
1629795376734,-31.7
1629795376750,-28.76
1629795376765,-23.58
1629795376781,-16.95
1629795376796,-9.87
1629795376812,-3.24
1629795376828,2.43
1629795376843,7.07
1629795376859,10.85
1629795376875,13.94
1629795376890,16.41
1629795376906,18.16
1629795376921,19.05
1629795376937,19.13
1629795376953,18.56
1629795376968,17.63
1629795376984,16.56
1629795377000,15.52
1629795377015,14.56
1629795377031,13.7
1629795377046,12.98
1629795377062,12.47
1629795377078,12.27
1629795377093,12.46
1629795377109,13.03
1629795377125,13.92
1629795377140,15.04
1629795377156,16.32
1629795377171,17.79
1629795377187,19.51
1629795377203,21.58
1629795377218,24.14
1629795377234,27.29
1629795377250,30.96
1629795377265,34.79
1629795377281,38.14
1629795377296,40.08
1629795377312,39.84
1629795377328,37.01
1629795377343,31.71
1629795377359,24.55
1629795377375,16.27
1629795377390,7.3
1629795377406,-2.65
1629795377421,-14.49
1629795377437,-29.35
1629795377453,-47.78
1629795377468,-69.19
1629795377484,-91.67
1629795377500,-112.42
1629795377515,-128.53
1629795377531,-137.79
1629795377546,-139.25
1629795377562,-133.3
1629795377578,-121.41
1629795377593,-105.57
1629795377609,-87.82
1629795377625,-69.85
1629795377640,-52.74
1629795377656,-36.97
1629795377671,-22.45
1629795377687,-8.87
1629795377703,4.11
1629795377718,16.48
1629795377734,27.95
1629795377750,37.99
1629795377765,46.21
1629795377781,52.49
1629795377796,56.89
1629795377812,59.48
1629795377828,60.13
1629795377843,58.67
1629795377859,55.05
1629795377875,49.83
1629795377890,44.15
1629795377906,39.52
1629795377921,37.17
1629795377937,37.35
1629795377953,39.08
1629795377968,40.34
1629795377984,38.89
1629795378000,32.97
1629795378015,21.89
1629795378031,6.01
1629795378046,-13.65
1629795378062,-35.6
1629795378078,-58.12
1629795378093,-79.07
1629795378109,-96.09
1629795378125,-106.85
1629795378140,-109.88
1629795378156,-105.09
1629795378171,-94.03
1629795378187,-79.44
1629795378203,-64.19
1629795378218,-50.34
1629795378234,-38.66
1629795378250,-28.95
1629795378265,-20.46
1629795378281,-12.64
1629795378296,-5.25
1629795378312,1.78
1629795378328,8.53
1629795378343,15.35
1629795378359,22.63
1629795378375,30.61
1629795378390,38.99
1629795378406,47.05
1629795378421,53.78
1629795378437,58.28
1629795378453,60.2
1629795378468,59.66
1629795378484,57.28
1629795378500,53.8
1629795378515,49.86
1629795378531,45.86
1629795378546,42.01
1629795378562,38.33
1629795378578,34.81
1629795378593,31.48
1629795378609,28.36
1629795378625,25.5
1629795378640,22.96
1629795378656,20.85
1629795378671,19.2
1629795378687,18.0
1629795378703,17.12
1629795378718,16.27
1629795378734,15.27
1629795378750,13.88
1629795378765,12.08
1629795378781,9.93
1629795378796,7.45
1629795378812,4.56
1629795378828,1.05
1629795378843,-3.23
1629795378859,-8.32
1629795378875,-13.8
1629795378890,-19.01
1629795378906,-23.1
1629795378921,-25.42
1629795378937,-25.77
1629795378953,-24.45
1629795378968,-22.1
1629795378984,-19.29
1629795379000,-16.32
1629795379015,-13.13
1629795379031,-9.55
1629795379046,-5.54
1629795379062,-1.4
1629795379078,2.31
1629795379093,5.07
1629795379109,6.63
1629795379125,7.1
1629795379140,6.86
1629795379156,6.25
1629795379171,5.54
1629795379187,4.81
1629795379203,4.08
1629795379218,3.28
1629795379234,2.37
1629795379250,1.26
1629795379265,-0.17
1629795379281,-1.95
1629795379296,-4.03
1629795379312,-6.09
1629795379328,-7.74
1629795379343,-8.56
1629795379359,-8.32
1629795379375,-7.04
1629795379390,-5.0
1629795379406,-2.66
1629795379421,-0.53
1629795379437,0.91
1629795379453,1.35
1629795379468,0.68
1629795379484,-1.02
1629795379500,-3.42
1629795379515,-6.08
1629795379531,-8.42
1629795379546,-9.94
1629795379562,-10.23
1629795379578,-9.1
1629795379593,-6.64
1629795379609,-3.3
1629795379625,0.3
1629795379640,3.47
1629795379656,5.73
1629795379671,6.94
1629795379687,7.3
1629795379703,7.24
1629795379718,7.19
1629795379734,7.36
1629795379750,7.69
1629795379765,7.96
1629795379781,7.95
1629795379796,7.65
1629795379812,7.25
1629795379828,7.12
1629795379843,7.57
1629795379859,8.67
1629795379875,10.18
1629795379890,11.61
1629795379906,12.41
1629795379921,12.18
1629795379937,10.91
1629795379953,8.85
1629795379968,6.41
1629795379984,4.06
1629795380000,2.11
1629795380015,0.63
1629795380031,-0.45
1629795380046,-1.41
1629795380062,-2.61
1629795380078,-4.44
1629795380093,-7.07
1629795380109,-10.45
1629795380125,-14.02
1629795380140,-16.85
1629795380156,-17.98
1629795380171,-16.73
1629795380187,-13.0
1629795380203,-7.38
1629795380218,-0.87
1629795380234,5.5
1629795380250,11.02
1629795380265,15.44
1629795380281,18.79
1629795380296,21.17
1629795380312,22.52
1629795380328,22.71
1629795380343,21.66
1629795380359,19.58
1629795380375,16.98
1629795380390,14.54
1629795380406,12.9
1629795380421,12.32
1629795380437,12.76
1629795380453,13.86
1629795380468,15.18
1629795380484,16.35
1629795380500,17.3
1629795380515,18.14
1629795380531,19.05
1629795380546,20.16
1629795380562,21.41
1629795380578,22.5
1629795380593,22.96
1629795380609,22.33
1629795380625,20.35
1629795380640,17.2
1629795380656,13.43
1629795380671,9.77
1629795380687,6.9
1629795380703,5.13
1629795380718,4.14
1629795380734,3.07
1629795380750,0.76
1629795380765,-3.83
1629795380781,-11.17
1629795380796,-20.89
1629795380812,-31.76
1629795380828,-42.02
1629795380843,-49.78
1629795380859,-53.52
1629795380875,-52.38
1629795380890,-46.35
1629795380906,-36.2
1629795380921,-23.33
1629795380937,-9.59
1629795380953,3.15
1629795380968,13.33
1629795380984,19.97
1629795381000,22.95
1629795381015,22.81
1629795381031,20.44
1629795381046,16.56
1629795381062,11.4
1629795381078,4.74
1629795381093,-3.67
1629795381109,-13.62
1629795381125,-24.1
1629795381140,-33.42
1629795381156,-39.78
1629795381171,-41.92
1629795381187,-39.62
1629795381203,-33.64
1629795381218,-25.3
1629795381234,-15.99
1629795381250,-6.77
1629795381265,1.64
1629795381281,8.69
1629795381296,13.83
1629795381312,16.55
1629795381328,16.56
1629795381343,14.05
1629795381359,9.78
1629795381375,4.86
1629795381390,0.4
1629795381406,-2.92
1629795381421,-4.89
1629795381437,-5.91
1629795381453,-6.63
1629795381468,-7.67
1629795381484,-9.4
1629795381500,-11.8
1629795381515,-14.48
1629795381531,-16.75
1629795381546,-17.91
1629795381562,-17.31
1629795381578,-14.68
1629795381593,-10.16
1629795381609,-4.25
1629795381625,2.32
1629795381640,8.81
1629795381656,14.6
1629795381671,19.3
1629795381687,22.79
1629795381703,25.2
1629795381718,26.83
1629795381734,28.11
1629795381750,29.54
1629795381765,31.54
1629795381781,34.34
1629795381796,37.77
1629795381812,41.38
1629795381828,44.58
1629795381843,46.9
1629795381859,48.28
1629795381875,49.08
1629795381890,49.95
1629795381906,51.43
1629795381921,53.72
1629795381937,56.54
1629795381953,59.25
1629795381968,61.11
1629795381984,61.51
1629795382000,60.11
1629795382015,56.88
1629795382031,51.99
1629795382046,45.82
1629795382062,38.88
1629795382078,31.76
1629795382093,24.83
1629795382109,18.1
1629795382125,11.11
1629795382140,3.06
1629795382156,-6.74
1629795382171,-18.45
1629795382187,-31.41
1629795382203,-44.3
1629795382218,-55.71
1629795382234,-64.68
1629795382250,-71.05
1629795382265,-75.35
1629795382281,-78.25
1629795382296,-80.05
1629795382312,-80.2
1629795382328,-77.39
1629795382343,-70.02
1629795382359,-56.92
1629795382375,-37.99
1629795382390,-14.54
1629795382406,10.89
1629795382421,35.16
1629795382437,55.26
1629795382453,69.15
1629795382468,76.19
1629795382484,77.04
1629795382500,73.16
1629795382515,66.25
1629795382531,57.65
1629795382546,48.25
1629795382562,38.66
1629795382578,29.53
1629795382593,21.52
1629795382609,15.23
1629795382625,10.89
1629795382640,8.21
1629795382656,6.44
1629795382671,4.67
1629795382687,2.27
1629795382703,-0.9
1629795382718,-4.41
1629795382734,-7.61
1629795382750,-9.87
1629795382765,-10.98
1629795382781,-11.14
1629795382796,-10.91
1629795382812,-10.97
1629795382828,-11.86
1629795382843,-13.83
1629795382859,-16.74
1629795382875,-20.23
1629795382890,-23.77
1629795382906,-26.9
1629795382921,-29.33
1629795382937,-30.98
1629795382953,-32.06
1629795382968,-32.92
1629795382984,-34.05
1629795383000,-36.01
1629795383015,-39.21
1629795383031,-43.76
1629795383046,-49.34
1629795383062,-55.17
1629795383078,-60.17
1629795383093,-63.26
1629795383109,-63.72
1629795383125,-61.39
1629795383140,-56.79
1629795383156,-50.83
1629795383171,-44.48
1629795383187,-38.46
1629795383203,-33.12
1629795383218,-28.47
1629795383234,-24.42
1629795383250,-20.9
1629795383265,-17.92
1629795383281,-15.55
1629795383296,-13.76
1629795383312,-12.36
1629795383328,-11.11
1629795383343,-9.81
1629795383359,-8.46
1629795383375,-7.28
1629795383390,-6.59
1629795383406,-6.62
1629795383421,-7.31
1629795383437,-8.39
1629795383453,-9.41
1629795383468,-9.99
1629795383484,-9.98
1629795383500,-9.41
1629795383515,-8.58
1629795383531,-7.73
1629795383546,-7.02
1629795383562,-6.49
1629795383578,-6.12
1629795383593,-5.87
1629795383609,-5.77
1629795383625,-5.84
1629795383640,-6.04
1629795383656,-6.31
1629795383671,-6.53
1629795383687,-6.62
1629795383703,-6.58
1629795383718,-6.53
1629795383734,-6.65
1629795383750,-7.13
1629795383765,-7.98
1629795383781,-9.0
1629795383796,-9.93
1629795383812,-10.48
1629795383828,-10.57
1629795383843,-10.29
1629795383859,-9.94
1629795383875,-9.85
1629795383890,-10.29
1629795383906,-11.36
1629795383921,-12.92
1629795383937,-14.65
1629795383953,-16.09
1629795383968,-16.78
1629795383984,-16.32
1629795384000,-14.47
1629795384015,-11.27
1629795384031,-7.06
1629795384046,-2.35
1629795384062,2.26
1629795384078,6.35
1629795384093,9.71
1629795384109,12.4
1629795384125,14.63
1629795384140,16.62
1629795384156,18.49
1629795384171,20.25
1629795384187,21.8
1629795384203,23.05
1629795384218,24.01
1629795384234,24.75
1629795384250,25.37
1629795384265,25.98
1629795384281,26.63
1629795384296,27.3
1629795384312,28.01
1629795384328,28.76
1629795384343,29.54
1629795384359,30.37
1629795384375,31.18
1629795384390,31.87
1629795384406,32.36
1629795384421,32.62
1629795384437,32.67
1629795384453,32.55
1629795384468,32.3
1629795384484,31.85
1629795384500,31.09
1629795384515,29.82
1629795384531,27.98
1629795384546,25.67
1629795384562,23.24
1629795384578,21.13
1629795384593,19.75
1629795384609,19.29
1629795384625,19.64
1629795384640,20.47
1629795384656,21.19
1629795384671,21.26
1629795384687,20.29
1629795384703,18.15
1629795384718,15.05
1629795384734,11.44
1629795384750,7.92
1629795384765,5.11
1629795384781,3.55
1629795384796,3.42
1629795384812,4.71
1629795384828,7.08
1629795384843,9.99
1629795384859,12.9
1629795384875,15.28
1629795384890,16.67
1629795384906,16.77
1629795384921,15.48
1629795384937,13.0
1629795384953,9.81
1629795384968,6.54
1629795384984,3.72
1629795385000,1.67
1629795385015,0.4
1629795385031,-0.4
1629795385046,-1.1
1629795385062,-2.08
1629795385078,-3.53
1629795385093,-5.48
1629795385109,-7.8
1629795385125,-10.21
1629795385140,-12.36
1629795385156,-13.84
1629795385171,-14.39
1629795385187,-13.99
1629795385203,-12.91
1629795385218,-11.57
1629795385234,-10.33
1629795385250,-9.29
1629795385265,-8.35
1629795385281,-7.23
1629795385296,-5.82
1629795385312,-4.16
1629795385328,-2.56
1629795385343,-1.39
1629795385359,-1.05
1629795385375,-1.8
1629795385390,-3.71
1629795385406,-6.66
1629795385421,-10.25
1629795385437,-13.93
1629795385453,-17.02
1629795385468,-18.89
1629795385484,-19.15
1629795385500,-17.81
1629795385515,-15.27
1629795385531,-12.17
1629795385546,-9.18
1629795385562,-6.8
1629795385578,-5.26
1629795385593,-4.46
1629795385609,-4.2
1629795385625,-4.16
1629795385640,-4.11
1629795385656,-3.86
1629795385671,-3.28
1629795385687,-2.19
1629795385703,-0.39
1629795385718,2.15
1629795385734,5.26
1629795385750,8.48
1629795385765,11.24
1629795385781,13.06
1629795385796,13.81
1629795385812,13.75
1629795385828,13.41
1629795385843,13.35
1629795385859,13.92
1629795385875,15.14
1629795385890,16.73
1629795385906,18.37
1629795385921,19.83
1629795385937,21.02
1629795385953,22.02
1629795385968,22.92
1629795385984,23.79
1629795386000,24.55
1629795386015,25.12
1629795386031,25.38
1629795386046,25.44
1629795386062,25.49
1629795386078,25.74
1629795386093,26.22
1629795386109,26.7
1629795386125,26.54
1629795386140,25.06
1629795386156,21.79
1629795386171,16.69
1629795386187,10.33
1629795386203,3.64
1629795386218,-2.51
1629795386234,-7.7
1629795386250,-12.1
1629795386265,-16.39
1629795386281,-21.37
1629795386296,-27.6
1629795386312,-35.23
1629795386328,-43.83
1629795386343,-52.47
1629795386359,-59.91
1629795386375,-64.86
1629795386390,-66.24
1629795386406,-63.54
1629795386421,-56.97
1629795386437,-47.45
1629795386453,-36.37
1629795386468,-25.17
1629795386484,-14.94
1629795386500,-6.32
1629795386515,0.57
1629795386531,5.72
1629795386546,9.2
1629795386562,11.05
1629795386578,11.35
1629795386593,10.41
1629795386609,8.81
1629795386625,7.28
1629795386640,6.48
1629795386656,6.82
1629795386671,8.3
1629795386687,10.52
1629795386703,12.88
1629795386718,14.79
1629795386734,15.88
1629795386750,16.12
1629795386765,15.72
1629795386781,15.02
1629795386796,14.28
1629795386812,13.6
1629795386828,12.86
1629795386843,11.98
1629795386859,11.01
1629795386875,10.09
1629795386890,9.49
1629795386906,9.31
1629795386921,9.41
1629795386937,9.51
1629795386953,9.41
1629795386968,9.11
1629795386984,8.84
1629795387000,8.93
1629795387015,9.49
1629795387031,10.27
1629795387046,10.82
1629795387062,10.71
1629795387078,9.74
1629795387093,7.98
1629795387109,5.65
1629795387125,2.89
1629795387140,-0.23
1629795387156,-3.78
1629795387171,-7.65
1629795387187,-11.54
1629795387203,-14.92
1629795387218,-17.22
1629795387234,-18.1
1629795387250,-17.53
1629795387265,-15.78
1629795387281,-13.26
1629795387296,-10.46
1629795387312,-7.8
1629795387328,-5.69
1629795387343,-4.42
1629795387359,-4.05
1629795387375,-4.48
1629795387390,-5.37
1629795387406,-6.36
1629795387421,-7.09
1629795387437,-7.49
1629795387453,-7.64
1629795387468,-7.8
1629795387484,-8.22
1629795387500,-9.04
1629795387515,-10.19
1629795387531,-11.41
1629795387546,-12.41
1629795387562,-12.83
1629795387578,-12.55
1629795387593,-11.6
1629795387609,-10.25
1629795387625,-8.89
1629795387640,-7.94
1629795387656,-7.67
1629795387671,-8.12
1629795387687,-9.13
1629795387703,-10.4
1629795387718,-11.63
1629795387734,-12.58
1629795387750,-13.16
1629795387765,-13.36
1629795387781,-13.26
1629795387796,-12.93
1629795387812,-12.39
1629795387828,-11.71
1629795387843,-11.0
1629795387859,-10.37
1629795387875,-9.95
1629795387890,-9.8
1629795387906,-9.84
1629795387921,-9.94
1629795387937,-9.85
1629795387953,-9.36
1629795387968,-8.3
1629795387984,-6.67
1629795388000,-4.52
1629795388015,-2.01
1629795388031,0.75
1629795388046,3.72
1629795388062,6.87
1629795388078,10.19
1629795388093,13.63
1629795388109,17.0
1629795388125,20.05
1629795388140,22.54
1629795388156,24.24
1629795388171,25.11
1629795388187,25.24
1629795388203,24.74
1629795388218,23.76
1629795388234,22.39
1629795388250,20.7
1629795388265,18.78
1629795388281,16.74
1629795388296,14.67
1629795388312,12.76
1629795388328,11.19
1629795388343,10.07
1629795388359,9.35
1629795388375,8.82
1629795388390,8.0
1629795388406,6.39
1629795388421,3.6
1629795388437,-0.44
1629795388453,-5.36
1629795388468,-10.56
1629795388484,-15.4
1629795388500,-19.44
1629795388515,-22.56
1629795388531,-24.86
1629795388546,-26.5
1629795388562,-27.71
1629795388578,-28.73
1629795388593,-29.78
1629795388609,-31.19
1629795388625,-33.14
1629795388640,-35.63
1629795388656,-38.45
1629795388671,-41.24
1629795388687,-43.58
1629795388703,-45.2
1629795388718,-45.96
1629795388734,-45.79
1629795388750,-44.58
1629795388765,-42.25
1629795388781,-38.8
1629795388796,-34.59
1629795388812,-30.2
1629795388828,-26.22
1629795388843,-22.96
1629795388859,-20.17
1629795388875,-17.07
1629795388890,-12.72
1629795388906,-6.44
1629795388921,1.84
1629795388937,11.43
1629795388953,21.18
1629795388968,29.68
1629795388984,35.65
1629795389000,38.26
1629795389015,37.19
1629795389031,32.8
1629795389046,26.07
1629795389062,18.43
1629795389078,11.32
1629795389093,5.82
1629795389109,2.29
1629795389125,0.38
1629795389140,-0.72
1629795389156,-1.87
1629795389171,-3.74
1629795389187,-6.62
1629795389203,-10.47
1629795389218,-14.97
1629795389234,-19.62
1629795389250,-23.82
1629795389265,-27.08
1629795389281,-29.18
1629795389296,-30.45
1629795389312,-31.67
1629795389328,-33.69
1629795389343,-36.91
1629795389359,-40.87
1629795389375,-44.36
1629795389390,-46.08
1629795389406,-45.47
1629795389421,-43.02
1629795389437,-40.0
1629795389453,-37.64
1629795389468,-36.18
1629795389484,-34.72
1629795389500,-31.75
1629795389515,-26.06
1629795389531,-17.67
1629795389546,-7.87
1629795389562,1.41
1629795389578,8.6
1629795389593,13.1
1629795389609,15.44
1629795389625,16.72
1629795389640,17.96
1629795389656,19.77
1629795389671,22.26
1629795389687,25.37
1629795389703,28.95
1629795389718,32.89
1629795389734,37.05
1629795389750,41.22
1629795389765,45.13
1629795389781,48.43
1629795389796,50.94
1629795389812,52.52
1629795389828,53.27
1629795389843,53.37
1629795389859,53.14
1629795389875,53.01
1629795389890,53.39
1629795389906,54.64
1629795389921,56.89
1629795389937,60.13
1629795389953,64.06
1629795389968,68.37
1629795389984,72.73
1629795390000,76.94
1629795390015,80.87
1629795390031,84.62
1629795390046,88.42
1629795390062,92.52
1629795390078,97.06
1629795390093,101.95
1629795390109,106.88
1629795390125,111.37
1629795390140,114.96
1629795390156,117.32
1629795390171,118.16
1629795390187,117.24
1629795390203,114.33
1629795390218,109.35
1629795390234,102.31
1629795390250,93.38
1629795390265,82.51
1629795390281,69.28
1629795390296,52.85
1629795390312,32.3
1629795390328,7.36
1629795390343,-21.25
1629795390359,-51.62
1629795390375,-81.16
1629795390390,-107.45
1629795390406,-128.8
1629795390421,-144.6
1629795390437,-155.05
1629795390453,-160.74
1629795390468,-162.3
1629795390484,-160.26
1629795390500,-154.96
1629795390515,-146.76
1629795390531,-136.05
1629795390546,-123.18
1629795390562,-108.52
1629795390578,-92.41
1629795390593,-75.29
1629795390609,-57.6
1629795390625,-39.76
1629795390640,-22.16
1629795390656,-5.21
1629795390671,10.7
1629795390687,25.14
1629795390703,37.68
1629795390718,47.89
1629795390734,55.27
1629795390750,59.24
1629795390765,59.23
1629795390781,54.87
1629795390796,46.32
1629795390812,34.46
1629795390828,20.62
1629795390843,6.19
1629795390859,-7.93
1629795390875,-21.68
1629795390890,-35.59
1629795390906,-50.3
1629795390921,-65.92
1629795390937,-81.76
1629795390953,-96.48
1629795390968,-108.83
1629795390984,-118.2
1629795391000,-124.86
1629795391015,-129.85
1629795391031,-134.41
1629795391046,-139.51
1629795391062,-145.55
1629795391078,-152.41
1629795391093,-159.5
1629795391109,-166.11
1629795391125,-171.37
1629795391140,-174.27
1629795391156,-173.75
1629795391171,-168.92
1629795391187,-159.38
1629795391203,-145.54
1629795391218,-128.6
1629795391234,-110.37
1629795391250,-92.73
1629795391265,-77.11
1629795391281,-64.09
1629795391296,-53.19
1629795391312,-43.19
1629795391328,-32.62
1629795391343,-20.39
1629795391359,-6.27
1629795391375,8.98
1629795391390,23.99
1629795391406,37.37
1629795391421,48.33
1629795391437,56.94
1629795391453,64.0
1629795391468,70.44
1629795391484,76.72
1629795391500,82.68
1629795391515,87.67
1629795391531,91.1
1629795391546,92.94
1629795391562,93.82
1629795391578,94.69
1629795391593,96.33
1629795391609,98.89
1629795391625,101.76
1629795391640,103.86
1629795391656,104.22
1629795391671,102.53
1629795391687,99.36
1629795391703,96.02
1629795391718,94.18
1629795391734,95.35
1629795391750,100.56
1629795391765,110.05
1629795391781,123.33
1629795391796,139.34
1629795391812,156.81
1629795391828,174.42
1629795391843,190.99
1629795391859,205.5
1629795391875,217.12
1629795391890,225.39
1629795391906,230.13
1629795391921,231.33
1629795391937,228.77
1629795391953,221.76
1629795391968,208.99
1629795391984,188.95
1629795392000,160.66
1629795392015,124.38
1629795392031,81.78
1629795392046,35.54
1629795392062,-11.38
1629795392078,-56.38
1629795392093,-97.33
1629795392109,-132.27
1629795392125,-159.12
1629795392140,-176.07
1629795392156,-182.34
1629795392171,-179.0
1629795392187,-169.12
1629795392203,-156.98
1629795392218,-146.59
1629795392234,-140.47
1629795392250,-138.98
1629795392265,-140.8
1629795392281,-143.86
1629795392296,-146.25
1629795392312,-146.48
1629795392328,-143.71
1629795392343,-137.56
1629795392359,-128.2
1629795392375,-116.54
1629795392390,-104.13
1629795392406,-92.81
1629795392421,-84.14
1629795392437,-78.94
1629795392453,-77.15
1629795392468,-78.18
1629795392484,-81.31
1629795392500,-85.99
1629795392515,-91.96
1629795392531,-98.91
1629795392546,-106.18
1629795392562,-112.8
1629795392578,-117.61
1629795392593,-119.79
1629795392609,-119.26
1629795392625,-116.73
1629795392640,-113.28
1629795392656,-109.69
1629795392671,-105.81
1629795392687,-100.12
1629795392703,-90.2
1629795392718,-73.52
1629795392734,-48.49
1629795392750,-15.42
1629795392765,23.29
1629795392781,63.58
1629795392796,100.78
1629795392812,131.0
1629795392828,152.04
1629795392843,163.65
1629795392859,167.05
1629795392875,163.96
1629795392890,155.69
1629795392906,142.7
1629795392921,124.91
1629795392937,102.52
1629795392953,76.83
1629795392968,50.54
1629795392984,27.2
1629795393000,10.14
1629795393015,1.36
1629795393031,0.92
1629795393046,7.18
1629795393062,17.53
1629795393078,29.33
1629795393093,40.67
1629795393109,50.41
1629795393125,57.97
1629795393140,62.88
1629795393156,64.71
1629795393171,63.19
1629795393187,58.69
1629795393203,52.48
1629795393218,46.41
1629795393234,42.33
1629795393250,41.2
1629795393265,42.62
1629795393281,45.11
1629795393296,46.85
1629795393312,46.63
1629795393328,44.39
1629795393343,41.12
1629795393359,38.12
1629795393375,36.23
1629795393390,35.5
1629795393406,35.34
1629795393421,35.05
1629795393437,34.28
1629795393453,33.22
1629795393468,32.21
1629795393484,31.47
1629795393500,30.71
1629795393515,29.35
1629795393531,26.78
1629795393546,22.59
1629795393562,16.73
1629795393578,9.35
1629795393593,0.72
1629795393609,-8.83
1629795393625,-18.84
1629795393640,-28.8
1629795393656,-38.12
1629795393671,-46.37
1629795393687,-53.46
1629795393703,-59.5
1629795393718,-64.6
1629795393734,-68.38
1629795393750,-70.03
1629795393765,-68.45
1629795393781,-62.8
1629795393796,-52.87
1629795393812,-39.34
1629795393828,-23.56
1629795393843,-6.98
1629795393859,9.17
1629795393875,24.14
1629795393890,37.55
1629795393906,49.29
1629795393921,59.33
1629795393937,67.98
1629795393953,75.99
1629795393968,84.4
1629795393984,94.27
1629795394000,106.11
1629795394015,119.6
1629795394031,133.63
1629795394046,146.71
1629795394062,157.51
1629795394078,165.24
1629795394093,169.61
1629795394109,170.66
1629795394125,168.63
1629795394140,163.79
1629795394156,156.55
1629795394171,147.49
1629795394187,137.28
1629795394203,126.43
1629795394218,115.11
1629795394234,103.16
1629795394250,90.2
1629795394265,75.88
1629795394281,60.0
1629795394296,42.62
1629795394312,24.0
1629795394328,4.51
1629795394343,-15.22
1629795394359,-34.45
1629795394375,-52.32
1629795394390,-67.96
1629795394406,-80.72
1629795394421,-90.29
1629795394437,-96.89
1629795394453,-101.2
1629795394468,-104.29
1629795394484,-107.27
1629795394500,-111.02
1629795394515,-115.86
1629795394531,-121.59
1629795394546,-127.56
1629795394562,-132.94
1629795394578,-137.09
1629795394593,-139.74
1629795394609,-141.01
1629795394625,-141.18
1629795394640,-140.53
1629795394656,-139.02
1629795394671,-136.42
1629795394687,-132.52
1629795394703,-127.21
1629795394718,-120.69
1629795394734,-113.29
1629795394750,-105.35
1629795394765,-97.05
1629795394781,-88.47
1629795394796,-79.65
1629795394812,-70.84
1629795394828,-62.52
1629795394843,-55.25
1629795394859,-49.34
1629795394875,-44.65
1629795394890,-40.5
1629795394906,-36.0
1629795394921,-30.3
1629795394937,-23.0
1629795394953,-14.22
1629795394968,-4.42
1629795394984,5.77
1629795395000,15.76
1629795395015,25.06
1629795395031,33.13
1629795395046,39.42
1629795395062,43.48
1629795395078,45.12
1629795395093,44.69
1629795395109,42.92
1629795395125,40.71
1629795395140,38.64
1629795395156,36.79
1629795395171,34.78
1629795395187,32.18
1629795395203,28.76
1629795395218,24.71
1629795395234,20.54
1629795395250,16.81
1629795395265,13.93
1629795395281,11.93
1629795395296,10.5
1629795395312,9.04
1629795395328,6.68
1629795395343,2.45
1629795395359,-4.38
1629795395375,-13.85
1629795395390,-25.0
1629795395406,-35.96
1629795395421,-44.5
1629795395437,-48.86
1629795395453,-48.35
1629795395468,-43.52
1629795395484,-35.85
1629795395500,-27.09
1629795395515,-18.57
1629795395531,-11.11
1629795395546,-4.9
1629795395562,0.12
1629795395578,4.08
1629795395593,7.15
1629795395609,9.6
1629795395625,11.8
1629795395640,14.18
1629795395656,17.0
1629795395671,20.13
1629795395687,23.05
1629795395703,25.06
1629795395718,25.59
1629795395734,24.53
1629795395750,22.41
1629795395765,20.22
1629795395781,19.02
1629795395796,19.48
1629795395812,21.52
1629795395828,24.3
1629795395843,26.63
1629795395859,27.33
1629795395875,25.77
1629795395890,22.07
1629795395906,17.0
1629795395921,11.73
1629795395937,7.36
1629795395953,4.61
1629795395968,3.61
1629795395984,3.89
1629795396000,4.62
1629795396015,4.89
1629795396031,3.91
1629795396046,1.31
1629795396062,-2.71
1629795396078,-7.4
1629795396093,-11.75
1629795396109,-14.93
1629795396125,-16.6
1629795396140,-17.09
1629795396156,-16.96
1629795396171,-16.62
1629795396187,-15.92
1629795396203,-14.27
1629795396218,-11.13
1629795396234,-6.53
1629795396250,-1.16
1629795396265,4.05
1629795396281,8.37
1629795396296,11.65
1629795396312,14.15
1629795396328,16.11
1629795396343,17.34
1629795396359,17.47
1629795396375,16.37
1629795396390,14.72
1629795396406,13.88
1629795396421,15.18
1629795396437,19.18
1629795396453,25.14
1629795396468,31.46
1629795396484,36.46
1629795396500,39.19
1629795396515,39.68
1629795396531,38.51
1629795396546,36.36
1629795396562,33.39
1629795396578,29.47
1629795396593,24.46
1629795396609,18.63
1629795396625,12.7
1629795396640,7.54
1629795396656,3.78
1629795396671,1.35
1629795396687,-0.34
1629795396703,-2.1
1629795396718,-4.52
1629795396734,-7.58
1629795396750,-10.73
1629795396765,-13.11
1629795396781,-14.1
1629795396796,-13.56
1629795396812,-11.93
1629795396828,-9.87
1629795396843,-7.87
1629795396859,-6.04
1629795396875,-4.09
1629795396890,-1.62
1629795396906,1.49
1629795396921,5.04
1629795396937,8.7
1629795396953,12.28
1629795396968,15.92
1629795396984,19.94
1629795397000,24.46
1629795397015,29.14
1629795397031,33.27
1629795397046,36.12
1629795397062,37.52
1629795397078,38.09
1629795397093,38.91
1629795397109,41.01
1629795397125,44.69
1629795397140,49.35
1629795397156,53.79
1629795397171,56.78
1629795397187,57.67
1629795397203,56.65
1629795397218,54.48
1629795397234,52.09
1629795397250,50.06
1629795397265,48.51
1629795397281,47.15
1629795397296,45.67
1629795397312,43.96
1629795397328,42.25
1629795397343,41.04
1629795397359,40.77
1629795397375,41.52
1629795397390,42.94
1629795397406,44.33
1629795397421,45.04
1629795397437,44.67
1629795397453,43.22
1629795397468,41.0
1629795397484,38.4
1629795397500,35.7
1629795397515,32.98
1629795397531,30.25
1629795397546,27.46
1629795397562,24.61
1629795397578,21.75
1629795397593,18.88
1629795397609,15.94
1629795397625,12.83
1629795397640,9.5
1629795397656,5.91
1629795397671,2.06
1629795397687,-2.0
1629795397703,-6.18
1629795397718,-10.29
1629795397734,-13.98
1629795397750,-16.87
1629795397765,-18.66
1629795397781,-19.34
1629795397796,-19.19
1629795397812,-18.71
1629795397828,-18.43
1629795397843,-18.7
1629795397859,-19.6
1629795397875,-20.99
1629795397890,-22.55
1629795397906,-23.94
1629795397921,-24.91
1629795397937,-25.29
1629795397953,-25.11
1629795397968,-24.66
1629795397984,-24.44
1629795398000,-24.96
1629795398015,-26.52
1629795398031,-29.06
1629795398046,-32.13
1629795398062,-35.08
1629795398078,-37.19
1629795398093,-37.94
1629795398109,-37.04
1629795398125,-34.47
1629795398140,-30.37
1629795398156,-25.07
1629795398171,-19.1
1629795398187,-13.12
1629795398203,-7.95
1629795398218,-4.37
1629795398234,-2.94
1629795398250,-3.84
1629795398265,-6.79
1629795398281,-11.15
1629795398296,-16.0
1629795398312,-20.46
1629795398328,-23.85
1629795398343,-25.94
1629795398359,-26.97
1629795398375,-27.7
1629795398390,-29.24
1629795398406,-32.73
1629795398421,-38.93
1629795398437,-47.79
1629795398453,-58.21
1629795398468,-68.19
1629795398484,-75.38
1629795398500,-77.94
1629795398515,-75.35
1629795398531,-68.75
1629795398546,-60.52
1629795398562,-53.36
1629795398578,-49.11
1629795398593,-48.23
1629795398609,-49.86
1629795398625,-52.55
1629795398640,-55.03
1629795398656,-56.65
1629795398671,-57.37
1629795398687,-57.33
1629795398703,-56.6
1629795398718,-55.09
1629795398734,-52.81
1629795398750,-49.99
1629795398765,-47.01
1629795398781,-44.18
1629795398796,-41.48
1629795398812,-38.61
1629795398828,-35.13
1629795398843,-30.95
1629795398859,-26.22
1629795398875,-21.28
1629795398890,-16.41
1629795398906,-11.67
1629795398921,-6.98
1629795398937,-2.3
1629795398953,2.36
1629795398968,7.08
1629795398984,12.01
1629795399000,17.43
1629795399015,23.4
1629795399031,29.53
1629795399046,34.94
1629795399062,38.53
1629795399078,39.49
1629795399093,37.72
1629795399109,33.98
1629795399125,29.49
1629795399140,25.44
1629795399156,22.46
1629795399171,20.42
1629795399187,18.78
1629795399203,16.89
1629795399218,14.54
1629795399234,12.04
1629795399250,10.02
1629795399265,9.06
1629795399281,9.39
1629795399296,10.68
1629795399312,12.2
1629795399328,13.16
1629795399343,12.94
1629795399359,11.34
1629795399375,8.59
1629795399390,5.18
1629795399406,1.61
1629795399421,-1.78
1629795399437,-4.9
1629795399453,-7.82
1629795399468,-10.63
1629795399484,-13.41
1629795399500,-16.12
1629795399515,-18.66
1629795399531,-21.02
1629795399546,-23.16
1629795399562,-25.02
1629795399578,-26.34
1629795399593,-26.65
1629795399609,-25.38
1629795399625,-22.19
1629795399640,-17.18
1629795399656,-11.06
1629795399671,-5.03
1629795399687,-0.24
1629795399703,2.55
1629795399718,3.28
1629795399734,2.5
1629795399750,1.22
1629795399765,0.45
1629795399781,1.04
1629795399796,3.5
1629795399812,7.87
1629795399828,13.76
1629795399843,20.39
1629795399859,26.77
1629795399875,31.79
1629795399890,34.6
1629795399906,34.83
1629795399921,32.7
1629795399937,28.9
1629795399953,24.49
1629795399968,20.5
1629795399984,17.62
1629795400000,16.11
1629795400015,15.7
1629795400031,15.81
1629795400046,15.83
1629795400062,15.38
1629795400078,14.36
1629795400093,12.88
1629795400109,11.09
1629795400125,9.11
1629795400140,7.04
1629795400156,5.06
1629795400171,3.36
1629795400187,2.13
1629795400203,1.48
1629795400218,1.29
1629795400234,1.32
1629795400250,1.39
1629795400265,1.49
1629795400281,1.73
1629795400296,2.21
1629795400312,2.77
1629795400328,2.94
1629795400343,2.24
1629795400359,0.47
1629795400375,-2.0
1629795400390,-4.45
1629795400406,-6.07
1629795400421,-6.43
1629795400437,-5.65
1629795400453,-4.32
1629795400468,-3.1
1629795400484,-2.33
1629795400500,-1.84
1629795400515,-1.03
1629795400531,0.66
1629795400546,3.43
1629795400562,6.86
1629795400578,10.16
1629795400593,12.41
1629795400609,13.11
1629795400625,12.35
1629795400640,10.64
1629795400656,8.62
1629795400671,6.69
1629795400687,4.85
1629795400703,2.88
1629795400718,0.68
1629795400734,-1.6
1629795400750,-3.55
1629795400765,-4.79
1629795400781,-5.31
1629795400796,-5.43
1629795400812,-5.6
1629795400828,-6.08
1629795400843,-6.69
1629795400859,-6.96
1629795400875,-6.36
1629795400890,-4.65
1629795400906,-1.92
1629795400921,1.51
1629795400937,5.32
1629795400953,9.27
1629795400968,13.05
1629795400984,16.32
1629795401000,18.55
1629795401015,19.35
1629795401031,18.62
1629795401046,16.73
1629795401062,14.39
1629795401078,12.38
1629795401093,11.09
1629795401109,10.43
1629795401125,10.01
1629795401140,9.37
1629795401156,8.24
1629795401171,6.58
1629795401187,4.45
1629795401203,1.98
1629795401218,-0.71
1629795401234,-3.51
1629795401250,-6.3
1629795401265,-9.07
1629795401281,-12.09
1629795401296,-15.86
1629795401312,-21.0
1629795401328,-27.87
1629795401343,-36.13
1629795401359,-44.52
1629795401375,-51.05
1629795401390,-53.51
1629795401406,-50.17
1629795401421,-40.57
1629795401437,-25.69
1629795401453,-7.88
1629795401468,9.79
1629795401484,24.54
1629795401500,34.61
1629795401515,39.73
1629795401531,40.85
1629795401546,39.5
1629795401562,37.05
1629795401578,34.33
1629795401593,31.6
1629795401609,28.85
1629795401625,26.15
1629795401640,23.69
1629795401656,21.6
1629795401671,19.78
1629795401687,17.71
1629795401703,14.73
1629795401718,10.29
1629795401734,4.37
1629795401750,-2.52
1629795401765,-9.4
1629795401781,-15.35
1629795401796,-19.73
1629795401812,-22.4
1629795401828,-23.69
1629795401843,-24.09
1629795401859,-24.02
1629795401875,-23.55
1629795401890,-22.65
1629795401906,-21.27
1629795401921,-19.67
1629795401937,-18.41
1629795401953,-18.09
1629795401968,-18.99
1629795401984,-20.74
1629795402000,-22.37
1629795402015,-22.57
1629795402031,-20.32
1629795402046,-15.1
1629795402062,-7.21
1629795402078,2.51
1629795402093,13.01
1629795402109,23.31
1629795402125,32.78
1629795402140,41.12
1629795402156,48.28
1629795402171,54.28
1629795402187,59.18
1629795402203,63.06
1629795402218,65.98
1629795402234,68.06
1629795402250,69.29
1629795402265,69.69
1629795402281,69.17
1629795402296,67.64
1629795402312,65.03
1629795402328,61.36
1629795402343,56.73
1629795402359,51.31
1629795402375,45.45
1629795402390,39.57
1629795402406,34.22
1629795402421,29.84
1629795402437,26.69
1629795402453,24.64
1629795402468,23.15
1629795402484,21.54
1629795402500,19.26
1629795402515,16.07
1629795402531,12.18
1629795402546,8.12
1629795402562,4.37
1629795402578,1.27
1629795402593,-1.16
1629795402609,-3.12
1629795402625,-4.85
1629795402640,-6.56
1629795402656,-8.31
1629795402671,-10.03
1629795402687,-11.65
1629795402703,-13.06
1629795402718,-14.31
1629795402734,-15.5
1629795402750,-16.83
1629795402765,-18.5
1629795402781,-20.62
1629795402796,-23.05
1629795402812,-25.4
1629795402828,-27.19
1629795402843,-27.92
1629795402859,-27.36
1629795402875,-25.61
1629795402890,-23.12
1629795402906,-20.61
1629795402921,-18.91
1629795402937,-18.75
1629795402953,-20.46
1629795402968,-23.85
1629795402984,-28.06
1629795403000,-31.8
1629795403015,-33.75
1629795403031,-33.09
1629795403046,-29.91
1629795403062,-25.22
1629795403078,-20.57
1629795403093,-17.41
1629795403109,-16.45
1629795403125,-17.31
1629795403140,-18.86
1629795403156,-19.78
1629795403171,-19.18
1629795403187,-17.04
1629795403203,-14.14
1629795403218,-11.85
1629795403234,-11.7
1629795403250,-14.84
1629795403265,-21.75
1629795403281,-31.97
1629795403296,-44.04
1629795403312,-55.68
1629795403328,-64.38
1629795403343,-68.01
1629795403359,-65.58
1629795403375,-57.67
1629795403390,-46.31
1629795403406,-34.33
1629795403421,-24.47
1629795403437,-18.36
1629795403453,-16.04
1629795403468,-16.18
1629795403484,-16.83
1629795403500,-16.48
1629795403515,-15.05
1629795403531,-14.03
1629795403546,-15.9
1629795403562,-22.95
1629795403578,-36.02
1629795403593,-53.9
1629795403609,-73.64
1629795403625,-91.54
1629795403640,-104.28
1629795403656,-109.69
1629795403671,-106.79
1629795403687,-95.5
1629795403703,-76.41
1629795403718,-50.81
1629795403734,-21.15
1629795403750,8.91
1629795403765,35.07
1629795403781,53.56
1629795403796,62.35
1629795403812,62.02
1629795403828,55.25
1629795403843,45.66
1629795403859,36.33
1629795403875,28.8
1629795403890,23.07
1629795403906,18.19
1629795403921,13.15
1629795403937,7.39
1629795403953,0.93
1629795403968,-5.98
1629795403984,-13.21
1629795404000,-20.78
1629795404015,-28.77
1629795404031,-36.96
1629795404046,-44.46
1629795404062,-49.8
1629795404078,-51.17
1629795404093,-47.04
1629795404109,-36.71
1629795404125,-20.79
1629795404140,-1.01
1629795404156,20.16
1629795404171,40.28
1629795404187,57.47
1629795404203,70.78
1629795404218,80.06
1629795404234,85.62
1629795404250,88.03
1629795404265,87.92
1629795404281,86.13
1629795404296,83.7
1629795404312,81.77
1629795404328,81.29
1629795404343,82.57
1629795404359,85.17
1629795404375,88.0
1629795404390,89.76
1629795404406,89.41
1629795404421,86.48
1629795404437,81.0
1629795404453,73.39
1629795404468,64.15
1629795404484,53.79
1629795404500,42.83
1629795404515,31.98
1629795404531,21.91
1629795404546,13.23
1629795404562,6.24
1629795404578,0.94
1629795404593,-2.75
1629795404609,-4.68
1629795404625,-4.35
1629795404640,-1.13
1629795404656,5.37
1629795404671,14.83
1629795404687,26.1
1629795404703,37.5
1629795404718,47.51
1629795404734,55.27
1629795404750,61.03
1629795404765,66.01
1629795404781,72.03
1629795404796,80.97
1629795404812,94.23
1629795404828,112.28
1629795404843,134.26
1629795404859,157.89
1629795404875,179.63
1629795404890,195.44
1629795404906,201.89
1629795404921,197.18
1629795404937,181.7
1629795404953,157.83
1629795404968,129.06
1629795404984,98.77
1629795405000,69.36
1629795405015,42.09
1629795405031,17.34
1629795405046,-4.65
1629795405062,-23.57
1629795405078,-38.9
1629795405093,-50.25
1629795405109,-57.71
1629795405125,-61.8
1629795405140,-63.36
1629795405156,-63.18
1629795405171,-61.87
1629795405187,-59.88
1629795405203,-57.72
1629795405218,-56.07
1629795405234,-55.58
1629795405250,-56.57
1629795405265,-58.74
1629795405281,-61.11
1629795405296,-62.37
1629795405312,-61.48
1629795405328,-58.3
1629795405343,-53.65
1629795405359,-49.09
1629795405375,-46.15
1629795405390,-45.65
1629795405406,-47.33
1629795405421,-50.03
1629795405437,-52.2
1629795405453,-52.65
1629795405468,-51.0
1629795405484,-47.69
1629795405500,-43.66
1629795405515,-39.9
1629795405531,-37.04
1629795405546,-35.21
1629795405562,-34.27
1629795405578,-34.08
1629795405593,-34.68
1629795405609,-36.41
1629795405625,-39.65
1629795405640,-44.62
1629795405656,-51.14
1629795405671,-58.6
1629795405687,-66.09
1629795405703,-72.74
1629795405718,-77.93
1629795405734,-81.46
1629795405750,-83.36
1629795405765,-83.73
1629795405781,-82.55
1629795405796,-79.68
1629795405812,-75.03
1629795405828,-68.75
1629795405843,-61.34
1629795405859,-53.66
1629795405875,-46.6
1629795405890,-40.86
1629795405906,-36.71
1629795405921,-34.0
1629795405937,-32.27
1629795405953,-31.04
1629795405968,-29.75
1629795405984,-28.03
1629795406000,-25.62
1629795406015,-22.5
1629795406031,-18.93
1629795406046,-15.39
1629795406062,-12.5
1629795406078,-10.75
1629795406093,-10.33
1629795406109,-11.03
1629795406125,-12.39
1629795406140,-13.8
1629795406156,-14.81
1629795406171,-15.2
1629795406187,-14.99
1629795406203,-14.34
1629795406218,-13.4
1629795406234,-12.36
1629795406250,-11.3
1629795406265,-10.24
1629795406281,-9.1
1629795406296,-7.74
1629795406312,-6.03
1629795406328,-3.84
1629795406343,-1.08
1629795406359,2.19
1629795406375,5.8
1629795406390,9.51
1629795406406,13.15
1629795406421,16.58
1629795406437,19.79
1629795406453,22.65
1629795406468,24.84
1629795406484,25.83
1629795406500,25.02
1629795406515,22.08
1629795406531,17.22
1629795406546,11.27
1629795406562,5.5
1629795406578,1.24
1629795406593,-0.73
1629795406609,-0.44
1629795406625,1.27
1629795406640,3.13
1629795406656,4.02
1629795406671,3.39
1629795406687,1.49
1629795406703,-0.87
1629795406718,-2.75
1629795406734,-3.78
1629795406750,-4.37
1629795406765,-5.69
1629795406781,-9.07
1629795406796,-15.45
1629795406812,-24.86
1629795406828,-36.37
1629795406843,-48.46
1629795406859,-59.44
1629795406875,-68.05
1629795406890,-73.78
1629795406906,-77.02
1629795406921,-78.88
1629795406937,-80.73
1629795406953,-83.57
1629795406968,-87.42
1629795406984,-91.22
1629795407000,-93.22
1629795407015,-91.87
1629795407031,-86.74
1629795407046,-78.79
1629795407062,-69.98
1629795407078,-62.31
1629795407093,-56.89
1629795407109,-53.55
1629795407125,-51.26
1629795407140,-49.02
1629795407156,-46.37
1629795407171,-43.45
1629795407187,-40.29
1629795407203,-36.29
1629795407218,-30.34
1629795407234,-21.58
1629795407250,-10.42
1629795407265,1.13
1629795407281,10.33
1629795407296,15.19
1629795407312,15.87
1629795407328,14.86
1629795407343,15.81
1629795407359,21.42
1629795407375,32.0
1629795407390,45.14
1629795407406,57.05
1629795407421,64.39
1629795407437,65.74
1629795407453,61.63
1629795407468,53.74
1629795407484,43.68
1629795407500,32.46
1629795407515,20.63
1629795407531,8.94
1629795407546,-1.09
1629795407562,-7.22
1629795407578,-7.14
1629795407593,0.37
1629795407609,14.74
1629795407625,33.33
1629795407640,52.15
1629795407656,67.03
1629795407671,74.88
1629795407687,74.74
1629795407703,67.92
1629795407718,57.53
1629795407734,47.27
1629795407750,40.31
1629795407765,38.22
1629795407781,40.79
1629795407796,46.34
1629795407812,52.57
1629795407828,57.4
1629795407843,59.68
1629795407859,59.36
1629795407875,57.25
1629795407890,54.55
1629795407906,52.2
1629795407921,50.63
1629795407937,49.74
1629795407953,49.12
1629795407968,48.32
1629795407984,47.12
1629795408000,45.39
1629795408015,42.96
1629795408031,39.52
1629795408046,34.61
1629795408062,27.84
1629795408078,19.18
1629795408093,9.23
1629795408109,-0.88
1629795408125,-9.63
1629795408140,-15.56
1629795408156,-17.63
1629795408171,-15.52
1629795408187,-9.77
1629795408203,-1.58
1629795408218,7.61
1629795408234,16.47
1629795408250,24.19
1629795408265,30.64
1629795408281,36.28
1629795408296,41.86
1629795408312,47.98
1629795408328,54.63
1629795408343,61.11
1629795408359,66.22
1629795408375,68.67
1629795408390,67.69
1629795408406,63.34
1629795408421,56.49
1629795408437,48.49
1629795408453,40.65
1629795408468,33.75
1629795408484,28.02
1629795408500,23.26
1629795408515,19.18
1629795408531,15.64
1629795408546,12.64
1629795408562,10.27
1629795408578,8.48
1629795408593,7.22
1629795408609,6.42
1629795408625,6.11
1629795408640,6.32
1629795408656,6.94
1629795408671,7.68
1629795408687,8.05
1629795408703,7.64
1629795408718,6.27
1629795408734,4.18
1629795408750,1.91
1629795408765,0.07
1629795408781,-0.92
1629795408796,-1.0
1629795408812,-0.3
1629795408828,0.87
1629795408843,2.41
1629795408859,4.38
1629795408875,6.93
1629795408890,10.16
1629795408906,13.8
1629795408921,17.39
1629795408937,20.37
1629795408953,22.35
1629795408968,23.25
1629795408984,23.19
1629795409000,22.33
1629795409015,20.7
1629795409031,18.11
1629795409046,14.41
1629795409062,9.75
1629795409078,4.74
1629795409093,0.26
1629795409109,-2.85
1629795409125,-4.17
1629795409140,-3.92
1629795409156,-2.82
1629795409171,-1.67
1629795409187,-1.08
1629795409203,-1.21
1629795409218,-1.89
1629795409234,-2.85
1629795409250,-3.93
1629795409265,-5.15
1629795409281,-6.62
1629795409296,-8.35
1629795409312,-10.11
1629795409328,-11.53
1629795409343,-12.11
1629795409359,-11.54
1629795409375,-9.75
1629795409390,-6.86
1629795409406,-3.24
1629795409421,0.61
1629795409437,4.18
1629795409453,6.96
1629795409468,8.58
1629795409484,8.9
1629795409500,8.05
1629795409515,6.45
1629795409531,4.64
1629795409546,3.13
1629795409562,2.3
1629795409578,2.33
1629795409593,3.2
1629795409609,4.78
1629795409625,6.82
1629795409640,9.04
1629795409656,11.11
1629795409671,12.82
1629795409687,14.08
1629795409703,14.97
1629795409718,15.67
1629795409734,16.4
1629795409750,17.24
1629795409765,18.11
1629795409781,18.71
1629795409796,18.69
1629795409812,17.78
1629795409828,15.85
1629795409843,13.0
1629795409859,9.5
1629795409875,5.71
1629795409890,2.0
1629795409906,-1.39
1629795409921,-4.33
1629795409937,-6.83
1629795409953,-9.04
1629795409968,-11.16
1629795409984,-13.41
1629795410000,-15.89
1629795410015,-18.64
1629795410031,-21.53
1629795410046,-24.4
1629795410062,-27.05
1629795410078,-29.28
1629795410093,-30.87
1629795410109,-31.61
1629795410125,-31.35
1629795410140,-30.01
1629795410156,-27.7
1629795410171,-24.72
1629795410187,-21.45
1629795410203,-18.32
1629795410218,-15.69
1629795410234,-13.78
1629795410250,-12.6
1629795410265,-12.04
1629795410281,-11.81
1629795410296,-11.55
1629795410312,-11.01
1629795410328,-10.08
1629795410343,-8.84
1629795410359,-7.57
1629795410375,-6.6
1629795410390,-6.09
1629795410406,-6.07
1629795410421,-6.35
1629795410437,-6.68
1629795410453,-6.93
1629795410468,-7.12
1629795410484,-7.42
1629795410500,-8.01
1629795410515,-8.96
1629795410531,-10.17
1629795410546,-11.44
1629795410562,-12.55
1629795410578,-13.4
1629795410593,-14.03
1629795410609,-14.55
1629795410625,-15.06
1629795410640,-15.54
1629795410656,-15.9
1629795410671,-15.95
1629795410687,-15.62
1629795410703,-14.89
1629795410718,-13.88
1629795410734,-12.78
1629795410750,-11.79
1629795410765,-11.1
1629795410781,-10.91
1629795410796,-11.36
1629795410812,-12.57
1629795410828,-14.57
1629795410843,-17.19
1629795410859,-20.03
1629795410875,-22.58
1629795410890,-24.18
1629795410906,-24.37
1629795410921,-23.05
1629795410937,-20.48
1629795410953,-17.23
1629795410968,-13.92
1629795410984,-10.99
1629795411000,-8.58
1629795411015,-6.64
1629795411031,-4.99
1629795411046,-3.55
1629795411062,-2.35
1629795411078,-1.45
1629795411093,-0.83
1629795411109,-0.39
1629795411125,0.06
1629795411140,0.74
1629795411156,1.6
1629795411171,2.61
1629795411187,3.56
1629795411203,4.33
1629795411218,4.91
1629795411234,5.38
1629795411250,5.78
1629795411265,6.11
1629795411281,6.29
1629795411296,6.13
1629795411312,5.65
1629795411328,4.98
1629795411343,4.45
1629795411359,4.48
1629795411375,5.32
1629795411390,7.01
1629795411406,9.39
1629795411421,12.08
1629795411437,14.7
1629795411453,16.96
1629795411468,18.68
1629795411484,19.73
1629795411500,19.98
1629795411515,19.26
1629795411531,17.43
1629795411546,14.5
1629795411562,10.55
1629795411578,5.79
1629795411593,0.44
1629795411609,-5.42
1629795411625,-11.75
1629795411640,-18.53
1629795411656,-25.71
1629795411671,-33.07
1629795411687,-40.29
1629795411703,-47.01
1629795411718,-52.8
1629795411734,-57.18
1629795411750,-59.66
1629795411765,-59.78
1629795411781,-57.09
1629795411796,-51.43
1629795411812,-42.9
1629795411828,-32.01
1629795411843,-19.69
1629795411859,-7.14
1629795411875,4.34
1629795411890,13.72
1629795411906,20.44
1629795411921,24.65
1629795411937,26.92
1629795411953,28.08
1629795411968,28.81
1629795411984,29.43
1629795412000,29.95
1629795412015,30.22
1629795412031,30.2
1629795412046,30.0
1629795412062,29.83
1629795412078,29.79
1629795412093,29.81
1629795412109,29.67
1629795412125,29.1
1629795412140,27.89
1629795412156,26.04
1629795412171,23.67
1629795412187,21.07
1629795412203,18.48
1629795412218,16.08
1629795412234,13.96
1629795412250,12.07
1629795412265,10.35
1629795412281,8.78
1629795412296,7.41
1629795412312,6.35
1629795412328,5.69
1629795412343,5.39
1629795412359,5.42
1629795412375,5.7
1629795412390,6.17
1629795412406,6.71
1629795412421,7.13
1629795412437,7.15
1629795412453,6.5
1629795412468,5.01
1629795412484,2.7
1629795412500,-0.18
1629795412515,-3.3
1629795412531,-6.37
1629795412546,-9.25
1629795412562,-11.9
1629795412578,-14.21
1629795412593,-15.87
1629795412609,-16.44
1629795412625,-15.49
1629795412640,-12.83
1629795412656,-8.68
1629795412671,-3.6
1629795412687,1.65
1629795412703,6.35
1629795412718,10.08
1629795412734,12.85
1629795412750,15.09
1629795412765,17.39
1629795412781,20.22
1629795412796,23.66
1629795412812,27.25
1629795412828,30.14
1629795412843,31.42
1629795412859,30.49
1629795412875,27.35
1629795412890,22.63
1629795412906,17.27
1629795412921,12.12
1629795412937,7.63
1629795412953,3.62
1629795412968,-0.43
1629795412984,-5.31
1629795413000,-11.85
1629795413015,-20.75
1629795413031,-32.46
1629795413046,-46.87
1629795413062,-63.19
1629795413078,-79.85
1629795413093,-94.63
1629795413109,-105.14
1629795413125,-109.47
1629795413140,-106.78
1629795413156,-97.59
1629795413171,-83.35
1629795413187,-65.94
1629795413203,-46.88
1629795413218,-27.01
1629795413234,-6.73
1629795413250,13.5
1629795413265,32.75
1629795413281,49.41
1629795413296,61.72
1629795413312,68.58
1629795413328,69.98
1629795413343,67.05
1629795413359,61.56
1629795413375,55.05
1629795413390,48.35
1629795413406,41.55
1629795413421,34.39
1629795413437,26.89
1629795413453,19.54
1629795413468,13.23
1629795413484,8.84
1629795413500,6.69
1629795413515,6.49
1629795413531,7.38
1629795413546,8.26
1629795413562,8.15
1629795413578,6.5
1629795413593,3.42
1629795413609,-0.6
1629795413625,-4.72
1629795413640,-8.36
1629795413656,-11.35
1629795413671,-14.03
1629795413687,-16.97
1629795413703,-20.67
1629795413718,-25.07
1629795413734,-29.51
1629795413750,-33.04
1629795413765,-34.69
1629795413781,-33.93
1629795413796,-30.84
1629795413812,-26.12
1629795413828,-20.73
1629795413843,-15.6
1629795413859,-11.41
1629795413875,-8.52
1629795413890,-7.02
1629795413906,-6.75
1629795413921,-7.44
1629795413937,-8.69
1629795413953,-10.09
1629795413968,-11.26
1629795413984,-11.96
1629795414000,-12.1
1629795414015,-11.82
1629795414031,-11.34
1629795414046,-10.92
1629795414062,-10.69
1629795414078,-10.69
1629795414093,-10.89
1629795414109,-11.26
1629795414125,-11.84
1629795414140,-12.67
1629795414156,-13.83
1629795414171,-15.36
1629795414187,-17.25
1629795414203,-19.38
1629795414218,-21.56
1629795414234,-23.42
1629795414250,-24.47
1629795414265,-24.21
1629795414281,-22.32
1629795414296,-18.82
1629795414312,-14.21
1629795414328,-9.35
1629795414343,-5.33
1629795414359,-3.18
1629795414375,-3.59
1629795414390,-6.75
1629795414406,-12.15
1629795414421,-18.6
1629795414437,-24.41
1629795414453,-27.79
1629795414468,-27.3
1629795414484,-22.39
1629795414500,-13.76
1629795414515,-3.18
1629795414531,6.96
1629795414546,14.44
1629795414562,17.95
1629795414578,17.49
1629795414593,14.14
1629795414609,9.67
1629795414625,5.69
1629795414640,3.29
1629795414656,2.86
1629795414671,4.27
1629795414687,7.13
1629795414703,10.99
1629795414718,15.34
1629795414734,19.48
1629795414750,22.69
1629795414765,24.31
1629795414781,24.06
1629795414796,22.18
1629795414812,19.38
1629795414828,16.52
1629795414843,14.34
1629795414859,13.17
1629795414875,12.85
1629795414890,12.9
1629795414906,12.75
1629795414921,11.96
1629795414937,10.53
1629795414953,8.86
1629795414968,7.64
1629795414984,7.59
1629795415000,9.14
1629795415015,12.22
1629795415031,16.35
1629795415046,20.81
1629795415062,24.88
1629795415078,27.94
1629795415093,29.4
1629795415109,28.75
1629795415125,25.58
1629795415140,19.9
1629795415156,12.18
1629795415171,3.4
1629795415187,-5.29
1629795415203,-13.0
1629795415218,-19.33
1629795415234,-24.42
1629795415250,-28.64
1629795415265,-32.25
1629795415281,-35.16
1629795415296,-37.08
1629795415312,-37.77
1629795415328,-37.3
1629795415343,-36.18
1629795415359,-35.17
1629795415375,-34.88
1629795415390,-35.53
1629795415406,-36.71
1629795415421,-37.49
1629795415437,-36.77
1629795415453,-33.59
1629795415468,-27.56
1629795415484,-19.06
1629795415500,-9.07
1629795415515,1.15
1629795415531,10.42
1629795415546,18.04
1629795415562,23.78
1629795415578,27.82
1629795415593,30.58
1629795415609,32.5
1629795415625,33.97
1629795415640,35.31
1629795415656,36.77
1629795415671,38.39
1629795415687,40.13
1629795415703,41.7
1629795415718,42.76
1629795415734,43.09
1629795415750,42.63
1629795415765,41.58
1629795415781,40.23
1629795415796,38.82
1629795415812,37.34
1629795415828,35.62
1629795415843,33.34
1629795415859,30.24
1629795415875,26.25
1629795415890,21.49
1629795415906,16.27
1629795415921,10.91
1629795415937,5.6
1629795415953,0.21
1629795415968,-5.52
1629795415984,-11.94
1629795416000,-19.3
1629795416015,-27.54
1629795416031,-36.3
1629795416046,-44.94
1629795416062,-52.56
1629795416078,-58.17
1629795416093,-60.74
1629795416109,-59.39
1629795416125,-53.53
1629795416140,-43.12
1629795416156,-29.03
1629795416171,-13.21
1629795416187,1.6
1629795416203,12.5
1629795416218,17.39
1629795416234,15.78
1629795416250,9.05
1629795416265,-0.12
1629795416281,-8.78
1629795416296,-14.81
1629795416312,-17.5
1629795416328,-17.43
1629795416343,-15.73
1629795416359,-13.34
1629795416375,-10.66
1629795416390,-7.62
1629795416406,-4.18
1629795416421,-0.63
1629795416437,2.42
1629795416453,4.24
1629795416468,4.33
1629795416484,2.59
1629795416500,-0.64
1629795416515,-4.87
1629795416531,-9.55
1629795416546,-14.3
1629795416562,-18.95
1629795416578,-23.44
1629795416593,-27.84
1629795416609,-32.1
1629795416625,-36.13
1629795416640,-39.67
1629795416656,-42.51
1629795416671,-44.57
1629795416687,-45.87
1629795416703,-46.49
1629795416718,-46.21
1629795416734,-44.51
1629795416750,-40.5
1629795416765,-33.32
1629795416781,-22.5
1629795416796,-8.29
1629795416812,8.34
1629795416828,25.82
1629795416843,42.25
1629795416859,55.7
1629795416875,64.55
1629795416890,67.88
1629795416906,65.85
1629795416921,59.78
1629795416937,51.89
1629795416953,44.59
1629795416968,39.57
1629795416984,37.17
1629795417000,36.47
1629795417015,35.9
1629795417031,34.11
1629795417046,30.59
1629795417062,25.59
1629795417078,19.72
1629795417093,13.4
1629795417109,6.79
1629795417125,-0.09
1629795417140,-6.88
1629795417156,-12.7
1629795417171,-16.51
1629795417187,-17.55
1629795417203,-15.87
1629795417218,-12.36
1629795417234,-8.34
1629795417250,-4.92
1629795417265,-2.58
1629795417281,-1.04
1629795417296,0.37
1629795417312,2.09
1629795417328,4.1
1629795417343,5.78
1629795417359,6.35
1629795417375,5.21
1629795417390,2.36
1629795417406,-1.67
1629795417421,-6.0
1629795417437,-9.84
1629795417453,-12.69
1629795417468,-14.43
1629795417484,-15.18
1629795417500,-15.21
1629795417515,-14.85
1629795417531,-14.33
1629795417546,-13.91
1629795417562,-13.72
1629795417578,-13.85
1629795417593,-14.31
1629795417609,-15.01
1629795417625,-15.8
1629795417640,-16.57
1629795417656,-17.15
1629795417671,-17.46
1629795417687,-17.43
1629795417703,-17.04
1629795417718,-16.27
1629795417734,-15.13
1629795417750,-13.64
1629795417765,-11.82
1629795417781,-9.8
1629795417796,-7.72
1629795417812,-5.86
1629795417828,-4.4
1629795417843,-3.44
1629795417859,-2.86
1629795417875,-2.31
1629795417890,-1.26
1629795417906,0.88
1629795417921,4.64
1629795417937,10.18
1629795417953,17.14
1629795417968,24.56
1629795417984,31.14
1629795418000,35.66
1629795418015,37.34
1629795418031,36.1
1629795418046,32.26
1629795418062,26.19
1629795418078,17.89
1629795418093,6.97
1629795418109,-6.94
1629795418125,-23.63
1629795418140,-41.91
1629795418156,-59.72
1629795418171,-74.71
1629795418187,-85.0
1629795418203,-89.77
1629795418218,-89.47
1629795418234,-85.49
1629795418250,-79.65
1629795418265,-73.74
1629795418281,-69.1
1629795418296,-66.47
1629795418312,-65.9
1629795418328,-66.66
1629795418343,-67.55
1629795418359,-67.13
1629795418375,-64.28
1629795418390,-58.62
1629795418406,-50.57
1629795418421,-41.01
1629795418437,-30.77
1629795418453,-20.15
1629795418468,-8.83
1629795418484,3.67
1629795418500,17.44
1629795418515,31.7
1629795418531,44.93
1629795418546,55.39
1629795418562,61.88
1629795418578,64.36
1629795418593,63.8
1629795418609,61.74
1629795418625,59.59
1629795418640,58.1
1629795418656,57.31
1629795418671,56.67
1629795418687,55.47
1629795418703,53.15
1629795418718,49.35
1629795418734,43.94
1629795418750,37.05
1629795418765,29.01
1629795418781,20.37
1629795418796,11.83
1629795418812,4.11
1629795418828,-2.31
1629795418843,-7.44
1629795418859,-11.72
1629795418875,-15.87
1629795418890,-20.45
1629795418906,-25.7
1629795418921,-31.32
1629795418937,-36.67
1629795418953,-40.99
1629795418968,-43.77
1629795418984,-44.83
1629795419000,-44.47
1629795419015,-43.28
1629795419031,-41.97
1629795419046,-41.34
1629795419062,-42.04
1629795419078,-44.58
1629795419093,-49.02
1629795419109,-55.06
1629795419125,-61.87
1629795419140,-68.41
1629795419156,-73.64
1629795419171,-76.86
1629795419187,-77.93
1629795419203,-77.2
1629795419218,-75.29
1629795419234,-72.75
1629795419250,-69.93
1629795419265,-66.78
1629795419281,-63.09
1629795419296,-58.56
1629795419312,-52.94
1629795419328,-46.0
1629795419343,-37.51
1629795419359,-27.02
1629795419375,-14.0
1629795419390,2.14
1629795419406,21.68
1629795419421,44.26
1629795419437,68.67
1629795419453,92.94
1629795419468,114.73
1629795419484,131.9
1629795419500,143.05
1629795419515,147.71
1629795419531,146.19
1629795419546,139.17
1629795419562,127.38
1629795419578,111.38
1629795419593,91.74
1629795419609,69.32
1629795419625,45.37
1629795419640,21.54
1629795419656,-0.44
1629795419671,-19.2
1629795419687,-33.9
1629795419703,-44.39
1629795419718,-51.0
1629795419734,-54.28
1629795419750,-54.87
1629795419765,-53.29
1629795419781,-49.96
1629795419796,-45.23
1629795419812,-39.52
1629795419828,-33.23
1629795419843,-26.78
1629795419859,-20.57
1629795419875,-14.94
1629795419890,-10.13
1629795419906,-6.25
1629795419921,-3.09
1629795419937,-0.11
1629795419953,3.47
1629795419968,8.43
1629795419984,15.14
1629795420000,23.27
1629795420015,31.81
1629795420031,39.41
1629795420046,44.87
1629795420062,47.59
1629795420078,47.72
1629795420093,45.92
1629795420109,43.03
1629795420125,39.62
1629795420140,35.79
1629795420156,31.32
1629795420171,25.9
1629795420187,19.45
1629795420203,12.23
1629795420218,4.92
1629795420234,-1.61
1629795420250,-6.5
1629795420265,-9.11
1629795420281,-9.05
1629795420296,-6.11
1629795420312,-0.31
1629795420328,8.01
1629795420343,18.1
1629795420359,28.63
1629795420375,37.89
1629795420390,44.28
1629795420406,46.65
1629795420421,44.76
1629795420437,39.31
1629795420453,31.62
1629795420468,23.25
1629795420484,15.54
1629795420500,9.36
1629795420515,5.08
1629795420531,2.67
1629795420546,1.81
1629795420562,2.03
1629795420578,2.83
1629795420593,3.81
1629795420609,4.72
1629795420625,5.52
1629795420640,6.36
1629795420656,7.38
1629795420671,8.69
1629795420687,10.29
1629795420703,11.98
1629795420718,13.53
1629795420734,14.63
1629795420750,15.06
1629795420765,14.69
1629795420781,13.62
1629795420796,12.03
1629795420812,10.21
1629795420828,8.46
1629795420843,7.02
1629795420859,6.06
1629795420875,5.62
1629795420890,5.63
1629795420906,6.02
1629795420921,6.69
1629795420937,7.53
1629795420953,8.43
1629795420968,9.3
1629795420984,10.06
1629795421000,10.75
1629795421015,11.44
1629795421031,12.24
1629795421046,13.16
1629795421062,14.07
1629795421078,14.72
1629795421093,14.74
1629795421109,13.91
1629795421125,12.22
1629795421140,9.93
1629795421156,7.45
1629795421171,5.21
1629795421187,3.44
1629795421203,2.09
1629795421218,0.89
1629795421234,-0.53
1629795421250,-2.55
1629795421265,-5.34
1629795421281,-8.89
1629795421296,-13.0
1629795421312,-17.35
1629795421328,-21.63
1629795421343,-25.73
1629795421359,-29.69
1629795421375,-33.59
1629795421390,-37.42
1629795421406,-40.85
1629795421421,-43.34
1629795421437,-44.19
1629795421453,-42.86
1629795421468,-39.21
1629795421484,-33.54
1629795421500,-26.56
1629795421515,-19.02
1629795421531,-11.49
1629795421546,-4.24
1629795421562,2.65
1629795421578,9.23
1629795421593,15.46
1629795421609,21.2
1629795421625,26.27
1629795421640,30.51
1629795421656,33.83
1629795421671,36.25
1629795421687,37.82
1629795421703,38.59
1629795421718,38.65
1629795421734,38.22
1629795421750,37.56
1629795421765,36.97
1629795421781,36.7
1629795421796,36.82
1629795421812,37.16
1629795421828,37.34
1629795421843,36.99
1629795421859,35.81
1629795421875,33.77
1629795421890,31.01
1629795421906,27.88
1629795421921,24.79
1629795421937,22.11
1629795421953,20.09
1629795421968,18.84
1629795421984,18.27
1629795422000,18.16
1629795422015,18.21
1629795422031,18.1
1629795422046,17.67
1629795422062,16.94
1629795422078,16.08
1629795422093,15.34
1629795422109,14.93
1629795422125,15.01
1629795422140,15.66
1629795422156,16.91
1629795422171,18.68
1629795422187,20.82
1629795422203,22.98
1629795422218,24.69
1629795422234,25.48
1629795422250,25.02
1629795422265,23.21
1629795422281,20.08
1629795422296,15.75
1629795422312,10.4
1629795422328,4.29
1629795422343,-2.15
1629795422359,-8.3
1629795422375,-13.43
1629795422390,-16.96
1629795422406,-18.62
1629795422421,-18.67
1629795422437,-17.71
1629795422453,-16.5
1629795422468,-15.61
1629795422484,-15.32
1629795422500,-15.39
1629795422515,-15.33
1629795422531,-14.61
1629795422546,-12.81
1629795422562,-9.9
1629795422578,-6.19
1629795422593,-2.22
1629795422609,1.48
1629795422625,4.53
1629795422640,6.84
1629795422656,8.5
1629795422671,9.67
1629795422687,10.49
1629795422703,11.03
1629795422718,11.26
1629795422734,11.13
1629795422750,10.63
1629795422765,9.82
1629795422781,8.77
1629795422796,7.6
1629795422812,6.35
1629795422828,4.97
1629795422843,3.32
1629795422859,1.16
1629795422875,-1.66
1629795422890,-5.15
1629795422906,-8.97
1629795422921,-12.6
1629795422937,-15.52
1629795422953,-17.47
1629795422968,-18.54
1629795422984,-19.14
1629795423000,-19.72
1629795423015,-20.57
1629795423031,-21.77
1629795423046,-23.16
1629795423062,-24.54
1629795423078,-25.87
1629795423093,-27.27
1629795423109,-28.99
1629795423125,-31.24
1629795423140,-34.1
1629795423156,-37.52
1629795423171,-41.35
1629795423187,-45.41
1629795423203,-49.5
1629795423218,-53.52
1629795423234,-57.35
1629795423250,-60.93
1629795423265,-64.16
1629795423281,-66.85
1629795423296,-68.82
1629795423312,-69.76
1629795423328,-69.44
1629795423343,-67.75
1629795423359,-64.76
1629795423375,-60.83
1629795423390,-56.55
1629795423406,-52.59
1629795423421,-49.58
1629795423437,-47.83
1629795423453,-47.24
1629795423468,-47.22
1629795423484,-46.77
1629795423500,-44.82
1629795423515,-40.53
1629795423531,-33.64
1629795423546,-24.47
1629795423562,-13.89
1629795423578,-2.93
1629795423593,7.52
1629795423609,16.83
1629795423625,24.7
1629795423640,30.97
1629795423656,35.6
1629795423671,38.61
1629795423687,40.13
1629795423703,40.53
1629795423718,40.32
1629795423734,40.04
1629795423750,40.02
1629795423765,40.24
1629795423781,40.49
1629795423796,40.48
1629795423812,40.12
1629795423828,39.45
1629795423843,38.58
1629795423859,37.56
1629795423875,36.22
1629795423890,34.23
1629795423906,31.38
1629795423921,27.65
1629795423937,23.31
1629795423953,18.68
1629795423968,14.05
1629795423984,9.4
1629795424000,4.54
1629795424015,-0.74
1629795424031,-6.45
1629795424046,-12.38
1629795424062,-18.29
1629795424078,-24.07
1629795424093,-30.02
1629795424109,-36.68
1629795424125,-44.53
1629795424140,-53.64
1629795424156,-63.53
1629795424171,-73.19
1629795424187,-81.41
1629795424203,-87.34
1629795424218,-90.63
1629795424234,-91.55
1629795424250,-90.71
1629795424265,-88.68
1629795424281,-85.76
1629795424296,-81.91
1629795424312,-76.88
1629795424328,-70.29
1629795424343,-61.85
1629795424359,-51.43
1629795424375,-39.12
1629795424390,-25.23
1629795424406,-10.44
1629795424421,4.41
1629795424437,18.34
1629795424453,30.44
1629795424468,40.09
1629795424484,47.21
1629795424500,52.19
1629795424515,55.89
1629795424531,59.28
1629795424546,63.21
1629795424562,68.08
1629795424578,73.85
1629795424593,79.96
1629795424609,85.6
1629795424625,89.89
1629795424640,92.16
1629795424656,92.1
1629795424671,89.72
1629795424687,85.34
1629795424703,79.45
1629795424718,72.71
1629795424734,65.77
1629795424750,59.22
1629795424765,53.43
1629795424781,48.52
1629795424796,44.41
1629795424812,40.92
1629795424828,37.92
1629795424843,35.25
1629795424859,32.78
1629795424875,30.21
1629795424890,27.18
1629795424906,23.26
1629795424921,18.16
1629795424937,11.87
1629795424953,4.73
1629795424968,-2.78
1629795424984,-10.21
1629795425000,-17.33
1629795425015,-24.14
1629795425031,-30.73
1629795425046,-36.98
1629795425062,-42.55
1629795425078,-46.89
1629795425093,-49.41
1629795425109,-49.81
1629795425125,-48.14
1629795425140,-44.89
1629795425156,-40.64
1629795425171,-35.89
1629795425187,-30.83
1629795425203,-25.39
1629795425218,-19.37
1629795425234,-12.66
1629795425250,-5.41
1629795425265,1.94
1629795425281,8.8
1629795425296,14.55
1629795425312,18.77
1629795425328,21.28
1629795425343,22.22
1629795425359,21.97
1629795425375,21.03
1629795425390,19.88
1629795425406,18.92
1629795425421,18.46
1629795425437,18.58
1629795425453,19.27
1629795425468,20.37
1629795425484,21.63
1629795425500,22.77
1629795425515,23.46
1629795425531,23.49
1629795425546,22.72
1629795425562,21.24
1629795425578,19.18
1629795425593,16.84
1629795425609,14.44
1629795425625,12.27
1629795425640,10.43
1629795425656,8.92
1629795425671,7.62
1629795425687,6.33
1629795425703,4.97
1629795425718,3.61
1629795425734,2.41
1629795425750,1.63
1629795425765,1.38
1629795425781,1.56
1629795425796,1.84
1629795425812,1.88
1629795425828,1.39
1629795425843,0.29
1629795425859,-1.34
1629795425875,-3.31
1629795425890,-5.34
1629795425906,-7.1
1629795425921,-8.08
1629795425937,-7.76
1629795425953,-5.69
1629795425968,-1.75
1629795425984,3.77
1629795426000,10.19
1629795426015,16.6
1629795426031,22.17
1629795426046,26.38
1629795426062,29.14
1629795426078,30.68
1629795426093,31.48
1629795426109,31.96
1629795426125,32.48
1629795426140,33.19
1629795426156,34.06
1629795426171,34.95
1629795426187,35.56
1629795426203,35.52
1629795426218,34.49
1629795426234,32.27
1629795426250,28.82
1629795426265,24.47
1629795426281,19.79
1629795426296,15.36
1629795426312,11.66
1629795426328,8.78
1629795426343,6.52
1629795426359,4.59
1629795426375,2.82
1629795426390,1.28
1629795426406,0.26
1629795426421,0.08
1629795426437,0.87
1629795426453,2.55
1629795426468,4.86
1629795426484,7.49
1629795426500,10.3
1629795426515,13.35
1629795426531,16.69
1629795426546,20.28
1629795426562,23.93
1629795426578,27.28
1629795426593,29.95
1629795426609,31.67
1629795426625,32.39
1629795426640,32.33
1629795426656,32.01
1629795426671,32.05
1629795426687,33.15
1629795426703,35.9
1629795426718,40.52
1629795426734,46.84
1629795426750,54.25
1629795426765,61.78
1629795426781,68.45
1629795426796,73.53
1629795426812,76.77
1629795426828,78.52
1629795426843,79.54
1629795426859,80.56
1629795426875,81.91
1629795426890,82.97
1629795426906,82.09
1629795426921,76.8
1629795426937,64.49
1629795426953,43.2
1629795426968,12.43
1629795426984,-26.47
1629795427000,-70.35
1629795427015,-114.66
1629795427031,-154.5
1629795427046,-185.66
1629795427062,-205.55
1629795427078,-213.7
1629795427093,-211.71
1629795427109,-202.53
1629795427125,-189.61
1629795427140,-176.08
1629795427156,-164.14
1629795427171,-154.92
1629795427187,-148.62
1629795427203,-144.53
1629795427218,-141.1
1629795427234,-136.15
1629795427250,-127.23
1629795427265,-112.52
1629795427281,-91.71
1629795427296,-66.35
1629795427312,-39.53
1629795427328,-14.76
1629795427343,5.33
1629795427359,19.66
1629795427375,28.82
1629795427390,34.19
1629795427406,36.99
1629795427421,37.78
1629795427437,36.45
1629795427453,32.78
1629795427468,27.06
1629795427484,20.18
1629795427500,13.53
1629795427515,8.46
1629795427531,5.77
1629795427546,5.72
1629795427562,7.96
1629795427578,11.96
1629795427593,17.23
1629795427609,23.45
1629795427625,30.41
1629795427640,37.88
1629795427656,45.44
1629795427671,52.51
1629795427687,58.51
1629795427703,63.05
1629795427718,66.06
1629795427734,67.7
1629795427750,68.27
1629795427765,67.9
1629795427781,66.56
1629795427796,64.11
1629795427812,60.48
1629795427828,55.88
1629795427843,50.72
1629795427859,45.5
1629795427875,40.61
1629795427890,36.15
1629795427906,32.08
1629795427921,28.24
1629795427937,24.54
1629795427953,20.89
1629795427968,17.27
1629795427984,13.59
1629795428000,9.75
1629795428015,5.75
1629795428031,1.66
1629795428046,-2.26
1629795428062,-5.77
1629795428078,-8.71
1629795428093,-11.15
1629795428109,-13.39
1629795428125,-15.9
1629795428140,-19.09
1629795428156,-23.13
1629795428171,-27.91
1629795428187,-32.92
1629795428203,-37.46
1629795428218,-40.78
1629795428234,-42.31
1629795428250,-41.79
1629795428265,-39.32
1629795428281,-35.34
1629795428296,-30.36
1629795428312,-24.85
1629795428328,-19.15
1629795428343,-13.38
1629795428359,-7.62
1629795428375,-1.9
1629795428390,3.64
1629795428406,8.83
1629795428421,13.45
1629795428437,17.3
1629795428453,20.21
1629795428468,22.1
1629795428484,22.91
1629795428500,22.77
1629795428515,21.96
1629795428531,20.86
1629795428546,19.94
1629795428562,19.58
1629795428578,20.03
1629795428593,21.37
1629795428609,23.53
1629795428625,26.39
1629795428640,29.79
1629795428656,33.44
1629795428671,36.89
1629795428687,39.53
1629795428703,40.67
1629795428718,39.99
1629795428734,37.62
1629795428750,34.24
1629795428765,30.92
1629795428781,28.6
1629795428796,27.67
1629795428812,27.83
1629795428828,28.3
1629795428843,28.25
1629795428859,27.2
1629795428875,25.19
1629795428890,22.62
1629795428906,19.97
1629795428921,17.41
1629795428937,14.81
1629795428953,11.78
1629795428968,7.94
1629795428984,3.04
1629795429000,-2.96
1629795429015,-9.83
1629795429031,-17.08
1629795429046,-23.92
1629795429062,-29.44
1629795429078,-32.85
1629795429093,-33.89
1629795429109,-33.03
1629795429125,-31.66
1629795429140,-31.56
1629795429156,-34.18
1629795429171,-40.09
1629795429187,-48.41
1629795429203,-57.03
1629795429218,-63.28
1629795429234,-64.99
1629795429250,-61.46
1629795429265,-53.75
1629795429281,-44.25
1629795429296,-35.6
1629795429312,-29.81
1629795429328,-27.52
1629795429343,-28.25
1629795429359,-30.94
1629795429375,-34.6
1629795429390,-38.6
1629795429406,-42.55
1629795429421,-46.0
1629795429437,-48.27
1629795429453,-48.68
1629795429468,-46.79
1629795429484,-42.64
1629795429500,-36.45
1629795429515,-28.12
1629795429531,-16.92
1629795429546,-1.7
1629795429562,18.34
1629795429578,42.9
1629795429593,70.04
1629795429609,96.66
1629795429625,119.36
1629795429640,135.48
1629795429656,144.0
1629795429671,145.52
1629795429687,141.75
1629795429703,134.75
1629795429718,126.35
1629795429734,117.74
1629795429750,109.44
1629795429765,101.37
1629795429781,92.82
1629795429796,82.65
1629795429812,69.4
1629795429828,51.82
1629795429843,29.44
1629795429859,2.88
1629795429875,-25.94
1629795429890,-54.27
1629795429906,-79.07
1629795429921,-97.89
1629795429937,-109.37
1629795429953,-113.55
1629795429968,-111.63
1629795429984,-105.38
1629795430000,-96.77
1629795430015,-87.47
1629795430031,-78.65
1629795430046,-71.08
1629795430062,-65.22
1629795430078,-61.13
1629795430093,-58.52
1629795430109,-56.72
1629795430125,-54.69
1629795430140,-51.35
1629795430156,-45.85
1629795430171,-37.99
1629795430187,-28.33
1629795430203,-18.26
1629795430218,-9.38
1629795430234,-3.1
1629795430250,-0.19
1629795430265,-0.5
1629795430281,-3.21
1629795430296,-7.19
1629795430312,-11.53
1629795430328,-15.92
1629795430343,-20.55
1629795430359,-25.69
1629795430375,-31.34
1629795430390,-37.05
1629795430406,-42.06
1629795430421,-45.79
1629795430437,-48.05
1629795430453,-49.23
1629795430468,-50.07
1629795430484,-51.17
1629795430500,-52.74
1629795430515,-54.54
1629795430531,-56.1
1629795430546,-57.0
1629795430562,-57.21
1629795430578,-56.96
1629795430593,-56.54
1629795430609,-55.93
1629795430625,-54.71
1629795430640,-52.17
1629795430656,-47.63
1629795430671,-40.82
1629795430687,-31.94
1629795430703,-21.77
1629795430718,-11.33
1629795430734,-1.71
1629795430750,6.21
1629795430765,11.89
1629795430781,15.25
1629795430796,16.59
1629795430812,16.57
1629795430828,16.02
1629795430843,15.62
1629795430859,15.84
1629795430875,16.93
1629795430890,18.91
1629795430906,21.61
1629795430921,24.7
1629795430937,27.6
1629795430953,29.64
1629795430968,30.29
1629795430984,29.51
1629795431000,27.91
1629795431015,26.6
1629795431031,26.73
1629795431046,28.99
1629795431062,33.31
1629795431078,39.1
1629795431093,45.64
1629795431109,52.52
1629795431125,59.69
1629795431140,67.25
1629795431156,75.11
1629795431171,82.8
1629795431187,89.49
1629795431203,94.36
1629795431218,96.92
1629795431234,97.18
1629795431250,95.63
1629795431265,92.87
1629795431281,89.47
1629795431296,85.72
1629795431312,81.65
1629795431328,77.2
1629795431343,72.28
1629795431359,66.82
1629795431375,60.81
1629795431390,54.26
1629795431406,47.23
1629795431421,39.89
1629795431437,32.45
1629795431453,25.03
1629795431468,17.67
1629795431484,10.23
1629795431500,2.53
1629795431515,-5.46
1629795431531,-13.43
1629795431546,-20.76
1629795431562,-26.69
1629795431578,-30.7
1629795431593,-32.84
1629795431609,-33.68
1629795431625,-34.02
1629795431640,-34.57
1629795431656,-35.57
1629795431671,-36.69
1629795431687,-37.33
1629795431703,-36.9
1629795431718,-35.11
1629795431734,-32.22
1629795431750,-28.79
1629795431765,-25.46
1629795431781,-22.72
1629795431796,-20.7
1629795431812,-19.32
1629795431828,-18.4
1629795431843,-17.77
1629795431859,-17.29
1629795431875,-16.78
1629795431890,-15.92
1629795431906,-14.4
1629795431921,-12.04
1629795431937,-8.94
1629795431953,-5.57
1629795431968,-2.61
1629795431984,-0.66
1629795432000,0.04
1629795432015,-0.32
1629795432031,-1.14
1629795432046,-1.71
1629795432062,-1.52
1629795432078,-0.28
1629795432093,1.91
1629795432109,4.77
1629795432125,7.99
1629795432140,11.28
1629795432156,14.31
1629795432171,16.67
1629795432187,17.94
1629795432203,17.75
1629795432218,16.01
1629795432234,12.97
1629795432250,9.16
1629795432265,5.08
1629795432281,1.03
1629795432296,-3.11
1629795432312,-7.65
1629795432328,-12.86
1629795432343,-18.66
1629795432359,-24.47
1629795432375,-29.46
1629795432390,-32.75
1629795432406,-33.8
1629795432421,-32.6
1629795432437,-29.66
1629795432453,-25.8
1629795432468,-22.0
1629795432484,-19.11
1629795432500,-17.57
1629795432515,-17.43
1629795432531,-18.23
1629795432546,-19.27
1629795432562,-19.86
1629795432578,-19.66
1629795432593,-18.69
1629795432609,-17.38
1629795432625,-16.22
1629795432640,-15.5
1629795432656,-15.18
1629795432671,-14.93
1629795432687,-14.26
1629795432703,-12.77
1629795432718,-10.36
1629795432734,-7.23
1629795432750,-3.83
1629795432765,-0.61
1629795432781,2.3
1629795432796,5.18
1629795432812,8.67
1629795432828,13.3
1629795432843,19.19
1629795432859,25.73
1629795432875,31.65
1629795432890,35.59
1629795432906,36.54
1629795432921,34.27
1629795432937,29.31
1629795432953,22.69
1629795432968,15.43
1629795432984,8.22
1629795433000,1.33
1629795433015,-5.28
1629795433031,-11.75
1629795433046,-18.27
1629795433062,-24.87
1629795433078,-31.57
1629795433093,-38.34
1629795433109,-45.09
1629795433125,-51.75
1629795433140,-58.09
1629795433156,-63.67
1629795433171,-67.9
1629795433187,-70.2
1629795433203,-70.14
1629795433218,-67.71
1629795433234,-63.24
1629795433250,-57.36
1629795433265,-50.85
1629795433281,-44.36
1629795433296,-38.28
1629795433312,-32.77
1629795433328,-27.88
1629795433343,-23.65
1629795433359,-20.11
1629795433375,-17.3
1629795433390,-15.19
1629795433406,-13.64
1629795433421,-12.36
1629795433437,-10.92
1629795433453,-8.88
1629795433468,-5.95
1629795433484,-2.29
1629795433500,1.47
1629795433515,4.37
1629795433531,5.62
1629795433546,5.11
1629795433562,3.76
1629795433578,3.4
1629795433593,6.16
