timestamp,bvp
1629894289781,-5.06
1629894289796,-1.92
1629894289812,0.88
1629894289828,3.16
1629894289843,4.87
1629894289859,6.09
1629894289875,6.94
1629894289890,7.59
1629894289906,8.11
1629894289921,8.49
1629894289937,8.63
1629894289953,8.45
1629894289968,7.99
1629894289984,7.4
1629894290000,6.95
1629894290015,6.81
1629894290031,7.03
1629894290046,7.48
1629894290062,7.98
1629894290078,8.35
1629894290093,8.55
1629894290109,8.64
1629894290125,8.7
1629894290140,8.76
1629894290156,8.79
1629894290171,8.68
1629894290187,8.4
1629894290203,7.93
1629894290218,7.37
1629894290234,6.81
1629894290250,6.27
1629894290265,5.72
1629894290281,5.1
1629894290296,4.35
1629894290312,3.45
1629894290328,2.45
1629894290343,1.43
1629894290359,0.45
1629894290375,-0.51
1629894290390,-1.5
1629894290406,-2.63
1629894290421,-3.97
1629894290437,-5.51
1629894290453,-7.16
1629894290468,-8.78
1629894290484,-10.22
1629894290500,-11.35
1629894290515,-12.12
1629894290531,-12.52
1629894290546,-12.69
1629894290562,-12.8
1629894290578,-13.06
1629894290593,-13.57
1629894290609,-14.29
1629894290625,-14.96
1629894290640,-15.21
1629894290656,-14.7
1629894290671,-13.26
1629894290687,-10.96
1629894290703,-7.99
1629894290718,-4.64
1629894290734,-1.16
1629894290750,2.26
1629894290765,5.44
1629894290781,8.16
1629894290796,10.22
1629894290812,11.5
1629894290828,11.99
1629894290843,11.86
1629894290859,11.3
1629894290875,10.5
1629894290890,9.52
1629894290906,8.35
1629894290921,7.0
1629894290937,5.53
1629894290953,4.11
1629894290968,2.93
1629894290984,2.16
1629894291000,1.89
1629894291015,2.16
1629894291031,2.93
1629894291046,4.09
1629894291062,5.43
1629894291078,6.67
1629894291093,7.52
1629894291109,7.81
1629894291125,7.5
1629894291140,6.72
1629894291156,5.69
1629894291171,4.6
1629894291187,3.56
1629894291203,2.63
1629894291218,1.79
1629894291234,1.05
1629894291250,0.36
1629894291265,-0.31
1629894291281,-1.03
1629894291296,-1.9
1629894291312,-2.95
1629894291328,-4.23
1629894291343,-5.65
1629894291359,-7.11
1629894291375,-8.47
1629894291390,-9.57
1629894291406,-10.31
1629894291421,-10.69
1629894291437,-10.86
1629894291453,-11.12
1629894291468,-11.85
1629894291484,-13.35
1629894291500,-15.71
1629894291515,-18.74
1629894291531,-21.99
1629894291546,-24.9
1629894291562,-26.93
1629894291578,-27.71
1629894291593,-27.1
1629894291609,-25.21
1629894291625,-22.3
1629894291640,-18.73
1629894291656,-14.84
1629894291671,-10.91
1629894291687,-7.18
1629894291703,-3.89
1629894291718,-1.23
1629894291734,0.68
1629894291750,1.85
1629894291765,2.48
1629894291781,2.83
1629894291796,3.15
1629894291812,3.54
1629894291828,3.97
1629894291843,4.3
1629894291859,4.41
1629894291875,4.33
1629894291890,4.17
1629894291906,4.1
1629894291921,4.23
1629894291937,4.55
1629894291953,5.01
1629894291968,5.49
1629894291984,5.96
1629894292000,6.38
1629894292015,6.76
1629894292031,7.08
1629894292046,7.28
1629894292062,7.32
1629894292078,7.12
1629894292093,6.65
1629894292109,5.91
1629894292125,4.97
1629894292140,3.92
1629894292156,2.83
1629894292171,1.71
1629894292187,0.53
1629894292203,-0.77
1629894292218,-2.25
1629894292234,-3.92
1629894292250,-5.77
1629894292265,-7.79
1629894292281,-9.96
1629894292296,-12.28
1629894292312,-14.65
1629894292328,-16.94
1629894292343,-18.96
1629894292359,-20.54
1629894292375,-21.59
1629894292390,-22.1
1629894292406,-22.04
1629894292421,-21.36
1629894292437,-19.93
1629894292453,-17.65
1629894292468,-14.5
1629894292484,-10.65
1629894292500,-6.41
1629894292515,-2.14
1629894292531,1.87
1629894292546,5.39
1629894292562,8.36
1629894292578,10.7
1629894292593,12.35
1629894292609,13.23
1629894292625,13.3
1629894292640,12.71
1629894292656,11.74
1629894292671,10.77
1629894292687,10.18
1629894292703,10.18
1629894292718,10.76
1629894292734,11.74
1629894292750,12.87
1629894292765,13.88
1629894292781,14.66
1629894292796,15.13
1629894292812,15.31
1629894292828,15.17
1629894292843,14.69
1629894292859,13.9
1629894292875,12.88
1629894292890,11.82
1629894292906,10.88
1629894292921,10.14
1629894292937,9.49
1629894292953,8.7
1629894292968,7.53
1629894292984,5.85
1629894293000,3.69
1629894293015,1.31
1629894293031,-1.04
1629894293046,-3.14
1629894293062,-4.95
1629894293078,-6.62
1629894293093,-8.33
1629894293109,-10.32
1629894293125,-12.69
1629894293140,-15.38
1629894293156,-18.2
1629894293171,-20.74
1629894293187,-22.56
1629894293203,-23.2
1629894293218,-22.4
1629894293234,-20.17
1629894293250,-16.71
1629894293265,-12.42
1629894293281,-7.71
1629894293296,-3.0
1629894293312,1.41
1629894293328,5.23
1629894293343,8.28
1629894293359,10.48
1629894293375,11.92
1629894293390,12.82
1629894293406,13.46
1629894293421,14.09
1629894293437,14.76
1629894293453,15.42
1629894293468,15.94
1629894293484,16.21
1629894293500,16.28
1629894293515,16.28
1629894293531,16.43
1629894293546,16.9
1629894293562,17.82
1629894293578,19.16
1629894293593,20.81
1629894293609,22.55
1629894293625,24.18
1629894293640,25.58
1629894293656,26.73
1629894293671,27.64
1629894293687,28.32
1629894293703,28.73
1629894293718,28.77
1629894293734,28.37
1629894293750,27.53
1629894293765,26.29
1629894293781,24.78
1629894293796,23.09
1629894293812,21.27
1629894293828,19.4
1629894293843,17.51
1629894293859,15.64
1629894293875,13.81
1629894293890,11.99
1629894293906,10.16
1629894293921,8.3
1629894293937,6.37
1629894293953,4.42
1629894293968,2.42
1629894293984,0.33
1629894294000,-1.83
1629894294015,-3.97
1629894294031,-5.74
1629894294046,-6.69
1629894294062,-6.29
1629894294078,-4.25
1629894294093,-0.59
1629894294109,4.35
1629894294125,10.1
1629894294140,16.29
1629894294156,22.78
1629894294171,29.57
1629894294187,36.62
1629894294203,43.66
1629894294218,50.09
1629894294234,55.15
1629894294250,58.06
1629894294265,58.16
1629894294281,54.91
1629894294296,47.89
1629894294312,36.89
1629894294328,22.03
1629894294343,4.06
1629894294359,-15.56
1629894294375,-34.75
1629894294390,-51.27
1629894294406,-63.27
1629894294421,-69.88
1629894294437,-71.37
1629894294453,-69.08
1629894294468,-64.93
1629894294484,-60.77
1629894294500,-57.88
1629894294515,-56.66
1629894294531,-56.79
1629894294546,-57.58
1629894294562,-58.3
1629894294578,-58.33
1629894294593,-57.22
1629894294609,-54.68
1629894294625,-50.7
1629894294640,-45.78
1629894294656,-40.99
1629894294671,-37.72
1629894294687,-37.03
1629894294703,-39.03
1629894294718,-42.59
1629894294734,-45.69
1629894294750,-46.27
1629894294765,-43.08
1629894294781,-36.14
1629894294796,-26.57
1629894294812,-15.96
1629894294828,-5.74
1629894294843,3.11
1629894294859,10.1
1629894294875,14.97
1629894294890,17.66
1629894294906,18.32
1629894294921,17.46
1629894294937,15.87
1629894294953,14.47
1629894294968,14.03
1629894294984,14.95
1629894295000,17.14
1629894295015,20.11
1629894295031,23.31
1629894295046,26.18
1629894295062,28.43
1629894295078,30.03
1629894295093,31.09
1629894295109,31.86
1629894295125,32.53
1629894295140,33.33
1629894295156,34.51
1629894295171,36.31
1629894295187,38.82
1629894295203,41.81
1629894295218,44.62
1629894295234,46.34
1629894295250,46.2
1629894295265,43.99
1629894295281,40.25
1629894295296,36.08
1629894295312,32.64
1629894295328,30.55
1629894295343,29.68
1629894295359,29.33
1629894295375,28.68
1629894295390,27.27
1629894295406,25.19
1629894295421,22.9
1629894295437,20.93
1629894295453,19.57
1629894295468,18.83
1629894295484,18.55
1629894295500,18.57
1629894295515,18.82
1629894295531,19.33
1629894295546,20.03
1629894295562,20.76
1629894295578,21.19
1629894295593,20.93
1629894295609,19.69
1629894295625,17.34
1629894295640,14.05
1629894295656,10.16
1629894295671,6.09
1629894295687,2.16
1629894295703,-1.48
1629894295718,-4.86
1629894295734,-8.08
1629894295750,-11.11
1629894295765,-13.87
1629894295781,-16.19
1629894295796,-18.04
1629894295812,-19.55
1629894295828,-20.98
1629894295843,-22.52
1629894295859,-24.09
1629894295875,-25.22
1629894295890,-25.24
1629894295906,-23.58
1629894295921,-20.05
1629894295937,-15.03
1629894295953,-9.4
1629894295968,-4.12
1629894295984,0.06
1629894296000,2.99
1629894296015,5.04
1629894296031,6.93
1629894296046,9.35
1629894296062,12.63
1629894296078,16.63
1629894296093,20.79
1629894296109,24.43
1629894296125,27.02
1629894296140,28.37
1629894296156,28.75
1629894296171,28.7
1629894296187,29.0
1629894296203,30.48
1629894296218,34.0
1629894296234,40.22
1629894296250,49.29
1629894296265,60.37
1629894296281,71.47
1629894296296,79.75
1629894296312,82.37
1629894296328,77.61
1629894296343,65.62
1629894296359,48.46
1629894296375,29.18
1629894296390,10.63
1629894296406,-5.58
1629894296421,-19.31
1629894296437,-31.31
1629894296453,-42.27
1629894296468,-52.07
1629894296484,-59.72
1629894296500,-63.9
1629894296515,-63.77
1629894296531,-59.49
1629894296546,-52.21
1629894296562,-43.64
1629894296578,-35.35
1629894296593,-28.34
1629894296609,-22.9
1629894296625,-18.81
1629894296640,-15.72
1629894296656,-13.37
1629894296671,-11.82
1629894296687,-11.2
1629894296703,-11.58
1629894296718,-12.76
1629894296734,-14.27
1629894296750,-15.52
1629894296765,-16.1
1629894296781,-15.93
1629894296796,-15.32
1629894296812,-14.83
1629894296828,-14.91
1629894296843,-15.75
1629894296859,-17.2
1629894296875,-18.82
1629894296890,-20.23
1629894296906,-21.17
1629894296921,-21.7
1629894296937,-22.07
1629894296953,-22.51
1629894296968,-23.12
1629894296984,-23.74
1629894297000,-24.01
1629894297015,-23.55
1629894297031,-22.02
1629894297046,-19.34
1629894297062,-15.66
1629894297078,-11.46
1629894297093,-7.34
1629894297109,-3.88
1629894297125,-1.48
1629894297140,-0.19
1629894297156,0.24
1629894297171,0.23
1629894297187,0.23
1629894297203,0.49
1629894297218,1.1
1629894297234,1.99
1629894297250,2.99
1629894297265,3.99
1629894297281,4.91
1629894297296,5.72
1629894297312,6.4
1629894297328,6.97
1629894297343,7.43
1629894297359,7.83
1629894297375,8.21
1629894297390,8.55
1629894297406,8.76
1629894297421,8.74
1629894297437,8.4
1629894297453,7.69
1629894297468,6.66
1629894297484,5.43
1629894297500,4.11
1629894297515,2.81
1629894297531,1.6
1629894297546,0.56
1629894297562,-0.21
1629894297578,-0.65
1629894297593,-0.72
1629894297609,-0.5
1629894297625,-0.17
1629894297640,0.07
1629894297656,0.09
1629894297671,-0.14
1629894297687,-0.46
1629894297703,-0.75
1629894297718,-0.94
1629894297734,-1.14
1629894297750,-1.55
1629894297765,-2.36
1629894297781,-3.61
1629894297796,-5.14
1629894297812,-6.7
1629894297828,-8.07
1629894297843,-9.21
1629894297859,-10.23
1629894297875,-11.28
1629894297890,-12.55
1629894297906,-14.06
1629894297921,-15.76
1629894297937,-17.51
1629894297953,-19.12
1629894297968,-20.33
1629894297984,-20.88
1629894298000,-20.51
1629894298015,-19.12
1629894298031,-16.8
1629894298046,-13.83
1629894298062,-10.62
1629894298078,-7.55
1629894298093,-4.89
1629894298109,-2.7
1629894298125,-0.96
1629894298140,0.45
1629894298156,1.62
1629894298171,2.63
1629894298187,3.56
1629894298203,4.42
1629894298218,5.24
1629894298234,5.97
1629894298250,6.51
1629894298265,6.8
1629894298281,6.8
1629894298296,6.63
1629894298312,6.41
1629894298328,6.32
1629894298343,6.42
1629894298359,6.67
1629894298375,6.91
1629894298390,7.0
1629894298406,6.85
1629894298421,6.51
1629894298437,6.11
1629894298453,5.77
1629894298468,5.49
1629894298484,5.14
1629894298500,4.52
1629894298515,3.56
1629894298531,2.39
1629894298546,1.3
1629894298562,0.61
1629894298578,0.47
1629894298593,0.77
1629894298609,1.17
1629894298625,1.28
1629894298640,0.86
1629894298656,-0.04
1629894298671,-1.21
1629894298687,-2.29
1629894298703,-3.09
1629894298718,-3.58
1629894298734,-3.9
1629894298750,-4.27
1629894298765,-4.84
1629894298781,-5.66
1629894298796,-6.68
1629894298812,-7.8
1629894298828,-8.95
1629894298843,-10.1
1629894298859,-11.27
1629894298875,-12.46
1629894298890,-13.67
1629894298906,-14.82
1629894298921,-15.78
1629894298937,-16.47
1629894298953,-16.81
1629894298968,-16.8
1629894298984,-16.45
1629894299000,-15.74
1629894299015,-14.58
1629894299031,-12.8
1629894299046,-10.33
1629894299062,-7.22
1629894299078,-3.75
1629894299093,-0.33
1629894299109,2.61
1629894299125,4.8
1629894299140,6.18
1629894299156,6.88
1629894299171,7.07
1629894299187,6.93
1629894299203,6.57
1629894299218,6.1
1629894299234,5.61
1629894299250,5.28
1629894299265,5.25
1629894299281,5.55
1629894299296,6.09
1629894299312,6.69
1629894299328,7.12
1629894299343,7.27
1629894299359,7.11
1629894299375,6.71
1629894299390,6.16
1629894299406,5.59
1629894299421,5.09
1629894299437,4.74
1629894299453,4.58
1629894299468,4.51
1629894299484,4.41
1629894299500,4.09
1629894299515,3.48
1629894299531,2.65
1629894299546,1.8
1629894299562,1.1
1629894299578,0.62
1629894299593,0.27
1629894299609,-0.16
1629894299625,-0.83
1629894299640,-1.8
1629894299656,-2.94
1629894299671,-4.02
1629894299687,-4.81
1629894299703,-5.2
1629894299718,-5.19
1629894299734,-4.91
1629894299750,-4.52
1629894299765,-4.22
1629894299781,-4.17
1629894299796,-4.45
1629894299812,-5.01
1629894299828,-5.69
1629894299843,-6.27
1629894299859,-6.64
1629894299875,-6.86
1629894299890,-7.18
1629894299906,-7.9
1629894299921,-9.15
1629894299937,-10.8
1629894299953,-12.46
1629894299968,-13.68
1629894299984,-14.13
1629894300000,-13.75
1629894300015,-12.69
1629894300031,-11.15
1629894300046,-9.31
1629894300062,-7.23
1629894300078,-5.01
1629894300093,-2.8
1629894300109,-0.86
1629894300125,0.59
1629894300140,1.5
1629894300156,1.97
1629894300171,2.23
1629894300187,2.44
1629894300203,2.6
1629894300218,2.56
1629894300234,2.19
1629894300250,1.52
1629894300265,0.76
1629894300281,0.24
1629894300296,0.2
1629894300312,0.68
1629894300328,1.47
1629894300343,2.32
1629894300359,3.07
1629894300375,3.7
1629894300390,4.37
1629894300406,5.22
1629894300421,6.26
1629894300437,7.34
1629894300453,8.15
1629894300468,8.48
1629894300484,8.24
1629894300500,7.55
1629894300515,6.68
1629894300531,5.88
1629894300546,5.29
1629894300562,4.85
1629894300578,4.38
1629894300593,3.71
1629894300609,2.77
1629894300625,1.66
1629894300640,0.58
1629894300656,-0.25
1629894300671,-0.71
1629894300687,-0.86
1629894300703,-0.82
1629894300718,-0.75
1629894300734,-0.73
1629894300750,-0.8
1629894300765,-0.91
1629894300781,-1.08
1629894300796,-1.37
1629894300812,-1.85
1629894300828,-2.65
1629894300843,-3.77
1629894300859,-5.22
1629894300875,-6.94
1629894300890,-8.8
1629894300906,-10.62
1629894300921,-12.23
1629894300937,-13.49
1629894300953,-14.37
1629894300968,-14.92
1629894300984,-15.24
1629894301000,-15.37
1629894301015,-15.22
1629894301031,-14.55
1629894301046,-13.13
1629894301062,-10.86
1629894301078,-7.93
1629894301093,-4.73
1629894301109,-1.78
1629894301125,0.55
1629894301140,2.19
1629894301156,3.29
1629894301171,4.13
1629894301187,4.87
1629894301203,5.46
1629894301218,5.69
1629894301234,5.4
1629894301250,4.57
1629894301265,3.46
1629894301281,2.41
1629894301296,1.71
1629894301312,1.46
1629894301328,1.55
1629894301343,1.83
1629894301359,2.22
1629894301375,2.71
1629894301390,3.38
1629894301406,4.22
1629894301421,5.11
1629894301437,5.88
1629894301453,6.41
1629894301468,6.63
1629894301484,6.58
1629894301500,6.3
1629894301515,5.85
1629894301531,5.26
1629894301546,4.6
1629894301562,3.99
1629894301578,3.53
1629894301593,3.3
1629894301609,3.25
1629894301625,3.23
1629894301640,3.07
1629894301656,2.61
1629894301671,1.78
1629894301687,0.71
1629894301703,-0.44
1629894301718,-1.47
1629894301734,-2.28
1629894301750,-2.91
1629894301765,-3.53
1629894301781,-4.33
1629894301796,-5.44
1629894301812,-6.81
1629894301828,-8.33
1629894301843,-9.83
1629894301859,-11.2
1629894301875,-12.46
1629894301890,-13.62
1629894301906,-14.59
1629894301921,-15.17
1629894301937,-15.03
1629894301953,-13.94
1629894301968,-11.82
1629894301984,-8.85
1629894302000,-5.41
1629894302015,-1.94
1629894302031,1.17
1629894302046,3.66
1629894302062,5.42
1629894302078,6.42
1629894302093,6.77
1629894302109,6.57
1629894302125,5.99
1629894302140,5.25
1629894302156,4.54
1629894302171,4.07
1629894302187,4.0
1629894302203,4.37
1629894302218,5.07
1629894302234,5.95
1629894302250,6.86
1629894302265,7.74
1629894302281,8.64
1629894302296,9.62
1629894302312,10.72
1629894302328,11.78
1629894302343,12.59
1629894302359,12.97
1629894302375,12.84
1629894302390,12.31
1629894302406,11.56
1629894302421,10.74
1629894302437,9.95
1629894302453,9.14
1629894302468,8.2
1629894302484,7.05
1629894302500,5.68
1629894302515,4.17
1629894302531,2.6
1629894302546,1.05
1629894302562,-0.41
1629894302578,-1.75
1629894302593,-2.91
1629894302609,-3.86
1629894302625,-4.56
1629894302640,-4.99
1629894302656,-5.2
1629894302671,-5.29
1629894302687,-5.39
1629894302703,-5.68
1629894302718,-6.26
1629894302734,-7.2
1629894302750,-8.49
1629894302765,-10.1
1629894302781,-11.95
1629894302796,-13.97
1629894302812,-16.0
1629894302828,-17.81
1629894302843,-19.09
1629894302859,-19.49
1629894302875,-18.76
1629894302890,-16.9
1629894302906,-14.11
1629894302921,-10.79
1629894302937,-7.4
1629894302953,-4.25
1629894302968,-1.53
1629894302984,0.74
1629894303000,2.61
1629894303015,4.17
1629894303031,5.5
1629894303046,6.66
1629894303062,7.72
1629894303078,8.71
1629894303093,9.59
1629894303109,10.27
1629894303125,10.64
1629894303140,10.65
1629894303156,10.38
1629894303171,10.04
1629894303187,9.85
1629894303203,10.03
1629894303218,10.61
1629894303234,11.45
1629894303250,12.33
1629894303265,13.01
1629894303281,13.4
1629894303296,13.49
1629894303312,13.39
1629894303328,13.25
1629894303343,13.16
1629894303359,13.12
1629894303375,13.05
1629894303390,12.77
1629894303406,12.11
1629894303421,10.99
1629894303437,9.49
1629894303453,7.96
1629894303468,6.88
1629894303484,6.8
1629894303500,8.09
1629894303515,10.79
1629894303531,14.47
1629894303546,18.31
1629894303562,21.36
1629894303578,22.79
1629894303593,22.18
1629894303609,19.58
1629894303625,15.42
1629894303640,10.31
1629894303656,4.84
1629894303671,-0.57
1629894303687,-5.66
1629894303703,-10.28
1629894303718,-14.4
1629894303734,-17.97
1629894303750,-21.04
1629894303765,-23.64
1629894303781,-25.77
1629894303796,-27.33
1629894303812,-28.16
1629894303828,-28.14
1629894303843,-27.18
1629894303859,-25.38
1629894303875,-22.88
1629894303890,-19.89
1629894303906,-16.55
1629894303921,-13.02
1629894303937,-9.49
1629894303953,-6.2
1629894303968,-3.43
1629894303984,-1.46
1629894304000,-0.41
1629894304015,-0.21
1629894304031,-0.61
1629894304046,-1.26
1629894304062,-1.86
1629894304078,-2.15
1629894304093,-2.01
1629894304109,-1.39
1629894304125,-0.34
1629894304140,1.02
1629894304156,2.54
1629894304171,4.01
1629894304187,5.24
1629894304203,6.09
1629894304218,6.49
1629894304234,6.45
1629894304250,6.07
1629894304265,5.48
1629894304281,4.83
1629894304296,4.29
1629894304312,4.0
1629894304328,3.99
1629894304343,4.2
1629894304359,4.39
1629894304375,4.29
1629894304390,3.76
1629894304406,2.81
1629894304421,1.66
1629894304437,0.65
1629894304453,-0.0
1629894304468,-0.3
1629894304484,-0.48
1629894304500,-0.85
1629894304515,-1.66
1629894304531,-2.91
1629894304546,-4.44
1629894304562,-6.0
1629894304578,-7.43
1629894304593,-8.7
1629894304609,-9.95
1629894304625,-11.31
1629894304640,-12.93
1629894304656,-14.81
1629894304671,-16.89
1629894304687,-19.05
1629894304703,-21.15
1629894304718,-23.0
1629894304734,-24.37
1629894304750,-24.99
1629894304765,-24.65
1629894304781,-23.15
1629894304796,-20.53
1629894304812,-17.02
1629894304828,-13.04
1629894304843,-9.04
1629894304859,-5.42
1629894304875,-2.44
1629894304890,-0.09
1629894304906,1.75
1629894304921,3.26
1629894304937,4.52
1629894304953,5.48
1629894304968,6.06
1629894304984,6.16
1629894305000,5.88
1629894305015,5.42
1629894305031,5.04
1629894305046,4.92
1629894305062,5.11
1629894305078,5.55
1629894305093,6.15
1629894305109,6.82
1629894305125,7.6
1629894305140,8.47
1629894305156,9.4
1629894305171,10.29
1629894305187,11.02
1629894305203,11.49
1629894305218,11.64
1629894305234,11.46
1629894305250,10.97
1629894305265,10.18
1629894305281,9.19
1629894305296,8.09
1629894305312,7.0
1629894305328,6.0
1629894305343,5.08
1629894305359,4.21
1629894305375,3.37
1629894305390,2.55
1629894305406,1.84
1629894305421,1.29
1629894305437,0.87
1629894305453,0.45
1629894305468,-0.15
1629894305484,-1.09
1629894305500,-2.43
1629894305515,-4.1
1629894305531,-5.97
1629894305546,-7.92
1629894305562,-9.9
1629894305578,-11.9
1629894305593,-13.92
1629894305609,-15.97
1629894305625,-17.99
1629894305640,-19.91
1629894305656,-21.6
1629894305671,-22.93
1629894305687,-23.71
1629894305703,-23.81
1629894305718,-23.12
1629894305734,-21.6
1629894305750,-19.31
1629894305765,-16.33
1629894305781,-12.85
1629894305796,-9.05
1629894305812,-5.15
1629894305828,-1.36
1629894305843,2.09
1629894305859,5.02
1629894305875,7.32
1629894305890,9.02
1629894305906,10.22
1629894305921,11.12
1629894305937,11.87
1629894305953,12.59
1629894305968,13.26
1629894305984,13.82
1629894306000,14.2
1629894306015,14.36
1629894306031,14.38
1629894306046,14.39
1629894306062,14.5
1629894306078,14.77
1629894306093,15.19
1629894306109,15.68
1629894306125,16.13
1629894306140,16.48
1629894306156,16.71
1629894306171,16.8
1629894306187,16.75
1629894306203,16.55
1629894306218,16.15
1629894306234,15.52
1629894306250,14.62
1629894306265,13.44
1629894306281,11.95
1629894306296,10.24
1629894306312,8.44
1629894306328,6.77
1629894306343,5.49
1629894306359,4.7
1629894306375,4.34
1629894306390,4.19
1629894306406,3.99
1629894306421,3.61
1629894306437,3.09
1629894306453,2.58
1629894306468,2.18
1629894306484,1.88
1629894306500,1.46
1629894306515,0.65
1629894306531,-0.77
1629894306546,-2.84
1629894306562,-5.51
1629894306578,-8.59
1629894306593,-11.96
1629894306609,-15.52
1629894306625,-19.25
1629894306640,-23.05
1629894306656,-26.73
1629894306671,-29.94
1629894306687,-32.23
1629894306703,-33.14
1629894306718,-32.39
1629894306734,-29.94
1629894306750,-26.08
1629894306765,-21.29
1629894306781,-16.12
1629894306796,-10.99
1629894306812,-6.16
1629894306828,-1.79
1629894306843,2.03
1629894306859,5.17
1629894306875,7.53
1629894306890,9.09
1629894306906,10.05
1629894306921,10.69
1629894306937,11.32
1629894306953,12.15
1629894306968,13.25
1629894306984,14.5
1629894307000,15.79
1629894307015,16.99
1629894307031,18.04
1629894307046,18.89
1629894307062,19.51
1629894307078,19.88
1629894307093,20.0
1629894307109,19.94
1629894307125,19.81
1629894307140,19.74
1629894307156,19.82
1629894307171,20.11
1629894307187,20.57
1629894307203,21.05
1629894307218,21.32
1629894307234,21.12
1629894307250,20.22
1629894307265,18.6
1629894307281,16.43
1629894307296,14.1
1629894307312,12.01
1629894307328,10.46
1629894307343,9.47
1629894307359,8.85
1629894307375,8.29
1629894307390,7.52
1629894307406,6.43
1629894307421,5.12
1629894307437,3.74
1629894307453,2.45
1629894307468,1.29
1629894307484,0.2
1629894307500,-0.91
1629894307515,-2.12
1629894307531,-3.45
1629894307546,-4.88
1629894307562,-6.34
1629894307578,-7.81
1629894307593,-9.31
1629894307609,-10.87
1629894307625,-12.51
1629894307640,-14.25
1629894307656,-16.11
1629894307671,-18.12
1629894307687,-20.27
1629894307703,-22.53
1629894307718,-24.75
1629894307734,-26.65
1629894307750,-27.83
1629894307765,-27.91
1629894307781,-26.6
1629894307796,-23.84
1629894307812,-19.83
1629894307828,-14.97
1629894307843,-9.73
1629894307859,-4.61
1629894307875,-0.06
1629894307890,3.61
1629894307906,6.25
1629894307921,7.9
1629894307937,8.75
1629894307953,9.17
1629894307968,9.48
1629894307984,9.96
1629894308000,10.68
1629894308015,11.58
1629894308031,12.49
1629894308046,13.28
1629894308062,13.93
1629894308078,14.48
1629894308093,15.04
1629894308109,15.66
1629894308125,16.35
1629894308140,17.12
1629894308156,17.94
1629894308171,18.75
1629894308187,19.52
1629894308203,20.13
1629894308218,20.42
1629894308234,20.25
1629894308250,19.53
1629894308265,18.28
1629894308281,16.63
1629894308296,14.79
1629894308312,12.96
1629894308328,11.26
1629894308343,9.76
1629894308359,8.44
1629894308375,7.28
1629894308390,6.25
1629894308406,5.34
1629894308421,4.52
1629894308437,3.76
1629894308453,3.05
1629894308468,2.37
1629894308484,1.71
1629894308500,1.06
1629894308515,0.39
1629894308531,-0.34
1629894308546,-1.2
1629894308562,-2.22
1629894308578,-3.42
1629894308593,-4.73
1629894308609,-6.14
1629894308625,-7.62
1629894308640,-9.14
1629894308656,-10.64
1629894308671,-12.09
1629894308687,-13.42
1629894308703,-14.62
1629894308718,-15.8
1629894308734,-17.08
1629894308750,-18.63
1629894308765,-20.51
1629894308781,-22.63
1629894308796,-24.69
1629894308812,-26.33
1629894308828,-27.14
1629894308843,-26.84
1629894308859,-25.28
1629894308875,-22.5
1629894308890,-18.68
1629894308906,-14.11
1629894308921,-9.14
1629894308937,-4.14
1629894308953,0.54
1629894308968,4.59
1629894308984,7.79
1629894309000,10.04
1629894309015,11.37
1629894309031,11.95
1629894309046,12.04
1629894309062,11.93
1629894309078,11.8
1629894309093,11.73
1629894309109,11.67
1629894309125,11.57
1629894309140,11.4
1629894309156,11.25
1629894309171,11.24
1629894309187,11.5
1629894309203,12.06
1629894309218,12.84
1629894309234,13.75
1629894309250,14.67
1629894309265,15.53
1629894309281,16.29
1629894309296,16.92
1629894309312,17.31
1629894309328,17.4
1629894309343,17.08
1629894309359,16.33
1629894309375,15.18
1629894309390,13.77
1629894309406,12.3
1629894309421,10.94
1629894309437,9.85
1629894309453,9.04
1629894309468,8.44
1629894309484,7.89
1629894309500,7.2
1629894309515,6.25
1629894309531,5.06
1629894309546,3.75
1629894309562,2.48
1629894309578,1.35
1629894309593,0.39
1629894309609,-0.52
1629894309625,-1.51
1629894309640,-2.67
1629894309656,-4.01
1629894309671,-5.41
1629894309687,-6.75
1629894309703,-7.96
1629894309718,-9.07
1629894309734,-10.2
1629894309750,-11.54
1629894309765,-13.22
1629894309781,-15.24
1629894309796,-17.53
1629894309812,-19.91
1629894309828,-22.13
1629894309843,-23.9
1629894309859,-24.94
1629894309875,-24.96
1629894309890,-23.79
1629894309906,-21.35
1629894309921,-17.76
1629894309937,-13.27
1629894309953,-8.29
1629894309968,-3.25
1629894309984,1.44
1629894310000,5.45
1629894310015,8.6
1629894310031,10.8
1629894310046,12.11
1629894310062,12.63
1629894310078,12.57
1629894310093,12.12
1629894310109,11.48
1629894310125,10.78
1629894310140,10.09
1629894310156,9.49
1629894310171,9.02
1629894310187,8.79
1629894310203,8.86
1629894310218,9.25
1629894310234,9.89
1629894310250,10.61
1629894310265,11.19
1629894310281,11.51
1629894310296,11.56
1629894310312,11.48
1629894310328,11.44
1629894310343,11.6
1629894310359,11.95
1629894310375,12.33
1629894310390,12.51
1629894310406,12.31
1629894310421,11.65
1629894310437,10.58
1629894310453,9.23
1629894310468,7.74
1629894310484,6.22
1629894310500,4.71
1629894310515,3.23
1629894310531,1.72
1629894310546,0.13
1629894310562,-1.6
1629894310578,-3.56
1629894310593,-5.8
1629894310609,-8.29
1629894310625,-11.0
1629894310640,-13.86
1629894310656,-16.8
1629894310671,-19.79
1629894310687,-22.81
1629894310703,-25.85
1629894310718,-28.88
1629894310734,-31.83
1629894310750,-34.67
1629894310765,-37.4
1629894310781,-40.1
1629894310796,-42.9
1629894310812,-45.94
1629894310828,-49.31
1629894310843,-52.93
1629894310859,-56.58
1629894310875,-59.88
1629894310890,-62.31
1629894310906,-63.32
1629894310921,-62.37
1629894310937,-59.07
1629894310953,-53.19
1629894310968,-44.84
1629894310984,-34.41
1629894311000,-22.54
1629894311015,-10.02
1629894311031,2.38
1629894311046,14.02
1629894311062,24.45
1629894311078,33.41
1629894311093,40.71
1629894311109,46.25
1629894311125,50.01
1629894311140,52.1
1629894311156,52.81
1629894311171,52.5
1629894311187,51.59
1629894311203,50.41
1629894311218,49.15
1629894311234,47.89
1629894311250,46.64
1629894311265,45.35
1629894311281,44.04
1629894311296,42.7
1629894311312,41.32
1629894311328,39.85
1629894311343,38.21
1629894311359,36.31
1629894311375,34.11
1629894311390,31.64
1629894311406,29.02
1629894311421,26.42
1629894311437,23.99
1629894311453,21.85
1629894311468,20.02
1629894311484,18.43
1629894311500,16.95
1629894311515,15.48
1629894311531,13.97
1629894311546,12.45
1629894311562,10.96
1629894311578,9.5
1629894311593,8.02
1629894311609,6.44
1629894311625,4.71
1629894311640,2.86
1629894311656,1.02
1629894311671,-0.66
1629894311687,-2.09
1629894311703,-3.27
1629894311718,-4.32
1629894311734,-5.38
1629894311750,-6.59
1629894311765,-7.96
1629894311781,-9.45
1629894311796,-10.96
1629894311812,-12.44
1629894311828,-13.9
1629894311843,-15.42
1629894311859,-17.09
1629894311875,-18.96
1629894311890,-20.97
1629894311906,-22.91
1629894311921,-24.51
1629894311937,-25.43
1629894311953,-25.38
1629894311968,-24.19
1629894311984,-21.88
1629894312000,-18.64
1629894312015,-14.79
1629894312031,-10.76
1629894312046,-6.95
1629894312062,-3.67
1629894312078,-1.09
1629894312093,0.78
1629894312109,2.08
1629894312125,3.02
1629894312140,3.79
1629894312156,4.51
1629894312171,5.22
1629894312187,5.92
1629894312203,6.55
1629894312218,7.11
1629894312234,7.59
1629894312250,8.03
1629894312265,8.46
1629894312281,8.88
1629894312296,9.26
1629894312312,9.52
1629894312328,9.66
1629894312343,9.72
1629894312359,9.79
1629894312375,9.93
1629894312390,10.12
1629894312406,10.24
1629894312421,10.09
1629894312437,9.61
1629894312453,8.83
1629894312468,7.92
1629894312484,7.07
1629894312500,6.36
1629894312515,5.71
1629894312531,4.98
1629894312546,4.07
1629894312562,3.0
1629894312578,1.91
1629894312593,0.92
1629894312609,0.06
1629894312625,-0.76
1629894312640,-1.69
1629894312656,-2.84
1629894312671,-4.18
1629894312687,-5.59
1629894312703,-6.95
1629894312718,-8.19
1629894312734,-9.34
1629894312750,-10.46
1629894312765,-11.65
1629894312781,-12.9
1629894312796,-14.15
1629894312812,-15.35
1629894312828,-16.5
1629894312843,-17.67
1629894312859,-18.97
1629894312875,-20.37
1629894312890,-21.73
1629894312906,-22.7
1629894312921,-22.9
1629894312937,-22.0
1629894312953,-19.91
1629894312968,-16.79
1629894312984,-12.98
1629894313000,-8.88
1629894313015,-4.86
1629894313031,-1.16
1629894313046,2.06
1629894313062,4.74
1629894313078,6.86
1629894313093,8.46
1629894313109,9.56
1629894313125,10.22
1629894313140,10.49
1629894313156,10.43
1629894313171,10.16
1629894313187,9.83
1629894313203,9.65
1629894313218,9.77
1629894313234,10.29
1629894313250,11.15
1629894313265,12.23
1629894313281,13.36
1629894313296,14.37
1629894313312,15.15
1629894313328,15.59
1629894313343,15.66
1629894313359,15.37
1629894313375,14.8
1629894313390,14.05
1629894313406,13.25
1629894313421,12.43
1629894313437,11.6
1629894313453,10.69
1629894313468,9.7
1629894313484,8.63
1629894313500,7.53
1629894313515,6.41
1629894313531,5.27
1629894313546,4.07
1629894313562,2.84
1629894313578,1.64
1629894313593,0.58
1629894313609,-0.32
1629894313625,-1.13
1629894313640,-2.02
1629894313656,-3.15
1629894313671,-4.52
1629894313687,-6.02
1629894313703,-7.39
1629894313718,-8.44
1629894313734,-9.15
1629894313750,-9.68
1629894313765,-10.38
1629894313781,-11.57
1629894313796,-13.45
1629894313812,-15.99
1629894313828,-18.96
1629894313843,-21.95
1629894313859,-24.53
1629894313875,-26.27
1629894313890,-26.91
1629894313906,-26.28
1629894313921,-24.38
1629894313937,-21.35
1629894313953,-17.42
1629894313968,-12.87
1629894313984,-8.04
1629894314000,-3.27
1629894314015,1.08
1629894314031,4.72
1629894314046,7.5
1629894314062,9.43
1629894314078,10.65
1629894314093,11.39
1629894314109,11.81
1629894314125,12.05
1629894314140,12.15
1629894314156,12.15
1629894314171,12.12
1629894314187,12.18
1629894314203,12.47
1629894314218,13.04
1629894314234,13.83
1629894314250,14.68
1629894314265,15.38
1629894314281,15.77
1629894314296,15.84
1629894314312,15.67
1629894314328,15.4
1629894314343,15.13
1629894314359,14.87
1629894314375,14.57
1629894314390,14.11
1629894314406,13.44
1629894314421,12.62
1629894314437,11.79
1629894314453,11.06
1629894314468,10.46
1629894314484,9.86
1629894314500,9.07
1629894314515,7.91
1629894314531,6.36
1629894314546,4.62
1629894314562,2.96
1629894314578,1.63
1629894314593,0.71
1629894314609,0.11
1629894314625,-0.41
1629894314640,-1.07
1629894314656,-2.01
1629894314671,-3.22
1629894314687,-4.57
1629894314703,-5.94
1629894314718,-7.21
1629894314734,-8.38
1629894314750,-9.53
1629894314765,-10.79
1629894314781,-12.28
1629894314796,-14.05
1629894314812,-16.07
1629894314828,-18.27
1629894314843,-20.56
1629894314859,-22.86
1629894314875,-25.05
1629894314890,-26.95
1629894314906,-28.26
1629894314921,-28.61
1629894314937,-27.7
1629894314953,-25.41
1629894314968,-21.9
1629894314984,-17.54
1629894315000,-12.86
1629894315015,-8.36
1629894315031,-4.38
1629894315046,-1.03
1629894315062,1.75
1629894315078,4.13
1629894315093,6.28
1629894315109,8.25
1629894315125,9.96
1629894315140,11.28
1629894315156,12.07
1629894315171,12.29
1629894315187,12.08
1629894315203,11.66
1629894315218,11.26
1629894315234,11.06
1629894315250,11.05
1629894315265,11.18
1629894315281,11.36
1629894315296,11.56
1629894315312,11.87
1629894315328,12.33
1629894315343,13.0
1629894315359,13.78
1629894315375,14.5
1629894315390,14.94
1629894315406,14.94
1629894315421,14.47
1629894315437,13.65
1629894315453,12.7
1629894315468,11.8
1629894315484,11.05
1629894315500,10.37
1629894315515,9.66
1629894315531,8.84
1629894315546,7.89
1629894315562,6.85
1629894315578,5.78
1629894315593,4.69
1629894315609,3.51
1629894315625,2.22
1629894315640,0.81
1629894315656,-0.63
1629894315671,-1.98
1629894315687,-3.2
1629894315703,-4.35
1629894315718,-5.52
1629894315734,-6.8
1629894315750,-8.23
1629894315765,-9.81
1629894315781,-11.48
1629894315796,-13.17
1629894315812,-14.81
1629894315828,-16.31
1629894315843,-17.64
1629894315859,-18.84
1629894315875,-20.07
1629894315890,-21.51
1629894315906,-23.31
1629894315921,-25.4
1629894315937,-27.48
1629894315953,-29.08
1629894315968,-29.69
1629894315984,-28.93
1629894316000,-26.71
1629894316015,-23.21
1629894316031,-18.79
1629894316046,-13.93
1629894316062,-9.09
1629894316078,-4.63
1629894316093,-0.8
1629894316109,2.28
1629894316125,4.6
1629894316140,6.22
1629894316156,7.25
1629894316171,7.87
1629894316187,8.23
1629894316203,8.53
1629894316218,8.89
1629894316234,9.35
1629894316250,9.84
1629894316265,10.27
1629894316281,10.56
1629894316296,10.71
1629894316312,10.84
1629894316328,11.07
1629894316343,11.44
1629894316359,11.87
1629894316375,12.2
1629894316390,12.27
1629894316406,12.0
1629894316421,11.49
1629894316437,10.92
1629894316453,10.47
1629894316468,10.2
1629894316484,10.05
1629894316500,9.85
1629894316515,9.45
1629894316531,8.75
1629894316546,7.73
1629894316562,6.42
1629894316578,4.9
1629894316593,3.28
1629894316609,1.7
1629894316625,0.34
1629894316640,-0.6
1629894316656,-1.06
1629894316671,-1.11
1629894316687,-0.94
1629894316703,-0.86
1629894316718,-1.1
1629894316734,-1.83
1629894316750,-3.06
1629894316765,-4.72
1629894316781,-6.68
1629894316796,-8.78
1629894316812,-10.89
1629894316828,-12.85
1629894316843,-14.56
1629894316859,-15.96
1629894316875,-17.11
1629894316890,-18.21
1629894316906,-19.51
1629894316921,-21.16
1629894316937,-23.08
1629894316953,-24.91
1629894316968,-26.11
1629894316984,-26.13
1629894317000,-24.68
1629894317015,-21.83
1629894317031,-17.94
1629894317046,-13.49
1629894317062,-8.96
1629894317078,-4.67
1629894317093,-0.78
1629894317109,2.62
1629894317125,5.48
1629894317140,7.7
1629894317156,9.24
1629894317171,10.1
1629894317187,10.34
1629894317203,10.15
1629894317218,9.74
1629894317234,9.33
1629894317250,9.03
1629894317265,8.86
1629894317281,8.73
1629894317296,8.6
1629894317312,8.49
1629894317328,8.53
1629894317343,8.88
1629894317359,9.6
1629894317375,10.6
1629894317390,11.65
1629894317406,12.47
1629894317421,12.86
1629894317437,12.78
1629894317453,12.31
1629894317468,11.59
1629894317484,10.69
1629894317500,9.65
1629894317515,8.45
1629894317531,7.13
1629894317546,5.79
1629894317562,4.56
1629894317578,3.52
1629894317593,2.68
1629894317609,1.95
1629894317625,1.17
1629894317640,0.22
1629894317656,-0.9
1629894317671,-2.08
1629894317687,-3.16
1629894317703,-4.03
1629894317718,-4.68
1629894317734,-5.24
1629894317750,-5.9
1629894317765,-6.77
1629894317781,-7.88
1629894317796,-9.08
1629894317812,-10.21
1629894317828,-11.16
1629894317843,-11.99
1629894317859,-12.93
1629894317875,-14.25
1629894317890,-16.14
1629894317906,-18.57
1629894317921,-21.22
1629894317937,-23.53
1629894317953,-24.85
1629894317968,-24.68
1629894317984,-22.84
1629894318000,-19.56
1629894318015,-15.38
1629894318031,-10.91
1629894318046,-6.66
1629894318062,-2.89
1629894318078,0.32
1629894318093,3.03
1629894318109,5.28
1629894318125,7.05
1629894318140,8.34
1629894318156,9.19
1629894318171,9.73
1629894318187,10.12
1629894318203,10.52
1629894318218,10.99
1629894318234,11.51
1629894318250,11.95
1629894318265,12.22
1629894318281,12.29
1629894318296,12.2
1629894318312,12.05
1629894318328,11.95
1629894318343,11.97
1629894318359,12.09
1629894318375,12.21
1629894318390,12.16
1629894318406,11.83
1629894318421,11.22
1629894318437,10.46
1629894318453,9.73
1629894318468,9.2
1629894318484,8.94
1629894318500,8.84
1629894318515,8.74
1629894318531,8.52
1629894318546,8.13
1629894318562,7.59
1629894318578,6.94
1629894318593,6.16
1629894318609,5.14
1629894318625,3.81
1629894318640,2.18
1629894318656,0.39
1629894318671,-1.32
1629894318687,-2.73
1629894318703,-3.71
1629894318718,-4.3
1629894318734,-4.67
1629894318750,-5.06
1629894318765,-5.72
1629894318781,-6.82
1629894318796,-8.41
1629894318812,-10.35
1629894318828,-12.41
1629894318843,-14.26
1629894318859,-15.71
1629894318875,-16.74
1629894318890,-17.59
1629894318906,-18.6
1629894318921,-20.02
1629894318937,-21.79
1629894318953,-23.55
1629894318968,-24.73
1629894318984,-24.8
1629894319000,-23.54
1629894319015,-21.03
1629894319031,-17.66
1629894319046,-13.86
1629894319062,-9.99
1629894319078,-6.29
1629894319093,-2.86
1629894319109,0.21
1629894319125,2.87
1629894319140,5.04
1629894319156,6.74
1629894319171,8.02
1629894319187,9.01
1629894319203,9.84
1629894319218,10.56
1629894319234,11.16
1629894319250,11.59
1629894319265,11.78
1629894319281,11.78
1629894319296,11.72
1629894319312,11.78
1629894319328,12.09
1629894319343,12.71
1629894319359,13.5
1629894319375,14.3
1629894319390,14.89
1629894319406,15.17
1629894319421,15.11
1629894319437,14.81
1629894319453,14.35
1629894319468,13.78
1629894319484,13.09
1629894319500,12.22
1629894319515,11.11
1629894319531,9.79
1629894319546,8.34
1629894319562,6.94
1629894319578,5.81
1629894319593,5.05
1629894319609,4.65
1629894319625,4.45
1629894319640,4.16
1629894319656,3.51
1629894319671,2.39
1629894319687,0.9
1629894319703,-0.73
1629894319718,-2.22
1629894319734,-3.4
1629894319750,-4.32
1629894319765,-5.18
1629894319781,-6.19
1629894319796,-7.47
1629894319812,-8.99
1629894319828,-10.56
1629894319843,-12.01
1629894319859,-13.29
1629894319875,-14.43
1629894319890,-15.59
1629894319906,-16.92
1629894319921,-18.54
1629894319937,-20.43
1629894319953,-22.53
1629894319968,-24.66
1629894319984,-26.56
1629894320000,-27.92
1629894320015,-28.41
1629894320031,-27.76
1629894320046,-25.84
1629894320062,-22.75
1629894320078,-18.77
1629894320093,-14.33
1629894320109,-9.89
1629894320125,-5.83
1629894320140,-2.35
1629894320156,0.49
1629894320171,2.78
1629894320187,4.68
1629894320203,6.36
1629894320218,7.92
1629894320234,9.36
1629894320250,10.61
1629894320265,11.55
1629894320281,12.07
1629894320296,12.15
1629894320312,11.85
1629894320328,11.33
1629894320343,10.81
1629894320359,10.45
1629894320375,10.38
1629894320390,10.6
1629894320406,11.1
1629894320421,11.78
1629894320437,12.54
1629894320453,13.22
1629894320468,13.68
1629894320484,13.81
1629894320500,13.53
1629894320515,12.87
1629894320531,11.92
1629894320546,10.81
1629894320562,9.66
1629894320578,8.59
1629894320593,7.65
1629894320609,6.89
1629894320625,6.28
1629894320640,5.69
1629894320656,4.95
1629894320671,3.87
1629894320687,2.42
1629894320703,0.78
1629894320718,-0.68
1629894320734,-1.61
1629894320750,-1.86
1629894320765,-1.6
1629894320781,-1.27
1629894320796,-1.35
1629894320812,-2.09
1629894320828,-3.47
1629894320843,-5.2
1629894320859,-6.95
1629894320875,-8.51
1629894320890,-9.89
1629894320906,-11.17
1629894320921,-12.52
1629894320937,-14.05
1629894320953,-15.76
1629894320968,-17.6
1629894320984,-19.43
1629894321000,-21.04
1629894321015,-22.17
1629894321031,-22.56
1629894321046,-22.02
1629894321062,-20.47
1629894321078,-17.96
1629894321093,-14.64
1629894321109,-10.74
1629894321125,-6.57
1629894321140,-2.46
1629894321156,1.23
1629894321171,4.19
1629894321187,6.28
1629894321203,7.5
1629894321218,8.01
1629894321234,8.01
1629894321250,7.65
1629894321265,7.08
1629894321281,6.35
1629894321296,5.57
1629894321312,4.85
1629894321328,4.31
1629894321343,4.06
1629894321359,4.16
1629894321375,4.59
1629894321390,5.27
1629894321406,6.03
1629894321421,6.67
1629894321437,7.05
1629894321453,7.17
1629894321468,7.17
1629894321484,7.24
1629894321500,7.5
1629894321515,7.94
1629894321531,8.36
1629894321546,8.55
1629894321562,8.37
1629894321578,7.86
1629894321593,7.15
1629894321609,6.4
1629894321625,5.65
1629894321640,4.85
1629894321656,3.9
1629894321671,2.78
1629894321687,1.52
1629894321703,0.24
1629894321718,-0.93
1629894321734,-1.95
1629894321750,-2.82
1629894321765,-3.59
1629894321781,-4.31
1629894321796,-5.03
1629894321812,-5.77
1629894321828,-6.57
1629894321843,-7.48
1629894321859,-8.54
1629894321875,-9.82
1629894321890,-11.35
1629894321906,-13.17
1629894321921,-15.25
1629894321937,-17.44
1629894321953,-19.47
1629894321968,-20.95
1629894321984,-21.44
1629894322000,-20.63
1629894322015,-18.43
1629894322031,-15.03
1629894322046,-10.89
1629894322062,-6.58
1629894322078,-2.6
1629894322093,0.79
1629894322109,3.53
1629894322125,5.7
1629894322140,7.39
1629894322156,8.54
1629894322171,9.07
1629894322187,8.97
1629894322203,8.41
1629894322218,7.75
1629894322234,7.38
1629894322250,7.59
1629894322265,8.38
1629894322281,9.51
1629894322296,10.66
1629894322312,11.59
1629894322328,12.26
1629894322343,12.75
1629894322359,13.18
1629894322375,13.58
1629894322390,13.85
1629894322406,13.89
1629894322421,13.66
1629894322437,13.26
1629894322453,12.85
1629894322468,12.55
1629894322484,12.3
1629894322500,11.89
1629894322515,11.04
1629894322531,9.6
1629894322546,7.63
1629894322562,5.43
1629894322578,3.35
1629894322593,1.67
1629894322609,0.47
1629894322625,-0.36
1629894322640,-1.03
1629894322656,-1.69
1629894322671,-2.38
1629894322687,-3.08
1629894322703,-3.76
1629894322718,-4.48
1629894322734,-5.39
1629894322750,-6.65
1629894322765,-8.31
1629894322781,-10.28
1629894322796,-12.36
1629894322812,-14.37
1629894322828,-16.2
1629894322843,-17.9
1629894322859,-19.59
1629894322875,-21.31
1629894322890,-23.01
1629894322906,-24.39
1629894322921,-25.06
1629894322937,-24.63
1629894322953,-22.88
1629894322968,-19.83
1629894322984,-15.76
1629894323000,-11.14
1629894323015,-6.47
1629894323031,-2.19
1629894323046,1.45
1629894323062,4.38
1629894323078,6.66
1629894323093,8.39
1629894323109,9.68
1629894323125,10.64
1629894323140,11.31
1629894323156,11.76
1629894323171,12.07
1629894323187,12.29
1629894323203,12.48
1629894323218,12.62
1629894323234,12.7
1629894323250,12.66
1629894323265,12.47
1629894323281,12.18
1629894323296,11.91
1629894323312,11.79
1629894323328,11.96
1629894323343,12.41
1629894323359,13.03
1629894323375,13.6
1629894323390,13.91
1629894323406,13.86
1629894323421,13.52
1629894323437,13.02
1629894323453,12.45
1629894323468,11.79
1629894323484,10.94
1629894323500,9.76
1629894323515,8.27
1629894323531,6.58
1629894323546,4.93
1629894323562,3.49
1629894323578,2.31
1629894323593,1.29
1629894323609,0.25
1629894323625,-0.96
1629894323640,-2.39
1629894323656,-4.02
1629894323671,-5.7
1629894323687,-7.3
1629894323703,-8.75
1629894323718,-10.04
1629894323734,-11.3
1629894323750,-12.7
1629894323765,-14.39
1629894323781,-16.41
1629894323796,-18.67
1629894323812,-20.94
1629894323828,-22.93
1629894323843,-24.35
1629894323859,-25.0
1629894323875,-24.75
1629894323890,-23.58
1629894323906,-21.55
1629894323921,-18.78
1629894323937,-15.45
1629894323953,-11.81
1629894323968,-8.08
1629894323984,-4.46
1629894324000,-1.01
1629894324015,2.24
1629894324031,5.27
1629894324046,8.04
1629894324062,10.41
1629894324078,12.27
1629894324093,13.51
1629894324109,14.14
1629894324125,14.25
1629894324140,14.03
1629894324156,13.69
1629894324171,13.41
1629894324187,13.33
1629894324203,13.45
1629894324218,13.76
1629894324234,14.14
1629894324250,14.49
1629894324265,14.74
1629894324281,14.93
1629894324296,15.13
1629894324312,15.37
1629894324328,15.65
1629894324343,15.85
1629894324359,15.81
1629894324375,15.41
1629894324390,14.61
1629894324406,13.45
1629894324421,12.08
1629894324437,10.63
1629894324453,9.25
1629894324468,8.02
1629894324484,7.02
1629894324500,6.25
1629894324515,5.61
1629894324531,4.93
1629894324546,4.07
1629894324562,2.87
1629894324578,1.34
1629894324593,-0.44
1629894324609,-2.33
1629894324625,-4.16
1629894324640,-5.89
1629894324656,-7.49
1629894324671,-9.03
1629894324687,-10.55
1629894324703,-12.1
1629894324718,-13.6
1629894324734,-15.01
1629894324750,-16.25
1629894324765,-17.38
1629894324781,-18.53
1629894324796,-19.91
1629894324812,-21.67
1629894324828,-23.75
1629894324843,-25.87
1629894324859,-27.54
1629894324875,-28.25
1629894324890,-27.66
1629894324906,-25.71
1629894324921,-22.68
1629894324937,-19.0
1629894324953,-15.11
1629894324968,-11.37
1629894324984,-7.98
1629894325000,-5.03
1629894325015,-2.6
1629894325031,-0.74
1629894325046,0.53
1629894325062,1.26
1629894325078,1.52
1629894325093,1.46
1629894325109,1.2
1629894325125,0.82
1629894325140,0.33
1629894325156,-0.33
1629894325171,-1.24
1629894325187,-2.42
1629894325203,-3.79
1629894325218,-5.17
1629894325234,-6.38
1629894325250,-7.26
1629894325265,-7.84
1629894325281,-8.26
1629894325296,-8.75
1629894325312,-9.56
1629894325328,-10.85
1629894325343,-12.65
1629894325359,-14.82
1629894325375,-17.11
1629894325390,-19.19
1629894325406,-20.72
1629894325421,-21.42
1629894325437,-21.13
1629894325453,-19.82
1629894325468,-17.54
1629894325484,-14.43
1629894325500,-10.64
1629894325515,-6.3
1629894325531,-1.56
1629894325546,3.41
1629894325562,8.41
1629894325578,13.24
1629894325593,17.73
1629894325609,21.71
1629894325625,25.02
1629894325640,27.49
1629894325656,28.93
1629894325671,29.19
1629894325687,28.28
1629894325703,26.39
1629894325718,23.8
1629894325734,20.88
1629894325750,17.87
1629894325765,14.86
1629894325781,11.77
1629894325796,8.55
1629894325812,5.22
1629894325828,1.99
1629894325843,-0.75
1629894325859,-2.6
1629894325875,-3.31
1629894325890,-2.85
1629894325906,-1.44
1629894325921,0.52
1629894325937,2.68
1629894325953,4.77
1629894325968,6.74
1629894325984,8.61
1629894326000,10.42
1629894326015,12.1
1629894326031,13.48
1629894326046,14.38
1629894326062,14.67
1629894326078,14.42
1629894326093,13.79
1629894326109,13.01
1629894326125,12.27
1629894326140,11.62
1629894326156,11.03
1629894326171,10.45
1629894326187,9.89
1629894326203,9.44
1629894326218,9.23
1629894326234,9.39
1629894326250,9.93
1629894326265,10.71
1629894326281,11.5
1629894326296,12.01
1629894326312,12.04
1629894326328,11.52
1629894326343,10.55
1629894326359,9.32
1629894326375,8.04
1629894326390,6.86
1629894326406,5.83
1629894326421,4.93
1629894326437,4.14
1629894326453,3.41
1629894326468,2.75
1629894326484,2.11
1629894326500,1.43
1629894326515,0.63
1629894326531,-0.35
1629894326546,-1.46
1629894326562,-2.62
1629894326578,-3.74
1629894326593,-4.77
1629894326609,-5.72
1629894326625,-6.64
1629894326640,-7.55
1629894326656,-8.41
1629894326671,-9.16
1629894326687,-9.77
1629894326703,-10.31
1629894326718,-10.94
1629894326734,-11.9
1629894326750,-13.35
1629894326765,-15.27
1629894326781,-17.48
1629894326796,-19.6
1629894326812,-21.17
1629894326828,-21.8
1629894326843,-21.2
1629894326859,-19.34
1629894326875,-16.37
1629894326890,-12.63
1629894326906,-8.55
1629894326921,-4.56
1629894326937,-0.99
1629894326953,1.97
1629894326968,4.26
1629894326984,5.99
1629894327000,7.28
1629894327015,8.24
1629894327031,8.9
1629894327046,9.27
1629894327062,9.35
1629894327078,9.27
1629894327093,9.26
1629894327109,9.56
1629894327125,10.29
1629894327140,11.36
1629894327156,12.47
1629894327171,13.24
1629894327187,13.43
1629894327203,13.03
1629894327218,12.26
1629894327234,11.39
1629894327250,10.64
1629894327265,10.09
1629894327281,9.66
1629894327296,9.23
1629894327312,8.8
1629894327328,8.39
1629894327343,8.07
1629894327359,7.86
1629894327375,7.66
1629894327390,7.28
1629894327406,6.57
1629894327421,5.46
1629894327437,4.03
1629894327453,2.51
1629894327468,1.15
1629894327484,0.07
1629894327500,-0.73
1629894327515,-1.36
1629894327531,-1.98
1629894327546,-2.67
1629894327562,-3.44
1629894327578,-4.24
1629894327593,-5.03
1629894327609,-5.85
1629894327625,-6.73
1629894327640,-7.72
1629894327656,-8.8
1629894327671,-9.95
1629894327687,-11.11
1629894327703,-12.35
1629894327718,-13.71
1629894327734,-15.26
1629894327750,-16.99
1629894327765,-18.78
1629894327781,-20.43
1629894327796,-21.69
1629894327812,-22.29
1629894327828,-22.02
1629894327843,-20.77
1629894327859,-18.54
1629894327875,-15.5
1629894327890,-11.95
1629894327906,-8.25
1629894327921,-4.73
1629894327937,-1.62
1629894327953,0.97
1629894327968,3.04
1629894327984,4.64
1629894328000,5.9
1629894328015,6.91
1629894328031,7.74
1629894328046,8.42
1629894328062,8.94
1629894328078,9.25
1629894328093,9.35
1629894328109,9.32
1629894328125,9.28
1629894328140,9.34
1629894328156,9.58
1629894328171,9.97
1629894328187,10.43
1629894328203,10.87
1629894328218,11.25
1629894328234,11.6
1629894328250,11.92
1629894328265,12.19
1629894328281,12.33
1629894328296,12.2
1629894328312,11.72
1629894328328,10.9
1629894328343,9.84
1629894328359,8.7
1629894328375,7.58
1629894328390,6.53
1629894328406,5.49
1629894328421,4.39
1629894328437,3.21
1629894328453,2.0
1629894328468,0.92
1629894328484,0.08
1629894328500,-0.46
1629894328515,-0.81
1629894328531,-1.2
1629894328546,-1.84
1629894328562,-2.93
1629894328578,-4.45
1629894328593,-6.28
1629894328609,-8.2
1629894328625,-10.02
1629894328640,-11.63
1629894328656,-13.0
1629894328671,-14.21
1629894328687,-15.35
1629894328703,-16.56
1629894328718,-17.97
1629894328734,-19.66
1629894328750,-21.6
1629894328765,-23.63
1629894328781,-25.44
1629894328796,-26.63
1629894328812,-26.79
1629894328828,-25.66
1629894328843,-23.21
1629894328859,-19.6
1629894328875,-15.22
1629894328890,-10.55
1629894328906,-6.08
1629894328921,-2.23
1629894328937,0.76
1629894328953,2.82
1629894328968,4.05
1629894328984,4.69
1629894329000,5.01
1629894329015,5.23
1629894329031,5.5
1629894329046,5.84
1629894329062,6.23
1629894329078,6.65
1629894329093,7.08
1629894329109,7.55
1629894329125,8.1
1629894329140,8.7
1629894329156,9.28
1629894329171,9.74
1629894329187,9.97
1629894329203,9.97
1629894329218,9.83
1629894329234,9.68
1629894329250,9.61
1629894329265,9.6
1629894329281,9.5
1629894329296,9.14
1629894329312,8.38
1629894329328,7.28
1629894329343,6.03
1629894329359,4.87
1629894329375,3.95
1629894329390,3.27
1629894329406,2.7
1629894329421,2.04
1629894329437,1.19
1629894329453,0.14
1629894329468,-1.03
1629894329484,-2.22
1629894329500,-3.42
1629894329515,-4.66
1629894329531,-5.99
1629894329546,-7.42
1629894329562,-8.88
1629894329578,-10.28
1629894329593,-11.53
1629894329609,-12.68
1629894329625,-13.86
1629894329640,-15.25
1629894329656,-16.95
1629894329671,-18.92
1629894329687,-20.89
1629894329703,-22.47
1629894329718,-23.23
1629894329734,-22.88
1629894329750,-21.35
1629894329765,-18.77
1629894329781,-15.46
1629894329796,-11.77
1629894329812,-8.05
1629894329828,-4.56
1629894329843,-1.44
1629894329859,1.22
1629894329875,3.39
1629894329890,5.07
1629894329906,6.28
1629894329921,7.03
1629894329937,7.33
1629894329953,7.24
1629894329968,6.94
1629894329984,6.65
1629894330000,6.65
1629894330015,7.07
1629894330031,7.9
1629894330046,8.89
1629894330062,9.76
1629894330078,10.29
1629894330093,10.47
1629894330109,10.5
1629894330125,10.56
1629894330140,10.79
1629894330156,11.09
1629894330171,11.27
1629894330187,11.13
1629894330203,10.62
1629894330218,9.88
1629894330234,9.1
1629894330250,8.43
1629894330265,7.86
1629894330281,7.22
1629894330296,6.32
1629894330312,5.03
1629894330328,3.34
1629894330343,1.39
1629894330359,-0.59
1629894330375,-2.4
1629894330390,-3.92
1629894330406,-5.11
1629894330421,-6.07
1629894330437,-6.98
1629894330453,-8.0
1629894330468,-9.25
1629894330484,-10.8
1629894330500,-12.6
1629894330515,-14.55
1629894330531,-16.49
1629894330546,-18.18
1629894330562,-19.35
1629894330578,-19.75
1629894330593,-19.18
1629894330609,-17.59
1629894330625,-15.11
1629894330640,-11.98
1629894330656,-8.49
1629894330671,-4.9
1629894330687,-1.4
1629894330703,1.88
1629894330718,4.84
1629894330734,7.36
1629894330750,9.34
1629894330765,10.74
1629894330781,11.57
1629894330796,11.9
1629894330812,11.8
1629894330828,11.42
1629894330843,10.92
1629894330859,10.5
1629894330875,10.32
1629894330890,10.52
1629894330906,11.12
1629894330921,11.99
1629894330937,12.96
1629894330953,13.84
1629894330968,14.48
1629894330984,14.82
1629894331000,14.85
1629894331015,14.62
1629894331031,14.2
1629894331046,13.6
1629894331062,12.85
1629894331078,11.93
1629894331093,10.85
1629894331109,9.62
1629894331125,8.29
1629894331140,6.92
1629894331156,5.59
1629894331171,4.31
1629894331187,3.06
1629894331203,1.77
1629894331218,0.4
1629894331234,-1.03
1629894331250,-2.5
1629894331265,-3.98
1629894331281,-5.45
1629894331296,-6.95
1629894331312,-8.52
1629894331328,-10.18
1629894331343,-11.9
1629894331359,-13.68
1629894331375,-15.51
1629894331390,-17.41
1629894331406,-19.36
1629894331421,-21.25
1629894331437,-22.87
1629894331453,-23.89
1629894331468,-23.97
1629894331484,-22.84
1629894331500,-20.43
1629894331515,-16.87
1629894331531,-12.54
1629894331546,-7.92
1629894331562,-3.51
1629894331578,0.35
1629894331593,3.54
1629894331609,6.14
1629894331625,8.34
1629894331640,10.24
1629894331656,11.86
1629894331671,13.1
1629894331687,13.9
1629894331703,14.3
1629894331718,14.5
1629894331734,14.74
1629894331750,15.2
1629894331765,15.87
1629894331781,16.62
1629894331796,17.27
1629894331812,17.69
1629894331828,17.89
1629894331843,17.95
1629894331859,17.96
1629894331875,17.91
1629894331890,17.77
1629894331906,17.47
1629894331921,16.95
1629894331937,16.21
1629894331953,15.34
1629894331968,14.4
1629894331984,13.5
1629894332000,12.66
1629894332015,11.85
1629894332031,10.95
1629894332046,9.86
1629894332062,8.51
1629894332078,6.96
1629894332093,5.34
1629894332109,3.8
1629894332125,2.38
1629894332140,0.97
1629894332156,-0.57
1629894332171,-2.36
1629894332187,-4.32
1629894332203,-6.22
1629894332218,-7.8
1629894332234,-8.91
1629894332250,-9.59
1629894332265,-10.12
1629894332281,-10.84
1629894332296,-11.98
1629894332312,-13.65
1629894332328,-15.77
1629894332343,-18.22
1629894332359,-20.83
1629894332375,-23.47
1629894332390,-25.88
1629894332406,-27.71
1629894332421,-28.51
1629894332437,-27.89
1629894332453,-25.67
1629894332468,-21.99
1629894332484,-17.3
1629894332500,-12.19
1629894332515,-7.2
1629894332531,-2.69
1629894332546,1.19
1629894332562,4.46
1629894332578,7.17
1629894332593,9.38
1629894332609,11.1
1629894332625,12.39
1629894332640,13.34
1629894332656,14.04
1629894332671,14.55
1629894332687,14.9
1629894332703,15.08
1629894332718,15.06
1629894332734,14.85
1629894332750,14.53
1629894332765,14.19
1629894332781,13.92
1629894332796,13.8
1629894332812,13.84
1629894332828,13.98
1629894332843,14.13
1629894332859,14.19
1629894332875,14.1
1629894332890,13.85
1629894332906,13.46
1629894332921,12.98
1629894332937,12.39
1629894332953,11.62
1629894332968,10.63
1629894332984,9.39
1629894333000,7.98
1629894333015,6.56
1629894333031,5.29
1629894333046,4.29
1629894333062,3.56
1629894333078,2.99
1629894333093,2.43
1629894333109,1.77
1629894333125,0.99
1629894333140,0.11
1629894333156,-0.79
1629894333171,-1.67
1629894333187,-2.54
1629894333203,-3.47
1629894333218,-4.49
1629894333234,-5.64
1629894333250,-6.87
1629894333265,-8.1
1629894333281,-9.23
1629894333296,-10.25
1629894333312,-11.22
1629894333328,-12.3
1629894333343,-13.65
1629894333359,-15.35
1629894333375,-17.35
1629894333390,-19.38
1629894333406,-21.06
1629894333421,-22.02
1629894333437,-21.98
1629894333453,-20.84
1629894333468,-18.67
1629894333484,-15.68
1629894333500,-12.11
1629894333515,-8.26
1629894333531,-4.4
1629894333546,-0.77
1629894333562,2.39
1629894333578,4.92
1629894333593,6.74
1629894333609,7.85
1629894333625,8.35
1629894333640,8.35
1629894333656,8.05
1629894333671,7.64
1629894333687,7.27
1629894333703,7.09
1629894333718,7.14
1629894333734,7.44
1629894333750,7.91
1629894333765,8.51
1629894333781,9.16
1629894333796,9.78
1629894333812,10.29
1629894333828,10.57
1629894333843,10.59
1629894333859,10.38
1629894333875,10.04
1629894333890,9.69
1629894333906,9.4
1629894333921,9.14
1629894333937,8.81
1629894333953,8.34
1629894333968,7.71
1629894333984,6.97
1629894334000,6.21
1629894334015,5.45
1629894334031,4.66
1629894334046,3.77
1629894334062,2.73
1629894334078,1.6
1629894334093,0.45
1629894334109,-0.6
1629894334125,-1.55
1629894334140,-2.44
1629894334156,-3.38
1629894334171,-4.43
1629894334187,-5.6
1629894334203,-6.79
1629894334218,-7.91
1629894334234,-8.9
1629894334250,-9.79
1629894334265,-10.7
1629894334281,-11.76
1629894334296,-13.1
1629894334312,-14.73
1629894334328,-16.54
1629894334343,-18.26
1629894334359,-19.58
1629894334375,-20.17
1629894334390,-19.8
1629894334406,-18.38
1629894334421,-16.04
1629894334437,-12.97
1629894334453,-9.46
1629894334468,-5.76
1629894334484,-2.12
1629894334500,1.23
1629894334515,4.07
1629894334531,6.22
1629894334546,7.57
1629894334562,8.18
1629894334578,8.22
1629894334593,7.92
1629894334609,7.48
1629894334625,7.06
1629894334640,6.76
1629894334656,6.67
1629894334671,6.87
1629894334687,7.38
1629894334703,8.11
1629894334718,8.89
1629894334734,9.47
1629894334750,9.67
1629894334765,9.47
1629894334781,8.97
1629894334796,8.35
1629894334812,7.79
1629894334828,7.35
1629894334843,7.06
1629894334859,6.83
1629894334875,6.62
1629894334890,6.32
1629894334906,5.85
1629894334921,5.12
1629894334937,4.07
1629894334953,2.7
1629894334968,1.12
1629894334984,-0.47
1629894335000,-1.88
1629894335015,-2.97
1629894335031,-3.72
1629894335046,-4.18
1629894335062,-4.46
1629894335078,-4.7
1629894335093,-4.98
1629894335109,-5.41
1629894335125,-6.07
1629894335140,-7.06
1629894335156,-8.43
1629894335171,-10.13
1629894335187,-12.03
1629894335203,-13.9
1629894335218,-15.46
1629894335234,-16.44
1629894335250,-16.63
1629894335265,-15.93
1629894335281,-14.39
1629894335296,-12.14
1629894335312,-9.36
1629894335328,-6.28
1629894335343,-3.13
1629894335359,-0.1
1629894335375,2.62
1629894335390,4.85
1629894335406,6.48
1629894335421,7.44
1629894335437,7.8
1629894335453,7.68
1629894335468,7.26
1629894335484,6.74
1629894335500,6.22
1629894335515,5.79
1629894335531,5.46
1629894335546,5.27
1629894335562,5.21
1629894335578,5.28
1629894335593,5.49
1629894335609,5.82
1629894335625,6.28
1629894335640,6.85
1629894335656,7.43
1629894335671,7.83
1629894335687,7.84
1629894335703,7.3
1629894335718,6.2
1629894335734,4.75
1629894335750,3.29
1629894335765,2.13
1629894335781,1.46
1629894335796,1.23
1629894335812,1.26
1629894335828,1.3
1629894335843,1.12
1629894335859,0.57
1629894335875,-0.4
1629894335890,-1.71
1629894335906,-3.2
1629894335921,-4.66
1629894335937,-5.91
1629894335953,-6.87
1629894335968,-7.59
1629894335984,-8.17
1629894336000,-8.73
1629894336015,-9.38
1629894336031,-10.21
1629894336046,-11.28
1629894336062,-12.69
1629894336078,-14.45
1629894336093,-16.41
1629894336109,-18.23
1629894336125,-19.45
1629894336140,-19.67
1629894336156,-18.7
1629894336171,-16.6
1629894336187,-13.67
1629894336203,-10.26
1629894336218,-6.66
1629894336234,-3.09
1629894336250,0.28
1629894336265,3.23
1629894336281,5.49
1629894336296,6.85
1629894336312,7.23
1629894336328,6.84
1629894336343,6.04
1629894336359,5.28
1629894336375,4.92
1629894336390,5.07
1629894336406,5.65
1629894336421,6.42
1629894336437,7.14
1629894336453,7.7
1629894336468,8.13
1629894336484,8.53
1629894336500,8.99
1629894336515,9.51
1629894336531,10.01
1629894336546,10.36
1629894336562,10.42
1629894336578,10.08
1629894336593,9.36
1629894336609,8.34
1629894336625,7.14
1629894336640,5.91
1629894336656,4.75
1629894336671,3.71
1629894336687,2.79
1629894336703,1.96
1629894336718,1.22
1629894336734,0.54
1629894336750,-0.11
1629894336765,-0.8
1629894336781,-1.59
1629894336796,-2.53
1629894336812,-3.63
1629894336828,-4.81
1629894336843,-5.99
1629894336859,-7.08
1629894336875,-8.02
1629894336890,-8.82
1629894336906,-9.48
1629894336921,-10.06
1629894336937,-10.64
1629894336953,-11.34
1629894336968,-12.33
1629894336984,-13.74
1629894337000,-15.63
1629894337015,-17.85
1629894337031,-20.06
1629894337046,-21.78
1629894337062,-22.57
1629894337078,-22.14
1629894337093,-20.43
1629894337109,-17.64
1629894337125,-14.14
1629894337140,-10.37
1629894337156,-6.72
1629894337171,-3.52
1629894337187,-0.93
1629894337203,1.0
1629894337218,2.35
1629894337234,3.3
1629894337250,4.02
1629894337265,4.65
1629894337281,5.21
1629894337296,5.61
1629894337312,5.75
1629894337328,5.59
1629894337343,5.23
1629894337359,4.85
1629894337375,4.65
1629894337390,4.71
1629894337406,5.01
1629894337421,5.47
1629894337437,5.95
1629894337453,6.37
1629894337468,6.69
1629894337484,6.88
1629894337500,6.92
1629894337515,6.78
1629894337531,6.46
1629894337546,5.96
1629894337562,5.33
1629894337578,4.61
1629894337593,3.84
1629894337609,3.04
1629894337625,2.23
1629894337640,1.44
1629894337656,0.67
1629894337671,-0.1
1629894337687,-0.89
1629894337703,-1.76
1629894337718,-2.72
1629894337734,-3.72
1629894337750,-4.72
1629894337765,-5.65
1629894337781,-6.49
1629894337796,-7.26
1629894337812,-8.02
1629894337828,-8.85
1629894337843,-9.86
1629894337859,-11.14
1629894337875,-12.74
1629894337890,-14.56
1629894337906,-16.41
1629894337921,-17.96
1629894337937,-18.87
1629894337953,-18.84
1629894337968,-17.73
1629894337984,-15.57
1629894338000,-12.55
1629894338015,-9.0
1629894338031,-5.31
1629894338046,-1.88
1629894338062,0.98
1629894338078,3.09
1629894338093,4.46
1629894338109,5.25
1629894338125,5.69
1629894338140,6.01
1629894338156,6.28
1629894338171,6.49
1629894338187,6.53
1629894338203,6.4
1629894338218,6.12
1629894338234,5.82
1629894338250,5.65
1629894338265,5.69
1629894338281,5.9
1629894338296,6.19
1629894338312,6.41
1629894338328,6.48
1629894338343,6.44
1629894338359,6.36
1629894338375,6.36
1629894338390,6.5
1629894338406,6.73
1629894338421,6.92
1629894338437,6.9
1629894338453,6.55
1629894338468,5.84
1629894338484,4.83
1629894338500,3.63
1629894338515,2.33
1629894338531,0.96
1629894338546,-0.49
1629894338562,-1.96
1629894338578,-3.38
1629894338593,-4.6
1629894338609,-5.53
1629894338625,-6.17
1629894338640,-6.65
1629894338656,-7.21
1629894338671,-8.11
1629894338687,-9.5
1629894338703,-11.37
1629894338718,-13.59
1629894338734,-15.86
1629894338750,-17.87
1629894338765,-19.28
1629894338781,-19.8
1629894338796,-19.2
1629894338812,-17.37
1629894338828,-14.37
1629894338843,-10.48
1629894338859,-6.14
1629894338875,-1.89
1629894338890,1.82
1629894338906,4.66
1629894338921,6.58
1629894338937,7.65
1629894338953,8.08
1629894338968,8.1
1629894338984,7.92
1629894339000,7.7
1629894339015,7.56
1629894339031,7.53
1629894339046,7.56
1629894339062,7.54
1629894339078,7.4
1629894339093,7.19
1629894339109,7.05
1629894339125,7.15
1629894339140,7.55
1629894339156,8.14
1629894339171,8.68
1629894339187,8.96
1629894339203,8.91
1629894339218,8.66
1629894339234,8.44
1629894339250,8.38
1629894339265,8.43
1629894339281,8.34
1629894339296,7.8
1629894339312,6.67
1629894339328,5.05
1629894339343,3.25
1629894339359,1.57
1629894339375,0.19
1629894339390,-0.97
1629894339406,-2.13
1629894339421,-3.5
1629894339437,-5.14
1629894339453,-6.95
1629894339468,-8.73
1629894339484,-10.3
1629894339500,-11.66
1629894339515,-12.92
1629894339531,-14.27
1629894339546,-15.78
1629894339562,-17.36
1629894339578,-18.77
1629894339593,-19.66
1629894339609,-19.75
1629894339625,-18.85
1629894339640,-16.87
1629894339656,-13.84
1629894339671,-9.89
1629894339687,-5.23
1629894339703,-0.21
1629894339718,4.77
1629894339734,9.29
1629894339750,13.03
1629894339765,15.8
1629894339781,17.57
1629894339796,18.44
1629894339812,18.56
1629894339828,18.07
1629894339843,17.17
1629894339859,16.09
1629894339875,15.1
1629894339890,14.42
1629894339906,14.21
1629894339921,14.46
1629894339937,15.04
1629894339953,15.8
1629894339968,16.6
1629894339984,17.4
1629894340000,18.15
1629894340015,18.81
1629894340031,19.26
1629894340046,19.37
1629894340062,19.02
1629894340078,18.22
1629894340093,17.1
1629894340109,15.86
1629894340125,14.65
1629894340140,13.52
1629894340156,12.48
1629894340171,11.49
1629894340187,10.55
1629894340203,9.67
1629894340218,8.77
1629894340234,7.62
1629894340250,5.9
1629894340265,3.28
1629894340281,-0.36
1629894340296,-4.76
1629894340312,-9.34
1629894340328,-13.4
1629894340343,-16.36
1629894340359,-18.05
1629894340375,-18.66
1629894340390,-18.68
1629894340406,-18.62
1629894340421,-18.78
1629894340437,-19.18
1629894340453,-19.61
1629894340468,-19.76
1629894340484,-19.31
1629894340500,-18.08
1629894340515,-16.01
1629894340531,-13.17
1629894340546,-9.74
1629894340562,-5.93
1629894340578,-1.93
1629894340593,2.16
1629894340609,6.26
1629894340625,10.3
1629894340640,14.15
1629894340656,17.59
1629894340671,20.32
1629894340687,22.12
1629894340703,22.99
1629894340718,23.29
1629894340734,23.76
1629894340750,25.31
1629894340765,28.84
1629894340781,34.79
1629894340796,43.06
1629894340812,52.91
1629894340828,63.21
1629894340843,72.65
1629894340859,80.05
1629894340875,84.56
1629894340890,85.76
1629894340906,83.62
1629894340921,78.52
1629894340937,71.12
1629894340953,62.22
1629894340968,52.61
1629894340984,42.93
1629894341000,33.62
1629894341015,24.9
1629894341031,16.91
1629894341046,9.69
1629894341062,3.23
1629894341078,-2.57
1629894341093,-7.86
1629894341109,-12.81
1629894341125,-17.5
1629894341140,-21.87
1629894341156,-25.78
1629894341171,-29.05
1629894341187,-31.64
1629894341203,-33.58
1629894341218,-35.06
1629894341234,-36.3
1629894341250,-37.46
1629894341265,-38.63
1629894341281,-39.87
1629894341296,-41.15
1629894341312,-42.46
1629894341328,-43.74
1629894341343,-44.92
1629894341359,-45.97
1629894341375,-46.91
1629894341390,-47.85
1629894341406,-48.94
1629894341421,-50.22
1629894341437,-51.54
1629894341453,-52.51
1629894341468,-52.6
1629894341484,-51.28
1629894341500,-48.3
1629894341515,-43.73
1629894341531,-37.97
1629894341546,-31.59
1629894341562,-25.16
1629894341578,-19.11
1629894341593,-13.71
1629894341609,-9.11
1629894341625,-5.34
1629894341640,-2.39
1629894341656,-0.14
1629894341671,1.57
1629894341687,2.93
1629894341703,4.07
1629894341718,5.07
1629894341734,5.99
1629894341750,6.86
1629894341765,7.76
1629894341781,8.71
1629894341796,9.7
1629894341812,10.68
1629894341828,11.54
1629894341843,12.22
1629894341859,12.68
1629894341875,12.94
1629894341890,13.02
1629894341906,12.94
1629894341921,12.67
1629894341937,12.22
1629894341953,11.64
1629894341968,10.96
1629894341984,10.26
1629894342000,9.53
1629894342015,8.74
1629894342031,7.82
1629894342046,6.73
1629894342062,5.47
1629894342078,4.11
1629894342093,2.76
1629894342109,1.53
1629894342125,0.46
1629894342140,-0.44
1629894342156,-1.26
1629894342171,-2.13
1629894342187,-3.11
1629894342203,-4.24
1629894342218,-5.44
1629894342234,-6.64
1629894342250,-7.83
1629894342265,-9.04
1629894342281,-10.4
1629894342296,-12.03
1629894342312,-13.98
1629894342328,-16.25
1629894342343,-18.7
1629894342359,-21.13
1629894342375,-23.22
1629894342390,-24.62
1629894342406,-24.97
1629894342421,-24.02
1629894342437,-21.71
1629894342453,-18.26
1629894342468,-14.07
1629894342484,-9.63
1629894342500,-5.38
1629894342515,-1.61
1629894342531,1.57
1629894342546,4.15
1629894342562,6.21
1629894342578,7.84
1629894342593,9.08
1629894342609,9.96
1629894342625,10.49
1629894342640,10.68
1629894342656,10.61
1629894342671,10.37
1629894342687,10.11
1629894342703,9.95
1629894342718,9.97
1629894342734,10.18
1629894342750,10.54
1629894342765,11.0
1629894342781,11.48
1629894342796,11.93
1629894342812,12.31
1629894342828,12.59
1629894342843,12.73
1629894342859,12.67
1629894342875,12.39
1629894342890,11.83
1629894342906,11.03
1629894342921,10.04
1629894342937,8.96
1629894342953,7.86
1629894342968,6.76
1629894342984,5.65
1629894343000,4.45
1629894343015,3.14
1629894343031,1.77
1629894343046,0.42
1629894343062,-0.83
1629894343078,-1.94
1629894343093,-2.96
1629894343109,-3.98
1629894343125,-5.03
1629894343140,-6.16
1629894343156,-7.34
1629894343171,-8.59
1629894343187,-9.94
1629894343203,-11.44
1629894343218,-13.08
1629894343234,-14.81
1629894343250,-16.57
1629894343265,-18.29
1629894343281,-19.92
1629894343296,-21.39
1629894343312,-22.6
1629894343328,-23.35
1629894343343,-23.4
1629894343359,-22.51
1629894343375,-20.53
1629894343390,-17.5
1629894343406,-13.66
1629894343421,-9.39
1629894343437,-5.11
1629894343453,-1.15
1629894343468,2.3
1629894343484,5.19
1629894343500,7.53
1629894343515,9.33
1629894343531,10.58
1629894343546,11.23
1629894343562,11.27
1629894343578,10.8
1629894343593,10.04
1629894343609,9.3
1629894343625,8.88
1629894343640,8.96
1629894343656,9.59
1629894343671,10.64
1629894343687,11.86
1629894343703,13.0
1629894343718,13.85
1629894343734,14.34
1629894343750,14.5
1629894343765,14.39
1629894343781,14.05
1629894343796,13.53
1629894343812,12.78
1629894343828,11.87
1629894343843,10.85
1629894343859,9.84
1629894343875,8.95
1629894343890,8.19
1629894343906,7.46
1629894343921,6.64
1629894343937,5.59
1629894343953,4.25
1629894343968,2.66
1629894343984,0.94
1629894344000,-0.77
1629894344015,-2.32
1629894344031,-3.65
1629894344046,-4.79
1629894344062,-5.82
1629894344078,-6.88
1629894344093,-8.04
1629894344109,-9.35
1629894344125,-10.72
1629894344140,-12.08
1629894344156,-13.39
1629894344171,-14.73
1629894344187,-16.23
1629894344203,-18.08
1629894344218,-20.25
1629894344234,-22.55
1629894344250,-24.57
1629894344265,-25.9
1629894344281,-26.22
1629894344296,-25.49
1629894344312,-23.83
1629894344328,-21.44
1629894344343,-18.47
1629894344359,-14.95
1629894344375,-10.91
1629894344390,-6.49
1629894344406,-2.02
1629894344421,2.06
1629894344437,5.35
1629894344453,7.62
1629894344468,8.92
1629894344484,9.48
1629894344500,9.63
1629894344515,9.65
1629894344531,9.72
1629894344546,9.96
1629894344562,10.41
1629894344578,11.05
1629894344593,11.82
1629894344609,12.6
1629894344625,13.22
1629894344640,13.58
1629894344656,13.64
1629894344671,13.47
1629894344687,13.24
1629894344703,13.1
1629894344718,13.12
1629894344734,13.27
1629894344750,13.41
1629894344765,13.4
1629894344781,13.18
1629894344796,12.77
1629894344812,12.26
1629894344828,11.73
1629894344843,11.15
1629894344859,10.4
1629894344875,9.33
1629894344890,7.87
1629894344906,6.07
1629894344921,4.13
1629894344937,2.31
1629894344953,0.82
1629894344968,-0.26
1629894344984,-1.02
1629894345000,-1.66
1629894345015,-2.48
1629894345031,-3.7
1629894345046,-5.41
1629894345062,-7.51
1629894345078,-9.81
1629894345093,-12.07
1629894345109,-14.15
1629894345125,-16.07
1629894345140,-17.98
1629894345156,-20.06
1629894345171,-22.42
1629894345187,-24.99
1629894345203,-27.55
1629894345218,-29.81
1629894345234,-31.42
1629894345250,-32.14
1629894345265,-31.82
1629894345281,-30.43
1629894345296,-28.06
1629894345312,-24.83
1629894345328,-20.92
1629894345343,-16.5
1629894345359,-11.75
1629894345375,-6.94
1629894345390,-2.38
1629894345406,1.58
1629894345421,4.68
1629894345437,6.82
1629894345453,8.11
1629894345468,8.83
1629894345484,9.28
1629894345500,9.64
1629894345515,9.94
1629894345531,10.12
1629894345546,10.17
1629894345562,10.16
1629894345578,10.26
1629894345593,10.59
1629894345609,11.15
1629894345625,11.79
1629894345640,12.35
1629894345656,12.69
1629894345671,12.83
1629894345687,12.89
1629894345703,12.97
1629894345718,13.09
1629894345734,13.13
1629894345750,12.91
1629894345765,12.29
1629894345781,11.26
1629894345796,9.92
1629894345812,8.43
1629894345828,6.9
1629894345843,5.36
1629894345859,3.81
1629894345875,2.28
1629894345890,0.83
1629894345906,-0.42
1629894345921,-1.44
1629894345937,-2.25
1629894345953,-3.03
1629894345968,-3.94
1629894345984,-5.1
1629894346000,-6.46
1629894346015,-7.85
1629894346031,-9.07
1629894346046,-9.98
1629894346062,-10.63
1629894346078,-11.23
1629894346093,-12.08
1629894346109,-13.47
1629894346125,-15.56
1629894346140,-18.35
1629894346156,-21.56
1629894346171,-24.73
1629894346187,-27.21
1629894346203,-28.35
1629894346218,-27.65
1629894346234,-24.95
1629894346250,-20.5
1629894346265,-14.89
1629894346281,-8.87
1629894346296,-3.15
1629894346312,1.81
1629894346328,5.81
1629894346343,8.84
1629894346359,10.95
1629894346375,12.24
1629894346390,12.78
1629894346406,12.75
1629894346421,12.39
1629894346437,12.03
1629894346453,11.94
1629894346468,12.23
1629894346484,12.81
1629894346500,13.46
1629894346515,13.96
1629894346531,14.25
1629894346546,14.44
1629894346562,14.7
1629894346578,15.18
1629894346593,15.87
1629894346609,16.56
1629894346625,16.92
1629894346640,16.63
1629894346656,15.56
1629894346671,13.81
1629894346687,11.67
1629894346703,9.54
1629894346718,7.78
1629894346734,6.56
1629894346750,5.81
1629894346765,5.25
1629894346781,4.5
1629894346796,3.22
1629894346812,1.25
1629894346828,-1.28
1629894346843,-4.03
1629894346859,-6.53
1629894346875,-8.44
1629894346890,-9.62
1629894346906,-10.28
1629894346921,-10.83
1629894346937,-11.71
1629894346953,-13.25
1629894346968,-15.47
1629894346984,-18.11
1629894347000,-20.64
1629894347015,-22.43
1629894347031,-22.78
1629894347046,-21.11
1629894347062,-17.21
1629894347078,-11.48
1629894347093,-4.99
1629894347109,0.65
1629894347125,3.72
1629894347140,2.96
1629894347156,-2.02
1629894347171,-10.65
1629894347187,-21.68
1629894347203,-33.68
1629894347218,-45.43
1629894347234,-56.18
1629894347250,-65.52
1629894347265,-73.22
1629894347281,-79.11
1629894347296,-82.99
1629894347312,-84.71
1629894347328,-84.2
1629894347343,-81.45
1629894347359,-76.45
1629894347375,-69.28
1629894347390,-60.14
1629894347406,-49.48
1629894347421,-37.97
1629894347437,-26.36
1629894347453,-15.35
1629894347468,-5.43
1629894347484,3.08
1629894347500,10.06
1629894347515,15.52
1629894347531,19.73
1629894347546,23.23
1629894347562,26.8
1629894347578,31.22
1629894347593,36.94
1629894347609,43.83
1629894347625,51.16
1629894347640,57.9
1629894347656,63.16
1629894347671,66.52
1629894347687,68.2
1629894347703,68.81
1629894347718,69.14
1629894347734,69.9
1629894347750,71.52
1629894347765,74.2
1629894347781,77.7
1629894347796,81.42
1629894347812,84.35
1629894347828,85.32
1629894347843,83.29
1629894347859,77.59
1629894347875,68.13
1629894347890,55.36
1629894347906,40.1
1629894347921,23.46
1629894347937,6.81
1629894347953,-8.36
1629894347968,-20.5
1629894347984,-28.42
1629894348000,-31.6
1629894348015,-30.46
1629894348031,-26.14
1629894348046,-20.22
1629894348062,-14.21
1629894348078,-9.24
1629894348093,-5.97
1629894348109,-4.64
1629894348125,-5.12
1629894348140,-7.06
1629894348156,-9.82
1629894348171,-12.66
1629894348187,-14.87
1629894348203,-16.0
1629894348218,-16.03
1629894348234,-15.3
1629894348250,-14.33
1629894348265,-13.56
1629894348281,-13.18
1629894348296,-13.19
1629894348312,-13.41
1629894348328,-13.71
1629894348343,-14.0
1629894348359,-14.25
1629894348375,-14.41
1629894348390,-14.34
1629894348406,-13.82
1629894348421,-12.63
1629894348437,-10.72
1629894348453,-8.28
1629894348468,-5.74
1629894348484,-3.71
1629894348500,-2.72
1629894348515,-3.09
1629894348531,-4.88
1629894348546,-7.94
1629894348562,-12.02
1629894348578,-16.83
1629894348593,-21.86
1629894348609,-26.41
1629894348625,-29.57
1629894348640,-30.61
1629894348656,-29.4
1629894348671,-26.67
1629894348687,-23.88
1629894348703,-22.6
1629894348718,-23.82
1629894348734,-27.35
1629894348750,-32.0
1629894348765,-36.12
1629894348781,-38.37
1629894348796,-38.26
1629894348812,-36.1
1629894348828,-32.62
1629894348843,-28.43
1629894348859,-23.79
1629894348875,-18.67
1629894348890,-13.08
1629894348906,-7.25
1629894348921,-1.66
1629894348937,3.24
1629894348953,7.14
1629894348968,10.08
1629894348984,12.27
1629894349000,13.99
1629894349015,15.39
1629894349031,16.55
1629894349046,17.46
1629894349062,18.21
1629894349078,18.91
1629894349093,19.73
1629894349109,20.76
1629894349125,22.03
1629894349140,23.49
1629894349156,25.05
1629894349171,26.65
1629894349187,28.2
1629894349203,29.57
1629894349218,30.54
1629894349234,30.88
1629894349250,30.41
1629894349265,29.14
1629894349281,27.24
1629894349296,25.0
1629894349312,22.69
1629894349328,20.46
1629894349343,18.39
1629894349359,16.49
1629894349375,14.92
1629894349390,13.9
1629894349406,13.71
1629894349421,14.43
1629894349437,15.87
1629894349453,17.53
1629894349468,18.73
1629894349484,18.81
1629894349500,17.35
1629894349515,14.31
1629894349531,10.03
1629894349546,5.18
1629894349562,0.55
1629894349578,-3.08
1629894349593,-5.06
1629894349609,-5.01
1629894349625,-2.84
1629894349640,1.17
1629894349656,6.42
1629894349671,12.08
1629894349687,17.35
1629894349703,21.64
1629894349718,24.76
1629894349734,26.91
1629894349750,28.47
1629894349765,29.8
1629894349781,31.05
1629894349796,32.1
1629894349812,32.75
1629894349828,32.9
1629894349843,32.67
1629894349859,32.37
1629894349875,32.36
1629894349890,32.72
1629894349906,33.15
1629894349921,32.97
1629894349937,31.41
1629894349953,27.95
1629894349968,22.55
1629894349984,15.68
1629894350000,8.16
1629894350015,0.82
1629894350031,-5.79
1629894350046,-11.56
1629894350062,-16.77
1629894350078,-21.84
1629894350093,-27.03
1629894350109,-32.32
1629894350125,-37.43
1629894350140,-42.09
1629894350156,-46.19
1629894350171,-49.78
1629894350187,-52.96
1629894350203,-55.55
1629894350218,-57.05
1629894350234,-56.69
1629894350250,-53.8
1629894350265,-48.14
1629894350281,-40.09
1629894350296,-30.63
1629894350312,-20.96
1629894350328,-12.06
1629894350343,-4.39
1629894350359,2.17
1629894350375,8.14
1629894350390,14.06
1629894350406,20.23
1629894350421,26.48
1629894350437,32.24
1629894350453,36.74
1629894350468,39.33
1629894350484,39.74
1629894350500,38.22
1629894350515,35.41
1629894350531,32.06
1629894350546,28.72
1629894350562,25.58
1629894350578,22.48
1629894350593,19.15
1629894350609,15.49
1629894350625,11.65
1629894350640,8.01
1629894350656,4.99
1629894350671,2.82
1629894350687,1.43
1629894350703,0.51
1629894350718,-0.32
1629894350734,-1.33
1629894350750,-2.6
1629894350765,-4.05
1629894350781,-5.53
1629894350796,-6.9
1629894350812,-7.95
1629894350828,-8.45
1629894350843,-8.06
1629894350859,-6.44
1629894350875,-3.35
1629894350890,1.11
1629894350906,6.43
1629894350921,11.77
1629894350937,16.18
1629894350953,18.87
1629894350968,19.45
1629894350984,18.02
1629894351000,15.07
1629894351015,11.34
1629894351031,7.57
1629894351046,4.43
1629894351062,2.38
1629894351078,1.7
1629894351093,2.42
1629894351109,4.34
1629894351125,7.16
1629894351140,10.53
1629894351156,14.12
1629894351171,17.71
1629894351187,21.16
1629894351203,24.31
1629894351218,26.92
1629894351234,28.65
1629894351250,29.18
1629894351265,28.28
1629894351281,26.03
1629894351296,22.84
1629894351312,19.36
1629894351328,16.36
1629894351343,14.48
1629894351359,14.05
1629894351375,15.07
1629894351390,17.29
1629894351406,20.37
1629894351421,24.01
1629894351437,28.08
1629894351453,32.51
1629894351468,37.21
1629894351484,42.02
1629894351500,46.67
1629894351515,50.85
1629894351531,54.19
1629894351546,56.33
1629894351562,56.89
1629894351578,55.65
1629894351593,52.68
1629894351609,48.41
1629894351625,43.55
1629894351640,38.8
1629894351656,34.49
1629894351671,30.44
1629894351687,25.99
1629894351703,20.4
1629894351718,13.35
1629894351734,5.26
1629894351750,-2.68
1629894351765,-8.89
1629894351781,-12.01
1629894351796,-11.3
1629894351812,-6.98
1629894351828,-0.06
1629894351843,7.87
1629894351859,15.06
1629894351875,19.86
1629894351890,21.13
1629894351906,18.47
1629894351921,12.6
1629894351937,5.35
1629894351953,-0.7
1629894351968,-3.13
1629894351984,-0.62
1629894352000,6.22
1629894352015,15.03
1629894352031,22.54
1629894352046,25.92
1629894352062,23.82
1629894352078,16.77
1629894352093,6.56
1629894352109,-4.71
1629894352125,-15.51
1629894352140,-25.16
1629894352156,-33.61
1629894352171,-40.91
1629894352187,-46.89
1629894352203,-51.2
1629894352218,-53.66
1629894352234,-54.47
1629894352250,-54.28
1629894352265,-53.86
1629894352281,-53.8
1629894352296,-54.23
1629894352312,-54.83
1629894352328,-55.02
1629894352343,-54.37
1629894352359,-52.77
1629894352375,-50.6
1629894352390,-48.49
1629894352406,-47.1
1629894352421,-46.84
1629894352437,-47.68
1629894352453,-49.25
1629894352468,-50.95
1629894352484,-52.23
1629894352500,-52.71
1629894352515,-52.21
1629894352531,-50.77
1629894352546,-48.49
1629894352562,-45.49
1629894352578,-41.85
1629894352593,-37.67
1629894352609,-33.07
1629894352625,-28.22
1629894352640,-23.33
1629894352656,-18.68
1629894352671,-14.51
1629894352687,-11.03
1629894352703,-8.4
1629894352718,-6.62
1629894352734,-5.59
1629894352750,-5.07
1629894352765,-4.81
1629894352781,-4.6
1629894352796,-4.3
1629894352812,-3.87
1629894352828,-3.28
1629894352843,-2.55
1629894352859,-1.69
1629894352875,-0.78
1629894352890,0.05
1629894352906,0.71
1629894352921,1.11
1629894352937,1.31
1629894352953,1.43
1629894352968,1.59
1629894352984,1.8
1629894353000,1.97
1629894353015,1.91
1629894353031,1.48
1629894353046,0.67
1629894353062,-0.42
1629894353078,-1.61
1629894353093,-2.76
1629894353109,-3.84
1629894353125,-4.93
1629894353140,-6.14
1629894353156,-7.52
1629894353171,-9.01
1629894353187,-10.45
1629894353203,-11.68
1629894353218,-12.65
1629894353234,-13.43
1629894353250,-14.23
1629894353265,-15.31
1629894353281,-16.83
1629894353296,-18.69
1629894353312,-20.56
1629894353328,-21.85
1629894353343,-22.02
1629894353359,-20.7
1629894353375,-17.91
1629894353390,-14.04
1629894353406,-9.68
1629894353421,-5.39
1629894353437,-1.52
1629894353453,1.85
1629894353468,4.76
1629894353484,7.24
1629894353500,9.24
1629894353515,10.6
1629894353531,11.21
1629894353546,11.14
1629894353562,10.58
1629894353578,9.88
1629894353593,9.26
1629894353609,8.85
1629894353625,8.64
1629894353640,8.5
1629894353656,8.39
1629894353671,8.31
1629894353687,8.3
1629894353703,8.4
1629894353718,8.51
1629894353734,8.47
1629894353750,8.17
1629894353765,7.55
1629894353781,6.72
1629894353796,5.9
1629894353812,5.31
1629894353828,5.07
1629894353843,5.11
1629894353859,5.21
1629894353875,5.08
1629894353890,4.52
1629894353906,3.46
1629894353921,1.95
1629894353937,0.2
1629894353953,-1.59
1629894353968,-3.25
1629894353984,-4.71
1629894354000,-5.93
1629894354015,-6.93
1629894354031,-7.72
1629894354046,-8.3
1629894354062,-8.74
1629894354078,-9.16
1629894354093,-9.8
1629894354109,-10.89
1629894354125,-12.55
1629894354140,-14.73
1629894354156,-17.1
1629894354171,-19.14
1629894354187,-20.3
1629894354203,-20.15
1629894354218,-18.53
1629894354234,-15.6
1629894354250,-11.73
1629894354265,-7.38
1629894354281,-2.98
1629894354296,1.15
1629894354312,4.81
1629894354328,7.86
1629894354343,10.19
1629894354359,11.75
1629894354375,12.51
1629894354390,12.57
1629894354406,12.13
1629894354421,11.46
1629894354437,10.83
1629894354453,10.38
1629894354468,10.15
1629894354484,10.06
1629894354500,10.03
1629894354515,10.04
1629894354531,10.13
1629894354546,10.37
1629894354562,10.78
1629894354578,11.28
1629894354593,11.67
1629894354609,11.78
1629894354625,11.48
1629894354640,10.77
1629894354656,9.77
1629894354671,8.61
1629894354687,7.45
1629894354703,6.37
1629894354718,5.41
1629894354734,4.58
1629894354750,3.88
1629894354765,3.25
1629894354781,2.62
1629894354796,1.87
1629894354812,0.9
1629894354828,-0.37
1629894354843,-1.92
1629894354859,-3.65
1629894354875,-5.37
1629894354890,-6.86
1629894354906,-7.98
1629894354921,-8.68
1629894354937,-9.09
1629894354953,-9.44
1629894354968,-9.96
1629894354984,-10.85
1629894355000,-12.15
1629894355015,-13.8
1629894355031,-15.64
1629894355046,-17.45
1629894355062,-18.95
1629894355078,-19.79
1629894355093,-19.63
1629894355109,-18.19
1629894355125,-15.43
1629894355140,-11.58
1629894355156,-7.13
1629894355171,-2.7
1629894355187,1.21
1629894355203,4.27
1629894355218,6.43
1629894355234,7.84
1629894355250,8.68
1629894355265,9.07
1629894355281,9.06
1629894355296,8.64
1629894355312,7.88
1629894355328,6.91
1629894355343,5.94
1629894355359,5.16
1629894355375,4.69
1629894355390,4.54
1629894355406,4.6
1629894355421,4.77
1629894355437,4.96
1629894355453,5.16
1629894355468,5.39
1629894355484,5.67
1629894355500,5.96
1629894355515,6.11
1629894355531,5.98
1629894355546,5.45
1629894355562,4.57
1629894355578,3.49
1629894355593,2.39
1629894355609,1.36
1629894355625,0.41
1629894355640,-0.55
1629894355656,-1.59
1629894355671,-2.72
1629894355687,-3.87
1629894355703,-5.0
1629894355718,-6.11
1629894355734,-7.25
1629894355750,-8.5
1629894355765,-9.83
1629894355781,-11.19
1629894355796,-12.52
1629894355812,-13.84
1629894355828,-15.22
1629894355843,-16.69
1629894355859,-18.12
1629894355875,-19.16
1629894355890,-19.42
1629894355906,-18.6
1629894355921,-16.68
1629894355937,-13.87
1629894355953,-10.56
1629894355968,-7.1
1629894355984,-3.74
1629894356000,-0.61
1629894356015,2.22
1629894356031,4.66
1629894356046,6.55
1629894356062,7.8
1629894356078,8.36
1629894356093,8.27
1629894356109,7.66
1629894356125,6.73
1629894356140,5.68
1629894356156,4.71
1629894356171,3.98
1629894356187,3.55
1629894356203,3.36
1629894356218,3.34
1629894356234,3.39
1629894356250,3.52
1629894356265,3.75
1629894356281,4.13
1629894356296,4.63
1629894356312,5.13
1629894356328,5.46
1629894356343,5.52
1629894356359,5.26
1629894356375,4.69
1629894356390,3.84
1629894356406,2.73
1629894356421,1.4
1629894356437,-0.09
1629894356453,-1.6
1629894356468,-2.99
1629894356484,-4.15
1629894356500,-5.09
1629894356515,-5.95
1629894356531,-6.94
1629894356546,-8.28
1629894356562,-10.11
1629894356578,-12.43
1629894356593,-15.09
1629894356609,-17.84
1629894356625,-20.33
1629894356640,-22.17
1629894356656,-23.02
1629894356671,-22.66
1629894356687,-21.04
1629894356703,-18.32
1629894356718,-14.79
1629894356734,-10.79
1629894356750,-6.66
1629894356765,-2.67
1629894356781,0.99
1629894356796,4.2
1629894356812,6.91
1629894356828,9.07
1629894356843,10.69
1629894356859,11.76
1629894356875,12.36
1629894356890,12.55
1629894356906,12.42
1629894356921,12.04
1629894356937,11.51
1629894356953,10.96
1629894356968,10.53
1629894356984,10.34
1629894357000,10.46
1629894357015,10.78
1629894357031,11.13
1629894357046,11.31
1629894357062,11.2
1629894357078,10.8
1629894357093,10.26
1629894357109,9.78
1629894357125,9.53
1629894357140,9.6
1629894357156,10.02
1629894357171,10.75
1629894357187,11.66
1629894357203,12.54
1629894357218,13.12
1629894357234,13.02
1629894357250,12.03
1629894357265,10.07
1629894357281,7.34
1629894357296,4.2
1629894357312,1.07
1629894357328,-1.77
1629894357343,-4.25
1629894357359,-6.53
1629894357375,-8.88
1629894357390,-11.55
1629894357406,-14.59
1629894357421,-17.8
1629894357437,-20.75
1629894357453,-22.89
1629894357468,-23.74
1629894357484,-23.0
1629894357500,-20.67
1629894357515,-16.97
1629894357531,-12.35
1629894357546,-7.33
1629894357562,-2.48
1629894357578,1.77
1629894357593,5.15
1629894357609,7.6
1629894357625,9.21
1629894357640,10.19
1629894357656,10.75
1629894357671,11.08
1629894357687,11.28
1629894357703,11.45
1629894357718,11.67
1629894357734,11.97
1629894357750,12.36
1629894357765,12.8
1629894357781,13.22
1629894357796,13.59
1629894357812,13.94
1629894357828,14.36
1629894357843,14.92
1629894357859,15.58
1629894357875,16.16
1629894357890,16.43
1629894357906,16.25
1629894357921,15.61
1629894357937,14.7
1629894357953,13.71
1629894357968,12.8
1629894357984,11.95
1629894358000,11.03
1629894358015,9.85
1629894358031,8.31
1629894358046,6.37
1629894358062,4.1
1629894358078,1.62
1629894358093,-0.92
1629894358109,-3.34
1629894358125,-5.52
1629894358140,-7.38
1629894358156,-8.96
1629894358171,-10.41
1629894358187,-11.98
1629894358203,-13.88
1629894358218,-16.18
1629894358234,-18.82
1629894358250,-21.52
1629894358265,-23.91
1629894358281,-25.51
1629894358296,-25.89
1629894358312,-24.74
1629894358328,-22.01
1629894358343,-17.93
1629894358359,-12.96
1629894358375,-7.67
1629894358390,-2.59
1629894358406,1.95
1629894358421,5.83
1629894358437,9.03
1629894358453,11.65
1629894358468,13.74
1629894358484,15.34
1629894358500,16.49
1629894358515,17.22
1629894358531,17.6
1629894358546,17.73
1629894358562,17.67
1629894358578,17.51
1629894358593,17.31
1629894358609,17.16
1629894358625,17.09
1629894358640,17.13
1629894358656,17.28
1629894358671,17.56
1629894358687,17.98
1629894358703,18.54
1629894358718,19.18
1629894358734,19.77
1629894358750,20.11
1629894358765,20.04
1629894358781,19.52
1629894358796,18.59
1629894358812,17.42
1629894358828,16.1
1629894358843,14.68
1629894358859,13.12
1629894358875,11.35
1629894358890,9.4
1629894358906,7.37
1629894358921,5.44
1629894358937,3.79
1629894358953,2.43
1629894358968,1.23
1629894358984,-0.02
1629894359000,-1.52
1629894359015,-3.35
1629894359031,-5.43
1629894359046,-7.6
1629894359062,-9.63
1629894359078,-11.39
1629894359093,-12.88
1629894359109,-14.24
1629894359125,-15.69
1629894359140,-17.46
1629894359156,-19.65
1629894359171,-22.2
1629894359187,-24.84
1629894359203,-27.16
1629894359218,-28.69
1629894359234,-29.05
1629894359250,-28.03
1629894359265,-25.63
1629894359281,-22.05
1629894359296,-17.57
1629894359312,-12.56
1629894359328,-7.41
1629894359343,-2.51
1629894359359,1.8
1629894359375,5.29
1629894359390,7.88
1629894359406,9.65
1629894359421,10.77
1629894359437,11.44
1629894359453,11.76
1629894359468,11.82
1629894359484,11.66
1629894359500,11.43
1629894359515,11.28
1629894359531,11.35
1629894359546,11.65
1629894359562,12.1
1629894359578,12.53
1629894359593,12.82
1629894359609,12.96
1629894359625,13.02
1629894359640,13.09
1629894359656,13.15
1629894359671,13.1
1629894359687,12.79
1629894359703,12.15
1629894359718,11.22
1629894359734,10.16
1629894359750,9.16
1629894359765,8.32
1629894359781,7.63
1629894359796,6.91
1629894359812,5.98
1629894359828,4.72
1629894359843,3.13
1629894359859,1.37
1629894359875,-0.33
1629894359890,-1.78
1629894359906,-2.88
1629894359921,-3.69
1629894359937,-4.37
1629894359953,-5.12
1629894359968,-6.1
1629894359984,-7.38
1629894360000,-8.9
1629894360015,-10.54
1629894360031,-12.15
1629894360046,-13.61
1629894360062,-14.93
1629894360078,-16.25
1629894360093,-17.75
1629894360109,-19.55
1629894360125,-21.6
1629894360140,-23.58
1629894360156,-25.02
1629894360171,-25.41
1629894360187,-24.42
1629894360203,-21.99
1629894360218,-18.34
1629894360234,-13.9
1629894360250,-9.14
1629894360265,-4.5
1629894360281,-0.29
1629894360296,3.25
1629894360312,5.99
1629894360328,7.91
1629894360343,9.04
1629894360359,9.5
1629894360375,9.45
1629894360390,9.06
1629894360406,8.51
1629894360421,7.97
1629894360437,7.61
1629894360453,7.54
1629894360468,7.8
1629894360484,8.27
1629894360500,8.78
1629894360515,9.2
1629894360531,9.48
1629894360546,9.74
1629894360562,10.12
1629894360578,10.67
1629894360593,11.32
1629894360609,11.84
1629894360625,12.02
1629894360640,11.73
1629894360656,10.98
1629894360671,9.89
1629894360687,8.56
1629894360703,7.11
1629894360718,5.58
1629894360734,4.03
1629894360750,2.54
1629894360765,1.15
1629894360781,-0.13
1629894360796,-1.36
1629894360812,-2.63
1629894360828,-3.94
1629894360843,-5.22
1629894360859,-6.32
1629894360875,-7.16
1629894360890,-7.75
1629894360906,-8.26
1629894360921,-8.9
1629894360937,-9.91
1629894360953,-11.41
1629894360968,-13.38
1629894360984,-15.6
1629894361000,-17.76
1629894361015,-19.44
1629894361031,-20.31
1629894361046,-20.13
1629894361062,-18.84
1629894361078,-16.54
1629894361093,-13.46
1629894361109,-9.9
1629894361125,-6.17
1629894361140,-2.52
1629894361156,0.85
1629894361171,3.82
1629894361187,6.29
1629894361203,8.24
1629894361218,9.62
1629894361234,10.46
1629894361250,10.81
1629894361265,10.81
1629894361281,10.65
1629894361296,10.55
1629894361312,10.64
1629894361328,10.94
1629894361343,11.37
1629894361359,11.82
1629894361375,12.17
1629894361390,12.4
1629894361406,12.52
1629894361421,12.55
1629894361437,12.54
1629894361453,12.47
1629894361468,12.34
1629894361484,12.2
1629894361500,12.03
1629894361515,11.83
1629894361531,11.47
1629894361546,10.78
1629894361562,9.64
1629894361578,8.06
1629894361593,6.21
1629894361609,4.38
1629894361625,2.85
1629894361640,1.72
1629894361656,0.96
1629894361671,0.38
1629894361687,-0.21
1629894361703,-0.95
1629894361718,-1.86
1629894361734,-2.89
1629894361750,-3.97
1629894361765,-5.11
1629894361781,-6.34
1629894361796,-7.74
1629894361812,-9.36
1629894361828,-11.23
1629894361843,-13.34
1629894361859,-15.65
1629894361875,-18.11
1629894361890,-20.61
1629894361906,-22.92
1629894361921,-24.77
1629894361937,-25.8
1629894361953,-25.69
1629894361968,-24.25
1629894361984,-21.56
1629894362000,-17.92
1629894362015,-13.8
1629894362031,-9.66
1629894362046,-5.82
1629894362062,-2.42
1629894362078,0.56
1629894362093,3.13
1629894362109,5.27
1629894362125,6.9
1629894362140,7.96
1629894362156,8.52
1629894362171,8.74
1629894362187,8.86
1629894362203,9.03
1629894362218,9.26
1629894362234,9.48
1629894362250,9.6
1629894362265,9.59
1629894362281,9.58
1629894362296,9.75
1629894362312,10.23
1629894362328,11.03
1629894362343,12.02
1629894362359,12.95
1629894362375,13.59
1629894362390,13.74
1629894362406,13.4
1629894362421,12.67
1629894362437,11.71
1629894362453,10.7
1629894362468,9.74
1629894362484,8.8
1629894362500,7.82
1629894362515,6.68
1629894362531,5.38
1629894362546,4.02
1629894362562,2.76
1629894362578,1.76
1629894362593,1.04
1629894362609,0.47
1629894362625,-0.19
1629894362640,-1.21
1629894362656,-2.71
1629894362671,-4.62
1629894362687,-6.72
1629894362703,-8.7
1629894362718,-10.31
1629894362734,-11.48
1629894362750,-12.33
1629894362765,-13.13
1629894362781,-14.18
1629894362796,-15.65
1629894362812,-17.56
1629894362828,-19.75
1629894362843,-21.92
1629894362859,-23.76
1629894362875,-24.91
1629894362890,-25.08
1629894362906,-24.1
1629894362921,-21.98
1629894362937,-18.91
1629894362953,-15.28
1629894362968,-11.46
1629894362984,-7.76
1629894363000,-4.3
1629894363015,-1.1
1629894363031,1.84
1629894363046,4.4
1629894363062,6.39
1629894363078,7.61
1629894363093,8.02
1629894363109,7.79
1629894363125,7.22
1629894363140,6.65
1629894363156,6.34
1629894363171,6.4
1629894363187,6.87
1629894363203,7.7
1629894363218,8.81
1629894363234,10.04
1629894363250,11.2
1629894363265,12.07
1629894363281,12.52
1629894363296,12.49
1629894363312,12.08
1629894363328,11.44
1629894363343,10.74
1629894363359,10.08
1629894363375,9.53
1629894363390,9.02
1629894363406,8.47
1629894363421,7.75
1629894363437,6.77
1629894363453,5.5
1629894363468,3.97
1629894363484,2.34
1629894363500,0.77
1629894363515,-0.57
1629894363531,-1.61
1629894363546,-2.38
1629894363562,-2.96
1629894363578,-3.46
1629894363593,-4.01
1629894363609,-4.69
1629894363625,-5.62
1629894363640,-6.88
1629894363656,-8.47
1629894363671,-10.33
1629894363687,-12.3
1629894363703,-14.18
1629894363718,-15.86
1629894363734,-17.35
1629894363750,-18.82
1629894363765,-20.5
1629894363781,-22.48
1629894363796,-24.62
1629894363812,-26.5
1629894363828,-27.58
1629894363843,-27.43
1629894363859,-25.91
1629894363875,-23.19
1629894363890,-19.64
1629894363906,-15.62
1629894363921,-11.4
1629894363937,-7.1
1629894363953,-2.86
1629894363968,1.1
1629894363984,4.46
1629894364000,6.89
1629894364015,8.21
1629894364031,8.51
1629894364046,8.08
1629894364062,7.33
1629894364078,6.64
1629894364093,6.25
1629894364109,6.27
1629894364125,6.67
1629894364140,7.39
1629894364156,8.31
1629894364171,9.3
1629894364187,10.22
1629894364203,10.94
1629894364218,11.38
1629894364234,11.5
1629894364250,11.37
1629894364265,11.08
1629894364281,10.74
1629894364296,10.4
1629894364312,10.06
1629894364328,9.63
1629894364343,9.02
1629894364359,8.2
1629894364375,7.19
1629894364390,6.06
1629894364406,4.92
1629894364421,3.78
1629894364437,2.63
1629894364453,1.42
1629894364468,0.15
1629894364484,-1.07
1629894364500,-2.12
1629894364515,-2.91
1629894364531,-3.47
1629894364546,-3.95
1629894364562,-4.61
1629894364578,-5.61
1629894364593,-7.02
1629894364609,-8.79
1629894364625,-10.8
1629894364640,-12.97
1629894364656,-15.19
1629894364671,-17.33
1629894364687,-19.15
1629894364703,-20.33
1629894364718,-20.5
1629894364734,-19.48
1629894364750,-17.27
1629894364765,-14.06
1629894364781,-10.22
1629894364796,-6.09
1629894364812,-1.97
1629894364828,1.91
1629894364843,5.37
1629894364859,8.27
1629894364875,10.48
1629894364890,11.98
1629894364906,12.83
1629894364921,13.21
1629894364937,13.31
1629894364953,13.35
1629894364968,13.47
1629894364984,13.68
1629894365000,13.96
1629894365015,14.2
1629894365031,14.34
1629894365046,14.39
1629894365062,14.44
1629894365078,14.61
1629894365093,14.98
1629894365109,15.51
1629894365125,16.06
1629894365140,16.41
1629894365156,16.41
1629894365171,15.98
1629894365187,15.19
1629894365203,14.19
1629894365218,13.07
1629894365234,11.91
1629894365250,10.71
1629894365265,9.43
1629894365281,8.05
1629894365296,6.61
1629894365312,5.14
1629894365328,3.65
1629894365343,2.12
1629894365359,0.5
1629894365375,-1.26
1629894365390,-3.17
1629894365406,-5.15
1629894365421,-7.04
1629894365437,-8.67
1629894365453,-9.93
1629894365468,-10.83
1629894365484,-11.54
1629894365500,-12.33
1629894365515,-13.52
1629894365531,-15.36
1629894365546,-17.91
1629894365562,-21.02
1629894365578,-24.35
1629894365593,-27.36
1629894365609,-29.48
1629894365625,-30.22
1629894365640,-29.3
1629894365656,-26.73
1629894365671,-22.82
1629894365687,-18.06
1629894365703,-12.97
1629894365718,-8.03
1629894365734,-3.52
1629894365750,0.43
1629894365765,3.75
1629894365781,6.42
1629894365796,8.41
1629894365812,9.74
1629894365828,10.53
1629894365843,10.94
1629894365859,11.21
1629894365875,11.47
1629894365890,11.82
1629894365906,12.25
1629894365921,12.72
1629894365937,13.21
1629894365953,13.74
1629894365968,14.33
1629894365984,14.97
1629894366000,15.61
1629894366015,16.13
1629894366031,16.45
1629894366046,16.52
1629894366062,16.38
1629894366078,16.12
1629894366093,15.79
1629894366109,15.38
1629894366125,14.76
1629894366140,13.82
1629894366156,12.54
1629894366171,11.0
1629894366187,9.4
1629894366203,7.94
1629894366218,6.74
1629894366234,5.75
1629894366250,4.81
1629894366265,3.71
1629894366281,2.31
1629894366296,0.62
1629894366312,-1.24
1629894366328,-3.06
1629894366343,-4.67
1629894366359,-5.99
1629894366375,-7.1
1629894366390,-8.16
1629894366406,-9.38
1629894366421,-10.92
1629894366437,-12.79
1629894366453,-14.93
1629894366468,-17.26
1629894366484,-19.7
1629894366500,-22.23
1629894366515,-24.79
1629894366531,-27.18
1629894366546,-29.02
1629894366562,-29.82
1629894366578,-29.19
1629894366593,-26.95
1629894366609,-23.27
1629894366625,-18.59
1629894366640,-13.46
1629894366656,-8.37
1629894366671,-3.71
1629894366687,0.3
1629894366703,3.57
1629894366718,6.12
1629894366734,8.04
1629894366750,9.51
1629894366765,10.69
1629894366781,11.74
1629894366796,12.74
1629894366812,13.65
1629894366828,14.39
1629894366843,14.88
1629894366859,15.11
1629894366875,15.15
1629894366890,15.11
1629894366906,15.13
1629894366921,15.33
1629894366937,15.78
1629894366953,16.48
1629894366968,17.36
1629894366984,18.26
1629894367000,19.04
1629894367015,19.53
1629894367031,19.64
1629894367046,19.32
1629894367062,18.56
1629894367078,17.39
1629894367093,15.88
1629894367109,14.17
1629894367125,12.4
1629894367140,10.72
1629894367156,9.23
1629894367171,7.9
1629894367187,6.67
1629894367203,5.45
1629894367218,4.21
1629894367234,2.93
1629894367250,1.63
1629894367265,0.25
1629894367281,-1.29
1629894367296,-3.03
1629894367312,-4.9
1629894367328,-6.71
1629894367343,-8.27
1629894367359,-9.49
1629894367375,-10.46
1629894367390,-11.42
1629894367406,-12.62
1629894367421,-14.25
1629894367437,-16.3
1629894367453,-18.66
1629894367468,-21.15
1629894367484,-23.62
1629894367500,-25.93
1629894367515,-27.91
1629894367531,-29.33
1629894367546,-29.9
1629894367562,-29.36
1629894367578,-27.56
1629894367593,-24.53
1629894367609,-20.51
1629894367625,-15.88
1629894367640,-11.08
1629894367656,-6.49
1629894367671,-2.34
1629894367687,1.29
1629894367703,4.43
1629894367718,7.07
1629894367734,9.13
1629894367750,10.44
1629894367765,10.88
1629894367781,10.48
1629894367796,9.51
1629894367812,8.39
1629894367828,7.56
1629894367843,7.32
1629894367859,7.72
1629894367875,8.63
1629894367890,9.78
1629894367906,10.96
1629894367921,12.0
1629894367937,12.82
1629894367953,13.37
1629894367968,13.63
1629894367984,13.55
1629894368000,13.12
1629894368015,12.37
1629894368031,11.45
1629894368046,10.55
1629894368062,9.8
1629894368078,9.23
1629894368093,8.72
1629894368109,8.04
1629894368125,6.98
1629894368140,5.47
1629894368156,3.64
1629894368171,1.72
1629894368187,-0.04
1629894368203,-1.48
1629894368218,-2.62
1629894368234,-3.59
1629894368250,-4.52
1629894368265,-5.53
1629894368281,-6.66
1629894368296,-7.89
1629894368312,-9.18
1629894368328,-10.5
1629894368343,-11.85
1629894368359,-13.25
1629894368375,-14.79
1629894368390,-16.58
1629894368406,-18.71
1629894368421,-21.22
1629894368437,-23.97
1629894368453,-26.65
1629894368468,-28.87
1629894368484,-30.25
1629894368500,-30.52
1629894368515,-29.62
1629894368531,-27.68
1629894368546,-24.88
1629894368562,-21.51
1629894368578,-17.87
1629894368593,-14.26
1629894368609,-11.05
1629894368625,-8.53
1629894368640,-6.92
1629894368656,-6.27
1629894368671,-6.48
1629894368687,-7.33
1629894368703,-8.59
1629894368718,-10.05
1629894368734,-11.58
1629894368750,-13.09
1629894368765,-14.52
1629894368781,-15.79
1629894368796,-16.8
1629894368812,-17.46
1629894368828,-17.68
1629894368843,-17.41
1629894368859,-16.63
1629894368875,-15.25
1629894368890,-13.19
1629894368906,-10.32
1629894368921,-6.56
1629894368937,-1.91
1629894368953,3.43
1629894368968,9.18
1629894368984,14.91
1629894369000,20.26
1629894369015,24.95
1629894369031,28.83
1629894369046,31.85
1629894369062,34.0
1629894369078,35.27
1629894369093,35.66
1629894369109,35.2
1629894369125,33.96
1629894369140,32.02
1629894369156,29.54
1629894369171,26.7
1629894369187,23.71
1629894369203,20.8
1629894369218,18.16
1629894369234,15.84
1629894369250,13.76
1629894369265,11.64
1629894369281,9.19
1629894369296,6.16
1629894369312,2.55
1629894369328,-1.37
1629894369343,-5.15
1629894369359,-8.29
1629894369375,-10.38
1629894369390,-11.25
1629894369406,-10.89
1629894369421,-9.45
1629894369437,-7.11
1629894369453,-4.12
1629894369468,-0.72
1629894369484,2.77
1629894369500,6.02
1629894369515,8.73
1629894369531,10.73
1629894369546,11.96
1629894369562,12.56
1629894369578,12.72
1629894369593,12.65
1629894369609,12.48
1629894369625,12.31
1629894369640,12.17
1629894369656,12.11
1629894369671,12.12
1629894369687,12.18
1629894369703,12.26
1629894369718,12.29
1629894369734,12.2
1629894369750,12.03
1629894369765,11.85
1629894369781,11.75
1629894369796,11.78
1629894369812,11.86
1629894369828,11.88
1629894369843,11.7
1629894369859,11.27
1629894369875,10.59
1629894369890,9.76
1629894369906,8.8
1629894369921,7.73
1629894369937,6.5
1629894369953,5.14
1629894369968,3.77
1629894369984,2.53
1629894370000,1.53
1629894370015,0.7
1629894370031,-0.16
1629894370046,-1.3
1629894370062,-2.85
1629894370078,-4.78
1629894370093,-6.84
1629894370109,-8.74
1629894370125,-10.27
1629894370140,-11.41
1629894370156,-12.36
1629894370171,-13.44
1629894370187,-14.91
1629894370203,-16.87
1629894370218,-19.2
1629894370234,-21.59
1629894370250,-23.6
1629894370265,-24.79
1629894370281,-24.84
1629894370296,-23.61
1629894370312,-21.16
1629894370328,-17.72
1629894370343,-13.64
1629894370359,-9.32
1629894370375,-5.12
1629894370390,-1.31
1629894370406,1.96
1629894370421,4.67
1629894370437,6.84
1629894370453,8.54
1629894370468,9.8
1629894370484,10.71
1629894370500,11.38
1629894370515,11.95
1629894370531,12.56
1629894370546,13.27
1629894370562,14.05
1629894370578,14.8
1629894370593,15.38
1629894370609,15.68
1629894370625,15.69
1629894370640,15.46
1629894370656,15.07
1629894370671,14.67
1629894370687,14.37
1629894370703,14.23
1629894370718,14.25
1629894370734,14.33
1629894370750,14.31
1629894370765,14.0
1629894370781,13.29
1629894370796,12.15
1629894370812,10.63
1629894370828,8.84
1629894370843,6.92
1629894370859,5.03
1629894370875,3.27
1629894370890,1.72
1629894370906,0.38
1629894370921,-0.84
1629894370937,-2.07
1629894370953,-3.43
1629894370968,-4.98
1629894370984,-6.68
1629894371000,-8.46
1629894371015,-10.23
1629894371031,-11.93
1629894371046,-13.55
1629894371062,-15.14
1629894371078,-16.81
1629894371093,-18.67
1629894371109,-20.81
1629894371125,-23.22
1629894371140,-25.69
1629894371156,-27.88
1629894371171,-29.31
1629894371187,-29.58
1629894371203,-28.45
1629894371218,-25.97
1629894371234,-22.41
1629894371250,-18.17
1629894371265,-13.67
1629894371281,-9.27
1629894371296,-5.19
1629894371312,-1.55
1629894371328,1.6
1629894371343,4.24
1629894371359,6.39
1629894371375,8.04
1629894371390,9.2
1629894371406,9.87
1629894371421,10.13
1629894371437,10.12
1629894371453,10.08
1629894371468,10.22
1629894371484,10.65
1629894371500,11.33
1629894371515,12.12
1629894371531,12.83
1629894371546,13.43
1629894371562,13.97
1629894371578,14.61
1629894371593,15.39
1629894371609,16.2
1629894371625,16.75
1629894371640,16.72
1629894371656,16.0
1629894371671,14.69
1629894371687,13.13
1629894371703,11.67
1629894371718,10.46
1629894371734,9.43
1629894371750,8.4
1629894371765,7.2
1629894371781,5.82
1629894371796,4.41
1629894371812,3.13
1629894371828,2.07
1629894371843,1.22
1629894371859,0.44
1629894371875,-0.37
1629894371890,-1.31
1629894371906,-2.42
1629894371921,-3.73
1629894371937,-5.26
1629894371953,-6.98
1629894371968,-8.8
1629894371984,-10.6
1629894372000,-12.24
1629894372015,-13.68
1629894372031,-15.0
1629894372046,-16.38
1629894372062,-18.02
1629894372078,-20.08
1629894372093,-22.54
1629894372109,-25.25
1629894372125,-27.87
1629894372140,-30.05
1629894372156,-31.41
1629894372171,-31.69
1629894372187,-30.71
1629894372203,-28.4
1629894372218,-24.83
1629894372234,-20.2
1629894372250,-14.9
1629894372265,-9.44
1629894372281,-4.42
1629894372296,-0.32
1629894372312,2.63
1629894372328,4.52
1629894372343,5.64
1629894372359,6.33
1629894372375,6.88
1629894372390,7.4
1629894372406,7.94
1629894372421,8.53
1629894372437,9.24
1629894372453,10.11
1629894372468,11.11
1629894372484,12.14
1629894372500,13.02
1629894372515,13.62
1629894372531,13.93
1629894372546,14.01
1629894372562,14.02
1629894372578,14.07
1629894372593,14.19
1629894372609,14.29
1629894372625,14.26
1629894372640,13.99
1629894372656,13.46
1629894372671,12.71
1629894372687,11.86
1629894372703,11.0
1629894372718,10.15
1629894372734,9.24
1629894372750,8.17
1629894372765,6.9
1629894372781,5.5
1629894372796,4.14
1629894372812,2.99
1629894372828,2.12
1629894372843,1.4
1629894372859,0.64
1629894372875,-0.4
1629894372890,-1.82
1629894372906,-3.5
1629894372921,-5.22
1629894372937,-6.74
1629894372953,-7.96
1629894372968,-8.97
1629894372984,-10.0
1629894373000,-11.31
1629894373015,-13.08
1629894373031,-15.29
1629894373046,-17.83
1629894373062,-20.45
1629894373078,-22.85
1629894373093,-24.69
1629894373109,-25.66
1629894373125,-25.49
1629894373140,-24.08
1629894373156,-21.5
1629894373171,-17.98
1629894373187,-13.83
1629894373203,-9.4
1629894373218,-5.02
1629894373234,-0.96
1629894373250,2.53
1629894373265,5.32
1629894373281,7.3
1629894373296,8.53
1629894373312,9.15
1629894373328,9.41
1629894373343,9.54
1629894373359,9.74
1629894373375,10.1
1629894373390,10.63
1629894373406,11.24
1629894373421,11.87
1629894373437,12.43
1629894373453,12.88
1629894373468,13.23
1629894373484,13.48
1629894373500,13.66
1629894373515,13.75
1629894373531,13.73
1629894373546,13.56
1629894373562,13.25
1629894373578,12.85
1629894373593,12.44
1629894373609,12.04
1629894373625,11.59
1629894373640,10.98
1629894373656,10.04
1629894373671,8.74
1629894373687,7.14
1629894373703,5.42
1629894373718,3.79
1629894373734,2.38
1629894373750,1.24
1629894373765,0.31
1629894373781,-0.53
1629894373796,-1.37
1629894373812,-2.29
1629894373828,-3.32
1629894373843,-4.46
1629894373859,-5.7
1629894373875,-7.02
1629894373890,-8.39
1629894373906,-9.82
1629894373921,-11.33
1629894373937,-13.0
1629894373953,-14.91
1629894373968,-17.02
1629894373984,-19.16
1629894374000,-21.03
1629894374015,-22.21
1629894374031,-22.37
1629894374046,-21.31
1629894374062,-19.06
1629894374078,-15.8
1629894374093,-11.85
1629894374109,-7.54
1629894374125,-3.23
1629894374140,0.75
1629894374156,4.14
1629894374171,6.75
1629894374187,8.58
1629894374203,9.74
1629894374218,10.44
1629894374234,10.9
1629894374250,11.26
1629894374265,11.56
1629894374281,11.78
1629894374296,11.93
1629894374312,12.07
1629894374328,12.3
1629894374343,12.66
1629894374359,13.16
1629894374375,13.72
1629894374390,14.22
1629894374406,14.59
1629894374421,14.81
1629894374437,14.95
1629894374453,15.05
1629894374468,15.13
1629894374484,15.11
1629894374500,14.9
1629894374515,14.39
1629894374531,13.55
1629894374546,12.43
1629894374562,11.1
1629894374578,9.66
1629894374593,8.18
1629894374609,6.68
1629894374625,5.16
1629894374640,3.6
1629894374656,2.0
1629894374671,0.35
1629894374687,-1.3
1629894374703,-2.86
1629894374718,-4.19
1629894374734,-5.23
1629894374750,-5.93
1629894374765,-6.41
1629894374781,-6.82
1629894374796,-7.27
1629894374812,-7.79
1629894374828,-8.28
1629894374843,-8.65
1629894374859,-8.88
1629894374875,-9.11
1629894374890,-9.59
1629894374906,-10.57
1629894374921,-12.11
1629894374937,-13.97
1629894374953,-15.69
1629894374968,-16.74
1629894374984,-16.68
1629894375000,-15.38
1629894375015,-12.99
1629894375031,-9.93
1629894375046,-6.65
1629894375062,-3.52
1629894375078,-0.75
1629894375093,1.62
1629894375109,3.54
1629894375125,4.94
1629894375140,5.73
1629894375156,5.88
1629894375171,5.54
1629894375187,5.1
1629894375203,4.98
1629894375218,5.48
1629894375234,6.63
1629894375250,8.14
1629894375265,9.57
1629894375281,10.58
1629894375296,11.03
1629894375312,11.06
1629894375328,10.95
1629894375343,10.95
1629894375359,11.16
1629894375375,11.51
1629894375390,11.87
1629894375406,12.13
1629894375421,12.23
1629894375437,12.18
1629894375453,12.01
1629894375468,11.71
1629894375484,11.26
1629894375500,10.6
1629894375515,9.66
1629894375531,8.39
1629894375546,6.86
1629894375562,5.19
1629894375578,3.62
1629894375593,2.34
1629894375609,1.43
1629894375625,0.83
1629894375640,0.33
1629894375656,-0.3
1629894375671,-1.23
1629894375687,-2.48
1629894375703,-3.94
1629894375718,-5.48
1629894375734,-7.01
1629894375750,-8.53
1629894375765,-10.1
1629894375781,-11.72
1629894375796,-13.38
1629894375812,-14.99
1629894375828,-16.48
1629894375843,-17.87
1629894375859,-19.31
1629894375875,-20.97
1629894375890,-22.92
1629894375906,-24.99
1629894375921,-26.83
1629894375937,-27.89
1629894375953,-27.7
1629894375968,-25.99
1629894375984,-22.86
1629894376000,-18.68
1629894376015,-14.0
1629894376031,-9.36
1629894376046,-5.14
1629894376062,-1.54
1629894376078,1.4
1629894376093,3.72
1629894376109,5.5
1629894376125,6.81
1629894376140,7.77
1629894376156,8.48
1629894376171,9.05
1629894376187,9.57
1629894376203,10.06
1629894376218,10.53
1629894376234,10.94
1629894376250,11.28
1629894376265,11.56
1629894376281,11.81
1629894376296,12.09
1629894376312,12.41
1629894376328,12.74
1629894376343,13.04
1629894376359,13.26
1629894376375,13.34
1629894376390,13.28
1629894376406,13.03
1629894376421,12.56
1629894376437,11.8
1629894376453,10.78
1629894376468,9.59
1629894376484,8.38
1629894376500,7.33
1629894376515,6.46
1629894376531,5.68
1629894376546,4.76
1629894376562,3.52
1629894376578,1.97
1629894376593,0.26
1629894376609,-1.3
1629894376625,-2.5
1629894376640,-3.3
1629894376656,-3.89
1629894376671,-4.54
1629894376687,-5.46
1629894376703,-6.65
1629894376718,-7.98
1629894376734,-9.24
1629894376750,-10.34
1629894376765,-11.27
1629894376781,-12.16
1629894376796,-13.12
1629894376812,-14.24
1629894376828,-15.57
1629894376843,-17.12
1629894376859,-18.94
1629894376875,-21.03
1629894376890,-23.26
1629894376906,-25.38
1629894376921,-27.0
1629894376937,-27.69
1629894376953,-27.15
1629894376968,-25.24
1629894376984,-22.07
1629894377000,-17.93
1629894377015,-13.23
1629894377031,-8.44
1629894377046,-3.95
1629894377062,-0.07
1629894377078,3.04
1629894377093,5.35
1629894377109,6.93
1629894377125,7.84
1629894377140,8.18
1629894377156,8.01
1629894377171,7.44
1629894377187,6.67
1629894377203,5.96
1629894377218,5.61
1629894377234,5.83
1629894377250,6.64
1629894377265,7.91
1629894377281,9.36
1629894377296,10.67
1629894377312,11.61
1629894377328,12.05
1629894377343,12.03
1629894377359,11.68
1629894377375,11.17
1629894377390,10.63
1629894377406,10.11
1629894377421,9.61
1629894377437,9.09
1629894377453,8.57
1629894377468,8.08
1629894377484,7.61
1629894377500,7.13
1629894377515,6.53
1629894377531,5.67
1629894377546,4.5
1629894377562,3.05
1629894377578,1.49
1629894377593,-0.01
1629894377609,-1.35
1629894377625,-2.52
1629894377640,-3.62
1629894377656,-4.74
1629894377671,-5.91
1629894377687,-7.13
1629894377703,-8.34
1629894377718,-9.52
1629894377734,-10.68
1629894377750,-11.84
1629894377765,-13.07
1629894377781,-14.35
1629894377796,-15.69
1629894377812,-17.07
1629894377828,-18.47
1629894377843,-19.85
1629894377859,-21.12
1629894377875,-22.14
1629894377890,-22.66
1629894377906,-22.45
1629894377921,-21.32
1629894377937,-19.17
1629894377953,-16.05
1629894377968,-12.15
1629894377984,-7.77
1629894378000,-3.32
1629894378015,0.8
1629894378031,4.2
1629894378046,6.63
1629894378062,7.99
1629894378078,8.4
1629894378093,8.17
1629894378109,7.7
1629894378125,7.4
1629894378140,7.5
1629894378156,8.01
1629894378171,8.76
1629894378187,9.53
1629894378203,10.17
1629894378218,10.69
1629894378234,11.21
1629894378250,11.87
1629894378265,12.7
1629894378281,13.58
1629894378296,14.31
1629894378312,14.71
1629894378328,14.74
1629894378343,14.52
1629894378359,14.22
1629894378375,13.94
1629894378390,13.67
1629894378406,13.25
1629894378421,12.52
1629894378437,11.37
1629894378453,9.85
1629894378468,8.08
1629894378484,6.26
1629894378500,4.54
1629894378515,3.02
1629894378531,1.75
1629894378546,0.73
1629894378562,-0.09
1629894378578,-0.78
1629894378593,-1.45
1629894378609,-2.22
1629894378625,-3.18
1629894378640,-4.39
1629894378656,-5.81
1629894378671,-7.35
1629894378687,-8.88
1629894378703,-10.27
1629894378718,-11.47
1629894378734,-12.56
1629894378750,-13.68
1629894378765,-15.06
1629894378781,-16.77
1629894378796,-18.75
1629894378812,-20.69
1629894378828,-22.19
1629894378843,-22.84
1629894378859,-22.38
1629894378875,-20.78
1629894378890,-18.12
1629894378906,-14.63
1629894378921,-10.54
1629894378937,-6.09
1629894378953,-1.53
1629894378968,2.87
1629894378984,6.79
1629894379000,9.91
1629894379015,12.02
1629894379031,13.07
1629894379046,13.23
1629894379062,12.81
1629894379078,12.16
1629894379093,11.62
1629894379109,11.37
1629894379125,11.44
1629894379140,11.77
1629894379156,12.23
1629894379171,12.69
1629894379187,13.06
1629894379203,13.26
1629894379218,13.32
1629894379234,13.28
1629894379250,13.19
1629894379265,13.09
1629894379281,12.92
1629894379296,12.61
1629894379312,12.09
1629894379328,11.4
1629894379343,10.64
1629894379359,9.97
1629894379375,9.45
1629894379390,9.04
1629894379406,8.58
1629894379421,7.87
1629894379437,6.83
1629894379453,5.48
1629894379468,3.97
1629894379484,2.48
1629894379500,1.13
1629894379515,-0.04
1629894379531,-1.06
1629894379546,-2.0
1629894379562,-2.9
1629894379578,-3.8
1629894379593,-4.75
1629894379609,-5.75
1629894379625,-6.82
1629894379640,-7.93
1629894379656,-9.1
1629894379671,-10.37
1629894379687,-11.82
1629894379703,-13.48
1629894379718,-15.34
1629894379734,-17.35
1629894379750,-19.45
1629894379765,-21.58
1629894379781,-23.68
1629894379796,-25.63
1629894379812,-27.14
1629894379828,-27.84
1629894379843,-27.33
1629894379859,-25.37
1629894379875,-22.05
1629894379890,-17.75
1629894379906,-13.05
1629894379921,-8.47
1629894379937,-4.37
1629894379953,-0.83
1629894379968,2.2
1629894379984,4.79
1629894380000,6.95
1629894380015,8.61
1629894380031,9.69
1629894380046,10.22
1629894380062,10.38
1629894380078,10.45
1629894380093,10.69
1629894380109,11.2
1629894380125,11.91
1629894380140,12.61
1629894380156,13.1
1629894380171,13.31
1629894380187,13.34
1629894380203,13.42
1629894380218,13.72
1629894380234,14.3
1629894380250,15.04
1629894380265,15.72
1629894380281,16.14
1629894380296,16.18
1629894380312,15.82
1629894380328,15.07
1629894380343,13.97
1629894380359,12.54
1629894380375,10.82
1629894380390,8.94
1629894380406,7.04
1629894380421,5.27
1629894380437,3.76
1629894380453,2.54
1629894380468,1.58
1629894380484,0.8
1629894380500,0.13
1629894380515,-0.54
1629894380531,-1.28
1629894380546,-2.18
1629894380562,-3.3
1629894380578,-4.66
1629894380593,-6.25
1629894380609,-7.99
1629894380625,-9.74
1629894380640,-11.34
1629894380656,-12.64
1629894380671,-13.61
1629894380687,-14.36
1629894380703,-15.1
1629894380718,-16.11
1629894380734,-17.57
1629894380750,-19.49
1629894380765,-21.69
1629894380781,-23.82
1629894380796,-25.48
1629894380812,-26.33
1629894380828,-26.1
1629894380843,-24.69
1629894380859,-22.12
1629894380875,-18.55
1629894380890,-14.23
1629894380906,-9.46
1629894380921,-4.62
1629894380937,-0.06
1629894380953,3.85
1629894380968,6.86
1629894380984,8.81
1629894381000,9.75
1629894381015,9.86
1629894381031,9.47
1629894381046,8.85
1629894381062,8.23
1629894381078,7.7
1629894381093,7.28
1629894381109,7.0
1629894381125,6.93
1629894381140,7.17
1629894381156,7.74
1629894381171,8.56
1629894381187,9.45
1629894381203,10.22
1629894381218,10.81
1629894381234,11.25
1629894381250,11.66
1629894381265,12.08
1629894381281,12.43
1629894381296,12.54
1629894381312,12.31
1629894381328,11.69
1629894381343,10.79
1629894381359,9.75
1629894381375,8.66
1629894381390,7.53
1629894381406,6.32
1629894381421,5.05
1629894381437,3.81
1629894381453,2.73
1629894381468,1.86
1629894381484,1.13
1629894381500,0.33
1629894381515,-0.77
1629894381531,-2.29
1629894381546,-4.17
1629894381562,-6.22
1629894381578,-8.13
1629894381593,-9.66
1629894381609,-10.72
1629894381625,-11.41
1629894381640,-12.04
1629894381656,-12.99
1629894381671,-14.58
1629894381687,-16.93
1629894381703,-19.78
1629894381718,-22.62
1629894381734,-24.81
1629894381750,-25.81
1629894381765,-25.34
1629894381781,-23.42
1629894381796,-20.35
1629894381812,-16.46
1629894381828,-12.12
1629894381843,-7.6
1629894381859,-3.13
1629894381875,1.07
1629894381890,4.87
1629894381906,8.13
1629894381921,10.82
1629894381937,12.97
1629894381953,14.71
1629894381968,16.14
1629894381984,17.39
1629894382000,18.52
1629894382015,19.52
1629894382031,20.34
1629894382046,20.91
1629894382062,21.17
1629894382078,21.16
1629894382093,20.94
1629894382109,20.66
1629894382125,20.42
1629894382140,20.28
1629894382156,20.26
1629894382171,20.33
1629894382187,20.46
1629894382203,20.57
1629894382218,20.6
1629894382234,20.45
1629894382250,20.01
1629894382265,19.16
1629894382281,17.85
1629894382296,16.09
1629894382312,14.0
1629894382328,11.77
1629894382343,9.65
1629894382359,7.79
1629894382375,6.21
1629894382390,4.84
1629894382406,3.47
1629894382421,1.95
1629894382437,0.17
1629894382453,-1.83
1629894382468,-3.92
1629894382484,-5.95
1629894382500,-7.81
1629894382515,-9.45
1629894382531,-10.92
1629894382546,-12.33
1629894382562,-13.83
1629894382578,-15.57
1629894382593,-17.68
1629894382609,-20.16
1629894382625,-22.88
1629894382640,-25.56
1629894382656,-27.83
1629894382671,-29.34
1629894382687,-29.79
1629894382703,-29.01
1629894382718,-26.93
1629894382734,-23.65
1629894382750,-19.39
1629894382765,-14.51
1629894382781,-9.49
1629894382796,-4.78
1629894382812,-0.72
1629894382828,2.52
1629894382843,5.03
1629894382859,6.95
1629894382875,8.45
1629894382890,9.61
1629894382906,10.39
1629894382921,10.73
1629894382937,10.59
1629894382953,10.03
1629894382968,9.15
1629894382984,8.1
1629894383000,7.04
1629894383015,6.06
1629894383031,5.24
1629894383046,4.62
1629894383062,4.2
1629894383078,4.01
1629894383093,4.05
1629894383109,4.33
1629894383125,4.84
1629894383140,5.52
1629894383156,6.28
1629894383171,6.99
1629894383187,7.49
1629894383203,7.65
1629894383218,7.43
1629894383234,6.88
1629894383250,6.1
1629894383265,5.22
1629894383281,4.39
1629894383296,3.65
1629894383312,3.03
1629894383328,2.46
1629894383343,1.85
1629894383359,1.12
1629894383375,0.26
1629894383390,-0.69
1629894383406,-1.69
1629894383421,-2.74
1629894383437,-3.88
1629894383453,-5.14
1629894383468,-6.53
1629894383484,-7.97
1629894383500,-9.36
1629894383515,-10.64
1629894383531,-11.9
1629894383546,-13.34
1629894383562,-15.23
1629894383578,-17.71
1629894383593,-20.65
1629894383609,-23.67
1629894383625,-26.18
1629894383640,-27.61
1629894383656,-27.55
1629894383671,-25.92
1629894383687,-22.93
1629894383703,-18.97
1629894383718,-14.51
1629894383734,-9.98
1629894383750,-5.66
1629894383765,-1.75
1629894383781,1.69
1629894383796,4.62
1629894383812,7.04
1629894383828,8.97
1629894383843,10.42
1629894383859,11.41
1629894383875,11.96
1629894383890,12.16
1629894383906,12.13
1629894383921,12.03
1629894383937,12.03
1629894383953,12.23
1629894383968,12.68
1629894383984,13.38
1629894384000,14.26
1629894384015,15.28
1629894384031,16.35
1629894384046,17.36
1629894384062,18.11
1629894384078,18.4
1629894384093,18.09
1629894384109,17.18
1629894384125,15.85
1629894384140,14.39
1629894384156,13.07
1629894384171,12.05
1629894384187,11.33
1629894384203,10.81
