timestamp,bvp
1630934667000,-0.0
1630934667015,-0.0
1630934667031,-0.0
1630934667046,-0.0
1630934667062,-0.0
1630934667078,-0.0
1630934667093,-0.0
1630934667109,-0.0
1630934667125,-0.0
1630934667140,-0.0
1630934667156,0.0
1630934667171,0.01
1630934667187,0.01
1630934667203,-0.0
1630934667218,-0.03
1630934667234,-0.05
1630934667250,-0.05
1630934667265,0.0
1630934667281,0.13
1630934667296,0.36
1630934667312,0.66
1630934667328,1.01
1630934667343,1.37
1630934667359,1.72
1630934667375,2.06
1630934667390,2.4
1630934667406,2.79
1630934667421,3.24
1630934667437,3.8
1630934667453,4.42
1630934667468,5.06
1630934667484,5.66
1630934667500,6.2
1630934667515,6.68
1630934667531,7.15
1630934667546,7.68
1630934667562,8.31
1630934667578,9.14
1630934667593,10.09
1630934667609,11.04
1630934667625,11.88
1630934667640,12.56
1630934667656,13.14
1630934667671,13.76
1630934667687,14.65
1630934667703,15.96
1630934667718,17.91
1630934667734,20.32
1630934667750,22.9
1630934667765,25.38
1630934667781,27.58
1630934667796,29.57
1630934667812,31.68
1630934667828,34.32
1630934667843,37.81
1630934667859,42.54
1630934667875,48.15
1630934667890,54.1
1630934667906,59.83
1630934667921,64.97
1630934667937,69.58
1630934667953,74.14
1630934667968,79.34
1630934667984,85.71
1630934668000,93.76
1630934668015,103.0
1630934668031,112.62
1630934668046,121.73
1630934668062,129.77
1630934668078,136.75
1630934668093,143.3
1630934668109,150.75
1630934668125,157.77
1630934668140,166.64
1630934668156,177.95
1630934668171,191.79
1630934668187,206.97
1630934668203,220.57
1630934668218,228.24
1630934668234,225.36
1630934668250,208.53
1630934668265,176.87
1630934668281,132.78
1630934668296,80.09
1630934668312,23.11
1630934668328,-34.93
1630934668343,-92.49
1630934668359,-149.32
1630934668375,-205.52
1630934668390,-260.78
1630934668406,-314.24
1630934668421,-364.41
1630934668437,-410.37
1630934668453,-451.43
1630934668468,-487.02
1630934668484,-516.3
1630934668500,-537.88
1630934668515,-549.99
1630934668531,-550.84
1630934668546,-539.31
1630934668562,-515.15
1630934668578,-479.58
1630934668593,-434.75
1630934668609,-383.35
1630934668625,-328.06
1630934668640,-271.14
1630934668656,-214.24
1630934668671,-158.54
1630934668687,-104.99
1630934668703,-54.41
1630934668718,-7.84
1630934668734,33.72
1630934668750,69.46
1630934668765,98.99
1630934668781,122.46
1630934668796,140.5
1630934668812,154.04
1630934668828,164.0
1630934668843,171.11
1630934668859,175.65
1630934668875,177.64
1630934668890,176.96
1630934668906,173.66
1630934668921,168.05
1630934668937,160.81
1630934668953,152.77
1630934668968,144.7
1630934668984,137.04
1630934669000,129.78
1630934669015,122.51
1630934669031,114.69
1630934669046,105.94
1630934669062,96.28
1630934669078,86.17
1630934669093,76.33
1630934669109,67.43
1630934669125,59.83
1630934669140,53.4
1630934669156,47.69
1630934669171,42.04
1630934669187,35.85
1630934669203,28.62
1630934669218,20.1
1630934669234,10.52
1630934669250,0.84
1630934669265,-7.09
1630934669281,-10.93
1630934669296,-8.59
1630934669312,0.68
1630934669328,15.69
1630934669343,33.36
1630934669359,49.83
1630934669375,61.82
1630934669390,67.75
1630934669406,68.06
1630934669421,64.5
1630934669437,59.13
1630934669453,53.41
1630934669468,47.9
1630934669484,42.58
1630934669500,37.35
1630934669515,32.4
1630934669531,28.17
1630934669546,25.03
1630934669562,23.06
1630934669578,21.91
1630934669593,20.96
1630934669609,19.59
1630934669625,17.52
1630934669640,14.9
1630934669656,12.18
1630934669671,9.94
1630934669687,8.5
1630934669703,7.75
1630934669718,7.2
1630934669734,6.3
1630934669750,4.84
1630934669765,3.13
1630934669781,1.84
1630934669796,1.59
1630934669812,2.53
1630934669828,4.15
1630934669843,5.56
1630934669859,5.92
1630934669875,4.85
1630934669890,2.56
1630934669906,-0.33
1630934669921,-3.14
1630934669937,-5.4
1630934669953,-6.87
1630934669968,-7.43
1630934669984,-6.99
1630934670000,-5.53
1630934670015,-3.19
1630934670031,-0.4
1630934670046,2.16
1630934670062,3.85
1630934670078,4.3
1630934670093,3.58
1630934670109,2.1
1630934670125,0.5
1630934670140,-0.72
1630934670156,-1.37
1630934670171,-1.56
1630934670187,-1.62
1630934670203,-1.84
1630934670218,-2.31
1630934670234,-2.91
1630934670250,-3.41
1630934670265,-3.6
1630934670281,-3.5
1630934670296,-3.24
1630934670312,-3.01
1630934670328,-2.87
1630934670343,-2.74
1630934670359,-2.46
1630934670375,-1.92
1630934670390,-1.2
1630934670406,-0.45
1630934670421,0.15
1630934670437,0.53
1630934670453,0.74
1630934670468,0.96
1630934670484,1.4
1630934670500,2.11
1630934670515,3.12
1630934670531,4.32
1630934670546,5.61
1630934670562,6.85
1630934670578,7.89
1630934670593,8.59
1630934670609,8.88
1630934670625,8.82
1630934670640,8.59
1630934670656,8.48
1630934670671,8.75
1630934670687,9.48
1630934670703,10.45
1630934670718,11.31
1630934670734,11.47
1630934670750,10.51
1630934670765,8.34
1630934670781,5.16
1630934670796,1.46
1630934670812,-2.23
1630934670828,-5.46
1630934670843,-8.03
1630934670859,-9.92
1630934670875,-11.3
1630934670890,-12.28
1630934670906,-12.94
1630934670921,-13.3
1630934670937,-13.31
1630934670953,-12.98
1630934670968,-12.36
1630934670984,-11.57
1630934671000,-10.69
1630934671015,-9.82
1630934671031,-8.98
1630934671046,-8.21
1630934671062,-7.53
1630934671078,-7.0
1630934671093,-6.65
1630934671109,-6.47
1630934671125,-6.36
1630934671140,-6.22
1630934671156,-5.97
1630934671171,-5.62
1630934671187,-5.21
1630934671203,-4.84
1630934671218,-4.55
1630934671234,-4.32
1630934671250,-4.14
1630934671265,-3.94
1630934671281,-3.74
1630934671296,-3.57
1630934671312,-3.46
1630934671328,-3.39
1630934671343,-3.35
1630934671359,-3.33
1630934671375,-3.38
1630934671390,-3.5
1630934671406,-3.59
1630934671421,-3.35
1630934671437,-2.44
1630934671453,-0.57
1630934671468,2.24
1630934671484,5.6
1630934671500,8.87
1630934671515,11.36
1630934671531,12.66
1630934671546,12.74
1630934671562,11.93
1630934671578,10.69
1630934671593,9.43
1630934671609,8.32
1630934671625,7.39
1630934671640,6.55
1630934671656,5.76
1630934671671,5.02
1630934671687,4.36
1630934671703,3.77
1630934671718,3.23
1630934671734,2.7
1630934671750,2.17
1630934671765,1.66
1630934671781,1.2
1630934671796,0.84
1630934671812,0.62
1630934671828,0.55
1630934671843,0.54
1630934671859,0.52
1630934671875,0.32
1630934671890,-0.17
1630934671906,-1.07
1630934671921,-2.4
1630934671937,-4.08
1630934671953,-5.97
1630934671968,-7.88
1630934671984,-9.61
1630934672000,-11.06
1630934672015,-12.2
1630934672031,-13.17
1630934672046,-14.1
1630934672062,-15.13
1630934672078,-16.35
1630934672093,-17.71
1630934672109,-19.17
1630934672125,-20.69
1630934672140,-22.22
1630934672156,-23.63
1630934672171,-24.66
1630934672187,-24.82
1630934672203,-23.63
1630934672218,-20.74
1630934672234,-16.2
1630934672250,-10.52
1630934672265,-4.49
1630934672281,1.04
1630934672296,5.53
1630934672312,8.82
1630934672328,11.1
1630934672343,12.69
1630934672359,13.85
1630934672375,14.61
1630934672390,14.9
1630934672406,14.63
1630934672421,13.84
1630934672437,12.68
1630934672453,11.44
1630934672468,10.36
1630934672484,9.61
1630934672500,9.21
1630934672515,9.05
1630934672531,8.98
1630934672546,8.86
1630934672562,8.64
1630934672578,8.35
1630934672593,8.03
1630934672609,7.75
1630934672625,7.5
1630934672640,7.19
1630934672656,6.69
1630934672671,5.87
1630934672687,4.67
1630934672703,3.15
1630934672718,1.46
1630934672734,-0.19
1630934672750,-1.61
1630934672765,-2.7
1630934672781,-3.52
1630934672796,-4.26
1630934672812,-5.17
1630934672828,-6.49
1630934672843,-8.31
1630934672859,-10.59
1630934672875,-13.12
1630934672890,-15.56
1630934672906,-17.49
1630934672921,-18.44
1630934672937,-18.04
1630934672953,-16.05
1630934672968,-12.52
1630934672984,-7.76
1630934673000,-2.35
1630934673015,3.04
1630934673031,7.84
1630934673046,11.7
1630934673062,14.53
1630934673078,16.47
1630934673093,17.7
1630934673109,18.39
1630934673125,18.62
1630934673140,18.41
1630934673156,17.77
1630934673171,16.79
1630934673187,15.6
1630934673203,14.39
1630934673218,13.34
1630934673234,12.54
1630934673250,11.99
1630934673265,11.63
1630934673281,11.33
1630934673296,10.97
1630934673312,10.46
1630934673328,9.76
1630934673343,8.89
1630934673359,7.9
1630934673375,6.87
1630934673390,5.86
1630934673406,4.88
1630934673421,3.91
1630934673437,2.89
1630934673453,1.76
1630934673468,0.5
1630934673484,-0.86
1630934673500,-2.25
1630934673515,-3.6
1630934673531,-4.88
1630934673546,-6.09
1630934673562,-7.3
1630934673578,-8.59
1630934673593,-10.04
1630934673609,-11.7
1630934673625,-13.58
1630934673640,-15.56
1630934673656,-17.4
1630934673671,-18.77
1630934673687,-19.23
1630934673703,-18.45
1630934673718,-16.3
1630934673734,-12.97
1630934673750,-8.92
1630934673765,-4.75
1630934673781,-1.01
1630934673796,1.97
1630934673812,4.11
1630934673828,5.48
1630934673843,6.23
1630934673859,6.43
1630934673875,6.07
1630934673890,5.16
1630934673906,3.74
1630934673921,1.96
1630934673937,-0.02
1630934673953,-2.03
1630934673968,-3.94
1630934673984,-5.69
1630934674000,-7.23
1630934674015,-8.59
1630934674031,-9.77
1630934674046,-10.81
1630934674062,-11.72
1630934674078,-12.52
1630934674093,-13.14
1630934674109,-13.59
1630934674125,-13.85
1630934674140,-14.0
1630934674156,-14.13
1630934674171,-14.29
1630934674187,-14.39
1630934674203,-14.25
1630934674218,-13.7
1630934674234,-12.66
1630934674250,-11.24
1630934674265,-9.72
1630934674281,-8.38
1630934674296,-7.4
1630934674312,-6.88
1630934674328,-6.79
1630934674343,-7.06
1630934674359,-7.59
1630934674375,-8.2
1630934674390,-8.58
1630934674406,-8.27
1630934674421,-6.89
1630934674437,-4.23
1630934674453,-0.45
1630934674468,3.96
1630934674484,8.31
1630934674500,11.99
1630934674515,14.64
1630934674531,16.25
1630934674546,17.08
1630934674562,17.46
1630934674578,17.63
1630934674593,17.67
1630934674609,17.49
1630934674625,16.96
1630934674640,16.01
1630934674656,14.73
1630934674671,13.3
1630934674687,11.94
1630934674703,10.79
1630934674718,9.82
1630934674734,8.95
1630934674750,8.05
1630934674765,7.09
1630934674781,6.11
1630934674796,5.2
1630934674812,4.36
1630934674828,3.52
1630934674843,2.52
1630934674859,1.2
1630934674875,-0.5
1630934674890,-2.52
1630934674906,-4.65
1630934674921,-6.68
1630934674937,-8.41
1630934674953,-9.77
1630934674968,-10.8
1630934674984,-11.67
1630934675000,-12.61
1630934675015,-13.83
1630934675031,-15.41
1630934675046,-17.25
1630934675062,-19.03
1630934675078,-20.28
1630934675093,-20.51
1630934675109,-19.33
1630934675125,-16.6
1630934675140,-12.56
1630934675156,-7.7
1630934675171,-2.7
1630934675187,1.82
1630934675203,5.46
1630934675218,8.12
1630934675234,9.93
1630934675250,11.12
1630934675265,11.89
1630934675281,12.36
1630934675296,12.56
1630934675312,12.56
1630934675328,12.45
1630934675343,12.33
1630934675359,12.26
1630934675375,12.15
1630934675390,11.9
1630934675406,11.35
1630934675421,10.47
1630934675437,9.36
1630934675453,8.18
1630934675468,7.12
1630934675484,6.29
1630934675500,5.71
1630934675515,5.26
1630934675531,4.76
1630934675546,4.02
1630934675562,2.94
1630934675578,1.54
1630934675593,-0.06
1630934675609,-1.64
1630934675625,-3.06
1630934675640,-4.31
1630934675656,-5.51
1630934675671,-6.85
1630934675687,-8.54
1630934675703,-10.61
1630934675718,-12.9
1630934675734,-14.99
1630934675750,-16.36
1630934675765,-16.48
1630934675781,-14.99
1630934675796,-11.9
1630934675812,-7.56
1630934675828,-2.63
1630934675843,2.19
1630934675859,6.39
1630934675875,9.76
1630934675890,12.36
1630934675906,14.4
1630934675921,16.05
1630934675937,17.35
1630934675953,18.27
1630934675968,18.74
1630934675984,18.76
1630934676000,18.42
1630934676015,17.83
1630934676031,17.07
1630934676046,16.21
1630934676062,15.26
1630934676078,14.21
1630934676093,13.08
1630934676109,11.92
1630934676125,10.79
1630934676140,9.78
1630934676156,8.96
1630934676171,8.31
1630934676187,7.72
1630934676203,6.97
1630934676218,5.86
1630934676234,4.27
1630934676250,2.28
1630934676265,0.15
1630934676281,-1.86
1630934676296,-3.55
1630934676312,-4.99
1630934676328,-6.39
1630934676343,-8.0
1630934676359,-10.01
1630934676375,-12.42
1630934676390,-15.12
1630934676406,-17.88
1630934676421,-20.4
1630934676437,-22.32
1630934676453,-23.22
1630934676468,-22.74
1630934676484,-20.69
1630934676500,-17.2
1630934676515,-12.72
1630934676531,-7.89
1630934676546,-3.35
1630934676562,0.54
1630934676578,3.64
1630934676593,6.05
1630934676609,7.89
1630934676625,9.21
1630934676640,10.03
1630934676656,10.34
1630934676671,10.22
1630934676687,9.82
1630934676703,9.33
1630934676718,8.87
1630934676734,8.47
1630934676750,8.1
1630934676765,7.7
1630934676781,7.21
1630934676796,6.63
1630934676812,5.98
1630934676828,5.24
1630934676843,4.41
1630934676859,3.48
1630934676875,2.49
1630934676890,1.5
1630934676906,0.56
1630934676921,-0.31
1630934676937,-1.19
1630934676953,-2.16
1630934676968,-3.31
1630934676984,-4.63
1630934677000,-6.05
1630934677015,-7.44
1630934677031,-8.73
1630934677046,-9.9
1630934677062,-11.01
1630934677078,-12.18
1630934677093,-13.46
1630934677109,-14.88
1630934677125,-16.45
1630934677140,-18.15
1630934677156,-20.01
1630934677171,-21.96
1630934677187,-23.76
1630934677203,-24.97
1630934677218,-25.04
1630934677234,-23.54
1630934677250,-20.36
1630934677265,-15.82
1630934677281,-10.6
1630934677296,-5.46
1630934677312,-1.0
1630934677328,2.51
1630934677343,5.13
1630934677359,7.1
1630934677375,8.69
1630934677390,10.07
1630934677406,11.29
1630934677421,12.3
1630934677437,13.05
1630934677453,13.51
1630934677468,13.73
1630934677484,13.8
1630934677500,13.85
1630934677515,13.96
1630934677531,14.21
1630934677546,14.58
1630934677562,14.99
1630934677578,15.31
1630934677593,15.44
1630934677609,15.25
1630934677625,14.71
1630934677640,13.87
1630934677656,12.81
1630934677671,11.64
1630934677687,10.44
1630934677703,9.21
1630934677718,7.94
1630934677734,6.57
1630934677750,5.08
1630934677765,3.45
1630934677781,1.7
1630934677796,-0.15
1630934677812,-2.07
1630934677828,-4.02
1630934677843,-5.95
1630934677859,-7.82
1630934677875,-9.61
1630934677890,-11.37
1630934677906,-13.21
1630934677921,-15.17
1630934677937,-17.22
1630934677953,-19.08
1630934677968,-20.29
1630934677984,-20.34
1630934678000,-18.86
1630934678015,-15.79
1630934678031,-11.46
1630934678046,-6.51
1630934678062,-1.62
1630934678078,2.67
1630934678093,6.18
1630934678109,9.02
1630934678125,11.42
1630934678140,13.57
1630934678156,15.44
1630934678171,16.82
1630934678187,17.52
1630934678203,17.51
1630934678218,16.97
1630934678234,16.29
1630934678250,15.83
1630934678265,15.75
1630934678281,15.99
1630934678296,16.34
1630934678312,16.54
1630934678328,16.52
1630934678343,16.34
1630934678359,16.16
1630934678375,16.01
1630934678390,15.79
1630934678406,15.29
1630934678421,14.35
1630934678437,12.96
1630934678453,11.28
1630934678468,9.56
1630934678484,7.97
1630934678500,6.55
1630934678515,5.19
1630934678531,3.79
1630934678546,2.29
1630934678562,0.72
1630934678578,-0.82
1630934678593,-2.28
1630934678609,-3.69
1630934678625,-5.15
1630934678640,-6.75
1630934678656,-8.59
1630934678671,-10.7
1630934678687,-13.05
1630934678703,-15.57
1630934678718,-18.05
1630934678734,-20.13
1630934678750,-21.36
1630934678765,-21.28
1630934678781,-19.68
1630934678796,-16.62
1630934678812,-12.57
1630934678828,-8.18
1630934678843,-4.11
1630934678859,-0.79
1630934678875,1.71
1630934678890,3.55
1630934678906,5.01
1630934678921,6.23
1630934678937,7.23
1630934678953,7.87
1630934678968,8.0
1630934678984,7.6
1630934679000,6.76
1630934679015,5.7
1630934679031,4.63
1630934679046,3.7
1630934679062,2.97
1630934679078,2.43
1630934679093,2.01
1630934679109,1.67
1630934679125,1.35
1630934679140,1.02
1630934679156,0.65
1630934679171,0.21
1630934679187,-0.33
1630934679203,-0.99
1630934679218,-1.74
1630934679234,-2.51
1630934679250,-3.23
1630934679265,-3.86
1630934679281,-4.44
1630934679296,-5.05
1630934679312,-5.83
1630934679328,-6.87
1630934679343,-8.15
1630934679359,-9.58
1630934679375,-11.05
1630934679390,-12.45
1630934679406,-13.78
1630934679421,-15.07
1630934679437,-16.39
1630934679453,-17.74
1630934679468,-19.1
1630934679484,-20.26
1630934679500,-20.89
1630934679515,-20.6
1630934679531,-19.03
1630934679546,-16.05
1630934679562,-11.88
1630934679578,-7.03
1630934679593,-2.14
1630934679609,2.22
1630934679625,5.75
1630934679640,8.47
1630934679656,10.54
1630934679671,12.14
1630934679687,13.35
1630934679703,14.12
1630934679718,14.39
1630934679734,14.21
1630934679750,13.7
1630934679765,13.05
1630934679781,12.43
1630934679796,11.89
1630934679812,11.46
1630934679828,11.07
1630934679843,10.69
1630934679859,10.28
1630934679875,9.83
1630934679890,9.38
1630934679906,8.97
1630934679921,8.63
1630934679937,8.38
1630934679953,8.17
1630934679968,7.9
1630934679984,7.47
1630934680000,6.8
1630934680015,5.86
1630934680031,4.67
1630934680046,3.28
1630934680062,1.77
1630934680078,0.21
1630934680093,-1.33
1630934680109,-2.77
1630934680125,-4.09
1630934680140,-5.32
1630934680156,-6.52
1630934680171,-7.79
1630934680187,-9.23
1630934680203,-10.89
1630934680218,-12.74
1630934680234,-14.57
1630934680250,-16.02
1630934680265,-16.58
1630934680281,-15.85
1630934680296,-13.64
1630934680312,-10.12
1630934680328,-5.81
1630934680343,-1.35
1630934680359,2.7
1630934680375,6.04
1630934680390,8.63
1630934680406,10.59
1630934680421,12.01
1630934680437,12.92
1630934680453,13.31
1630934680468,13.19
1630934680484,12.72
1630934680500,12.09
1630934680515,11.53
1630934680531,11.11
1630934680546,10.79
1630934680562,10.41
1630934680578,9.83
1630934680593,9.0
1630934680609,7.97
1630934680625,6.9
1630934680640,5.92
1630934680656,5.14
1630934680671,4.52
1630934680687,3.98
1630934680703,3.35
1630934680718,2.49
1630934680734,1.37
1630934680750,0.02
1630934680765,-1.42
1630934680781,-2.86
1630934680796,-4.27
1630934680812,-5.68
1630934680828,-7.15
1630934680843,-8.72
1630934680859,-10.4
1630934680875,-12.15
1630934680890,-13.96
1630934680906,-15.8
1630934680921,-17.73
1630934680937,-19.72
1630934680953,-21.68
1630934680968,-23.39
1630934680984,-24.52
1630934681000,-24.73
1630934681015,-23.82
1630934681031,-21.76
1630934681046,-18.74
1630934681062,-15.18
1630934681078,-11.5
1630934681093,-8.11
1630934681109,-5.23
1630934681125,-2.9
1630934681140,-1.03
1630934681156,0.48
1630934681171,1.66
1630934681187,2.46
1630934681203,2.8
1630934681218,2.65
1630934681234,2.11
1630934681250,1.35
1630934681265,0.58
1630934681281,-0.04
1630934681296,-0.45
1630934681312,-0.69
1630934681328,-0.79
1630934681343,-0.84
1630934681359,-0.86
1630934681375,-0.9
1630934681390,-1.04
1630934681406,-1.31
1630934681421,-1.76
1630934681437,-2.37
1630934681453,-3.13
1630934681468,-3.96
1630934681484,-4.83
1630934681500,-5.69
1630934681515,-6.51
1630934681531,-7.25
1630934681546,-7.9
1630934681562,-8.5
1630934681578,-9.14
1630934681593,-9.92
1630934681609,-10.96
1630934681625,-12.33
1630934681640,-13.94
1630934681656,-15.58
1630934681671,-16.86
1630934681687,-17.33
1630934681703,-16.61
1630934681718,-14.53
1630934681734,-11.19
1630934681750,-6.99
1630934681765,-2.45
1630934681781,1.91
1630934681796,5.74
1630934681812,8.84
1630934681828,11.24
1630934681843,12.98
1630934681859,14.17
1630934681875,14.83
1630934681890,15.01
1630934681906,14.77
1630934681921,14.22
1630934681937,13.53
1630934681953,12.87
1630934681968,12.38
1630934681984,12.12
1630934682000,12.05
1630934682015,12.06
1630934682031,12.04
1630934682046,11.93
1630934682062,11.73
1630934682078,11.51
1630934682093,11.35
1630934682109,11.26
1630934682125,11.13
1630934682140,10.78
1630934682156,10.02
1630934682171,8.73
1630934682187,6.92
1630934682203,4.78
1630934682218,2.51
1630934682234,0.32
1630934682250,-1.7
1630934682265,-3.56
1630934682281,-5.3
1630934682296,-6.97
1630934682312,-8.61
1630934682328,-10.25
1630934682343,-11.96
1630934682359,-13.84
1630934682375,-15.87
1630934682390,-17.9
1630934682406,-19.51
1630934682421,-20.22
1630934682437,-19.57
1630934682453,-17.4
1630934682468,-13.9
1630934682484,-9.56
1630934682500,-4.99
1630934682515,-0.74
1630934682531,2.88
1630934682546,5.76
1630934682562,7.93
1630934682578,9.43
1630934682593,10.26
1630934682609,10.39
1630934682625,9.91
1630934682640,9.01
1630934682656,8.03
1630934682671,7.27
1630934682687,6.88
1630934682703,6.8
1630934682718,6.76
1630934682734,6.5
1630934682750,5.89
1630934682765,5.05
1630934682781,4.25
1630934682796,3.8
1630934682812,3.85
1630934682828,4.32
1630934682843,4.9
1630934682859,5.21
1630934682875,4.98
1630934682890,4.1
1630934682906,2.68
1630934682921,0.99
1630934682937,-0.68
1630934682953,-2.15
1630934682968,-3.4
1630934682984,-4.59
1630934683000,-5.9
1630934683015,-7.49
1630934683031,-9.41
1630934683046,-11.6
1630934683062,-13.89
1630934683078,-16.07
1630934683093,-17.84
1630934683109,-18.84
1630934683125,-18.73
1630934683140,-17.26
1630934683156,-14.44
1630934683171,-10.57
1630934683187,-6.17
1630934683203,-1.84
1630934683218,1.95
1630934683234,4.97
1630934683250,7.2
1630934683265,8.76
1630934683281,9.8
1630934683296,10.42
1630934683312,10.7
1630934683328,10.71
1630934683343,10.5
1630934683359,10.14
1630934683375,9.64
1630934683390,9.03
1630934683406,8.31
1630934683421,7.53
1630934683437,6.79
1630934683453,6.17
1630934683468,5.71
1630934683484,5.39
1630934683500,5.12
1630934683515,4.8
1630934683531,4.32
1630934683546,3.62
1630934683562,2.65
1630934683578,1.38
1630934683593,-0.21
1630934683609,-2.04
1630934683625,-3.96
1630934683640,-5.74
1630934683656,-7.2
1630934683671,-8.26
1630934683687,-9.03
1630934683703,-9.79
1630934683718,-10.84
1630934683734,-12.37
1630934683750,-14.23
1630934683765,-15.96
1630934683781,-16.95
1630934683796,-16.61
1630934683812,-14.67
1630934683828,-11.22
1630934683843,-6.71
1630934683859,-1.74
1630934683875,3.13
1630934683890,7.52
1630934683906,11.25
1630934683921,14.26
1630934683937,16.55
1630934683953,18.1
1630934683968,18.91
1630934683984,19.02
1630934684000,18.55
1630934684015,17.7
1630934684031,16.62
1630934684046,15.47
1630934684062,14.27
1630934684078,13.03
1630934684093,11.76
1630934684109,10.48
1630934684125,9.28
1630934684140,8.26
1630934684156,7.48
1630934684171,6.89
1630934684187,6.37
1630934684203,5.74
1630934684218,4.83
1630934684234,3.54
1630934684250,1.9
1630934684265,0.01
1630934684281,-1.96
1630934684296,-3.81
1630934684312,-5.38
1630934684328,-6.63
1630934684343,-7.61
1630934684359,-8.51
1630934684375,-9.61
1630934684390,-11.14
1630934684406,-13.2
1630934684421,-15.66
1630934684437,-18.09
1630934684453,-19.91
1630934684468,-20.5
1630934684484,-19.44
1630934684500,-16.65
1630934684515,-12.39
1630934684531,-7.19
1630934684546,-1.72
1630934684562,3.46
1630934684578,7.93
1630934684593,11.48
1630934684609,14.06
1630934684625,15.77
1630934684640,16.72
1630934684656,17.08
1630934684671,17.05
1630934684687,16.82
1630934684703,16.55
1630934684718,16.32
1630934684734,16.08
1630934684750,15.74
1630934684765,15.14
1630934684781,14.23
1630934684796,13.08
1630934684812,11.86
1630934684828,10.74
1630934684843,9.82
1630934684859,9.04
1630934684875,8.24
1630934684890,7.27
1630934684906,6.06
1630934684921,4.63
1630934684937,3.04
1630934684953,1.3
1630934684968,-0.64
1630934684984,-2.9
1630934685000,-5.57
1630934685015,-8.67
1630934685031,-12.14
1630934685046,-15.87
1630934685062,-19.58
1630934685078,-22.92
1630934685093,-25.41
1630934685109,-26.57
1630934685125,-26.06
1630934685140,-23.86
1630934685156,-20.27
1630934685171,-15.87
1630934685187,-11.3
1630934685203,-7.06
1630934685218,-3.43
1630934685234,-0.47
1630934685250,1.88
1630934685265,3.68
1630934685281,4.97
1630934685296,5.75
1630934685312,6.03
1630934685328,5.85
1630934685343,5.29
1630934685359,4.52
1630934685375,3.7
1630934685390,3.01
1630934685406,2.54
1630934685421,2.28
1630934685437,2.12
1630934685453,1.92
1630934685468,1.58
1630934685484,1.08
1630934685500,0.46
1630934685515,-0.21
1630934685531,-0.92
1630934685546,-1.71
1630934685562,-2.66
1630934685578,-3.79
1630934685593,-5.08
1630934685609,-6.45
1630934685625,-7.82
1630934685640,-9.12
1630934685656,-10.38
1630934685671,-11.65
1630934685687,-12.93
1630934685703,-14.08
1630934685718,-14.77
1630934685734,-14.6
1630934685750,-13.22
1630934685765,-10.51
1630934685781,-6.69
1630934685796,-2.23
1630934685812,2.3
1630934685828,6.47
1630934685843,10.03
1630934685859,12.97
1630934685875,15.33
1630934685890,17.12
1630934685906,18.31
1630934685921,18.83
1630934685937,18.65
1630934685953,17.88
1630934685968,16.71
1630934685984,15.31
1630934686000,13.87
1630934686015,12.54
1630934686031,11.44
1630934686046,10.65
1630934686062,10.15
1630934686078,9.83
1630934686093,9.53
1630934686109,9.07
1630934686125,8.35
1630934686140,7.37
1630934686156,6.21
1630934686171,4.94
1630934686187,3.59
1630934686203,2.16
1630934686218,0.64
1630934686234,-0.93
1630934686250,-2.49
1630934686265,-3.97
1630934686281,-5.33
1630934686296,-6.58
1630934686312,-7.79
1630934686328,-9.05
1630934686343,-10.49
1630934686359,-12.16
1630934686375,-14.08
1630934686390,-16.07
1630934686406,-17.81
1630934686421,-18.81
1630934686437,-18.62
1630934686453,-16.89
1630934686468,-13.58
1630934686484,-9.02
1630934686500,-3.77
1630934686515,1.47
1630934686531,6.13
1630934686546,9.89
1630934686562,12.73
1630934686578,14.81
1630934686593,16.35
1630934686609,17.52
1630934686625,18.36
1630934686640,18.84
1630934686656,18.92
1630934686671,18.63
1630934686687,18.08
1630934686703,17.38
1630934686718,16.63
1630934686734,15.85
1630934686750,15.06
1630934686765,14.26
1630934686781,13.5
1630934686796,12.83
1630934686812,12.29
1630934686828,11.84
1630934686843,11.41
1630934686859,10.88
1630934686875,10.17
1630934686890,9.21
1630934686906,7.97
1630934686921,6.43
1630934686937,4.57
1630934686953,2.44
1630934686968,0.15
1630934686984,-2.1
1630934687000,-4.09
1630934687015,-5.67
1630934687031,-6.81
1630934687046,-7.69
1630934687062,-8.55
1630934687078,-9.67
1630934687093,-11.22
1630934687109,-13.28
1630934687125,-15.81
1630934687140,-18.66
1630934687156,-21.57
1630934687171,-24.18
1630934687187,-26.02
1630934687203,-26.65
1630934687218,-25.74
1630934687234,-23.29
1630934687250,-19.59
1630934687265,-15.19
1630934687281,-10.69
1630934687296,-6.55
1630934687312,-3.0
1630934687328,-0.05
1630934687343,2.39
1630934687359,4.4
1630934687375,5.96
1630934687390,6.99
1630934687406,7.41
1630934687421,7.24
1630934687437,6.6
1630934687453,5.69
1630934687468,4.71
1630934687484,3.76
1630934687500,2.89
1630934687515,2.07
1630934687531,1.32
1630934687546,0.71
1630934687562,0.37
1630934687578,0.4
1630934687593,0.78
1630934687609,1.37
1630934687625,1.91
1630934687640,2.14
1630934687656,1.85
1630934687671,1.01
1630934687687,-0.3
1630934687703,-1.9
1630934687718,-3.57
1630934687734,-5.13
1630934687750,-6.46
1630934687765,-7.51
1630934687781,-8.32
1630934687796,-8.99
1630934687812,-9.62
1630934687828,-10.31
1630934687843,-11.12
1630934687859,-12.09
1630934687875,-13.22
1630934687890,-14.47
1630934687906,-15.68
1630934687921,-16.58
1630934687937,-16.77
1630934687953,-15.85
1630934687968,-13.6
1630934687984,-10.05
1630934688000,-5.6
1630934688015,-0.81
1630934688031,3.71
1630934688046,7.56
1630934688062,10.61
1630934688078,12.94
1630934688093,14.71
1630934688109,16.03
1630934688125,16.87
1630934688140,17.18
1630934688156,16.95
1630934688171,16.29
1630934688187,15.42
1630934688203,14.55
1630934688218,13.8
1630934688234,13.15
1630934688250,12.53
1630934688265,11.86
1630934688281,11.15
1630934688296,10.44
1630934688312,9.81
1630934688328,9.28
1630934688343,8.79
1630934688359,8.27
1630934688375,7.65
1630934688390,6.92
1630934688406,6.1
1630934688421,5.2
1630934688437,4.23
1630934688453,3.19
1630934688468,2.08
1630934688484,0.97
1630934688500,-0.09
1630934688515,-1.06
1630934688531,-2.01
1630934688546,-3.02
1630934688562,-4.18
1630934688578,-5.51
1630934688593,-6.93
1630934688609,-8.34
1630934688625,-9.65
1630934688640,-10.87
1630934688656,-12.07
1630934688671,-13.34
1630934688687,-14.66
1630934688703,-15.86
1630934688718,-16.62
1630934688734,-16.57
1630934688750,-15.41
1630934688765,-13.07
1630934688781,-9.73
1630934688796,-5.71
1630934688812,-1.45
1630934688828,2.69
1630934688843,6.42
1630934688859,9.57
1630934688875,12.07
1630934688890,13.86
1630934688906,14.98
1630934688921,15.5
1630934688937,15.54
1630934688953,15.25
1630934688968,14.77
1630934688984,14.2
1630934689000,13.59
1630934689015,12.95
1630934689031,12.29
1630934689046,11.61
1630934689062,10.89
1630934689078,10.14
1630934689093,9.35
1630934689109,8.52
1630934689125,7.68
1630934689140,6.83
1630934689156,6.02
1630934689171,5.24
1630934689187,4.52
1630934689203,3.81
1630934689218,3.03
1630934689234,2.09
1630934689250,0.88
1630934689265,-0.65
1630934689281,-2.52
1630934689296,-4.65
1630934689312,-6.89
1630934689328,-9.04
1630934689343,-10.92
1630934689359,-12.44
1630934689375,-13.61
1630934689390,-14.55
1630934689406,-15.43
1630934689421,-16.48
1630934689437,-17.85
1630934689453,-19.56
1630934689468,-21.41
1630934689484,-22.96
1630934689500,-23.65
1630934689515,-22.99
1630934689531,-20.72
1630934689546,-17.0
1630934689562,-12.38
1630934689578,-7.56
1630934689593,-3.24
1630934689609,0.16
1630934689625,2.52
1630934689640,3.97
1630934689656,4.74
1630934689671,5.02
1630934689687,4.95
1630934689703,4.64
1630934689718,4.22
1630934689734,3.81
1630934689750,3.53
1630934689765,3.41
1630934689781,3.42
1630934689796,3.49
1630934689812,3.54
1630934689828,3.55
1630934689843,3.52
1630934689859,3.45
1630934689875,3.31
1630934689890,3.07
1630934689906,2.7
1630934689921,2.2
1630934689937,1.57
1630934689953,0.85
1630934689968,0.06
1630934689984,-0.8
1630934690000,-1.71
1630934690015,-2.65
1630934690031,-3.55
1630934690046,-4.38
1630934690062,-5.12
1630934690078,-5.85
1630934690093,-6.66
1630934690109,-7.63
1630934690125,-8.75
1630934690140,-9.94
1630934690156,-11.06
1630934690171,-12.07
1630934690187,-13.03
1630934690203,-14.07
1630934690218,-15.33
1630934690234,-16.72
1630934690250,-17.92
1630934690265,-18.42
1630934690281,-17.71
1630934690296,-15.51
1630934690312,-11.94
1630934690328,-7.46
1630934690343,-2.7
1630934690359,1.76
1630934690375,5.56
1630934690390,8.55
1630934690406,10.76
1630934690421,12.25
1630934690437,13.06
1630934690453,13.28
1630934690468,13.03
1630934690484,12.52
1630934690500,12.01
1630934690515,11.75
1630934690531,11.83
1630934690546,12.22
1630934690562,12.73
1630934690578,13.09
1630934690593,13.08
1630934690609,12.59
1630934690625,11.72
1630934690640,10.67
1630934690656,9.73
1630934690671,9.04
1630934690687,8.62
1630934690703,8.35
1630934690718,8.02
1630934690734,7.49
1630934690750,6.73
1630934690765,5.8
1630934690781,4.83
1630934690796,3.89
1630934690812,2.97
1630934690828,2.0
1630934690843,0.91
1630934690859,-0.35
1630934690875,-1.7
1630934690890,-3.0
1630934690906,-4.1
1630934690921,-4.91
1630934690937,-5.45
1630934690953,-5.88
1630934690968,-6.45
1630934690984,-7.36
1630934691000,-8.73
1630934691015,-10.54
1630934691031,-12.57
1630934691046,-14.5
1630934691062,-15.94
1630934691078,-16.55
1630934691093,-16.07
1630934691109,-14.4
1630934691125,-11.63
1630934691140,-8.08
1630934691156,-4.14
1630934691171,-0.27
1630934691187,3.23
1630934691203,6.17
1630934691218,8.48
1630934691234,10.18
1630934691250,11.27
1630934691265,11.76
1630934691281,11.68
1630934691296,11.14
1630934691312,10.32
1630934691328,9.45
1630934691343,8.67
1630934691359,8.04
1630934691375,7.52
1630934691390,6.98
1630934691406,6.36
1630934691421,5.65
1630934691437,4.89
1630934691453,4.18
1630934691468,3.58
1630934691484,3.1
1630934691500,2.71
1630934691515,2.34
1630934691531,1.91
1630934691546,1.31
1630934691562,0.4
1630934691578,-0.91
1630934691593,-2.62
1630934691609,-4.66
1630934691625,-6.86
1630934691640,-8.98
1630934691656,-10.85
1630934691671,-12.36
1630934691687,-13.51
1630934691703,-14.38
1630934691718,-15.15
1630934691734,-16.02
1630934691750,-17.23
1630934691765,-18.87
1630934691781,-20.87
1630934691796,-22.86
1630934691812,-24.31
1630934691828,-24.62
1630934691843,-23.37
1630934691859,-20.52
1630934691875,-16.42
1630934691890,-11.71
1630934691906,-7.07
1630934691921,-3.03
1630934691937,0.21
1630934691953,2.67
1630934691968,4.57
1630934691984,6.07
1630934692000,7.21
1630934692015,7.93
1630934692031,8.16
1630934692046,7.95
1630934692062,7.52
1630934692078,7.14
1630934692093,7.02
1630934692109,7.16
1630934692125,7.37
1630934692140,7.41
1630934692156,7.11
1630934692171,6.52
1630934692187,5.84
1630934692203,5.27
1630934692218,4.93
1630934692234,4.73
1630934692250,4.47
1630934692265,3.97
1630934692281,3.14
1630934692296,2.05
1630934692312,0.81
1630934692328,-0.46
1630934692343,-1.7
1630934692359,-2.92
1630934692375,-4.17
1630934692390,-5.44
1630934692406,-6.7
1630934692421,-7.89
1630934692437,-8.98
1630934692453,-10.01
1630934692468,-11.09
1630934692484,-12.39
1630934692500,-13.95
1630934692515,-15.62
1630934692531,-17.01
1630934692546,-17.55
1630934692562,-16.79
1630934692578,-14.49
1630934692593,-10.85
1630934692609,-6.36
1630934692625,-1.65
1630934692640,2.79
1630934692656,6.69
1630934692671,10.03
1630934692687,12.9
1630934692703,15.33
1630934692718,17.24
1630934692734,18.52
1630934692750,19.07
1630934692765,18.93
1630934692781,18.29
1630934692796,17.43
1630934692812,16.6
1630934692828,15.97
1630934692843,15.59
1630934692859,15.4
1630934692875,15.28
1630934692890,15.14
1630934692906,14.89
1630934692921,14.54
1630934692937,14.06
1630934692953,13.44
1630934692968,12.66
1630934692984,11.7
1630934693000,10.6
1630934693015,9.4
1630934693031,8.19
1630934693046,6.99
1630934693062,5.74
1630934693078,4.37
1630934693093,2.8
1630934693109,1.05
1630934693125,-0.81
1630934693140,-2.64
1630934693156,-4.33
1630934693171,-5.87
1630934693187,-7.35
1630934693203,-8.9
1630934693218,-10.65
1630934693234,-12.67
1630934693250,-14.91
1630934693265,-17.21
1630934693281,-19.21
1630934693296,-20.44
1630934693312,-20.44
1630934693328,-18.92
1630934693343,-15.91
1630934693359,-11.79
1630934693375,-7.21
1630934693390,-2.86
1630934693406,0.8
1630934693421,3.64
1630934693437,5.83
1630934693453,7.6
1630934693468,9.13
1630934693484,10.36
1630934693500,11.15
1630934693515,11.35
1630934693531,10.99
1630934693546,10.26
1630934693562,9.43
1630934693578,8.7
1630934693593,8.14
1630934693609,7.68
1630934693625,7.2
1630934693640,6.62
1630934693656,5.97
1630934693671,5.3
1630934693687,4.7
1630934693703,4.19
1630934693718,3.74
1630934693734,3.27
1630934693750,2.67
1630934693765,1.8
1630934693781,0.57
1630934693796,-1.04
1630934693812,-2.94
1630934693828,-5.0
1630934693843,-7.0
1630934693859,-8.82
1630934693875,-10.4
1630934693890,-11.76
1630934693906,-12.99
1630934693921,-14.2
1630934693937,-15.45
1630934693953,-16.8
1630934693968,-18.25
1630934693984,-19.74
1630934694000,-21.16
1630934694015,-22.22
1630934694031,-22.54
1630934694046,-21.77
1630934694062,-19.68
1630934694078,-16.35
1630934694093,-12.12
1630934694109,-7.48
1630934694125,-2.97
1630934694140,1.09
1630934694156,4.55
1630934694171,7.43
1630934694187,9.8
1630934694203,11.66
1630934694218,12.99
1630934694234,13.77
1630934694250,14.04
1630934694265,13.92
1630934694281,13.61
1630934694296,13.22
1630934694312,12.82
1630934694328,12.38
1630934694343,11.84
1630934694359,11.18
1630934694375,10.45
1630934694390,9.74
1630934694406,9.13
1630934694421,8.65
1630934694437,8.3
1630934694453,8.02
1630934694468,7.75
1630934694484,7.42
1630934694500,6.93
1630934694515,6.19
1630934694531,5.09
1630934694546,3.62
1630934694562,1.85
1630934694578,-0.05
1630934694593,-1.91
1630934694609,-3.62
1630934694625,-5.16
1630934694640,-6.58
1630934694656,-7.92
1630934694671,-9.16
1630934694687,-10.26
1630934694703,-11.21
1630934694718,-12.09
1630934694734,-13.13
1630934694750,-14.48
1630934694765,-16.11
1630934694781,-17.69
1630934694796,-18.66
1630934694812,-18.43
1630934694828,-16.6
1630934694843,-13.2
1630934694859,-8.6
1630934694875,-3.43
1630934694890,1.64
1630934694906,6.15
1630934694921,9.83
1630934694937,12.68
1630934694953,14.8
1630934694968,16.36
1630934694984,17.45
1630934695000,18.14
1630934695015,18.43
1630934695031,18.37
1630934695046,18.04
1630934695062,17.61
1630934695078,17.2
1630934695093,16.92
1630934695109,16.77
1630934695125,16.63
1630934695140,16.4
1630934695156,16.0
1630934695171,15.47
1630934695187,14.92
1630934695203,14.48
1630934695218,14.16
1630934695234,13.82
1630934695250,13.24
1630934695265,12.24
1630934695281,10.75
1630934695296,8.95
1630934695312,7.1
1630934695328,5.45
1630934695343,4.06
1630934695359,2.8
1630934695375,1.41
1630934695390,-0.3
1630934695406,-2.33
1630934695421,-4.5
1630934695437,-6.55
1630934695453,-8.27
1630934695468,-9.62
1630934695484,-10.73
1630934695500,-11.82
1630934695515,-13.07
1630934695531,-14.58
1630934695546,-16.32
1630934695562,-18.18
1630934695578,-19.9
1630934695593,-21.14
1630934695609,-21.51
1630934695625,-20.71
1630934695640,-18.61
1630934695656,-15.38
1630934695671,-11.42
1630934695687,-7.25
1630934695703,-3.34
1630934695718,0.02
1630934695734,2.76
1630934695750,4.93
1630934695765,6.61
1630934695781,7.8
1630934695796,8.49
1630934695812,8.66
1630934695828,8.38
1630934695843,7.78
1630934695859,7.08
1630934695875,6.46
1630934695890,6.0
1630934695906,5.71
1630934695921,5.5
1630934695937,5.29
1630934695953,5.02
1630934695968,4.72
1630934695984,4.41
1630934696000,4.11
1630934696015,3.82
1630934696031,3.51
1630934696046,3.16
1630934696062,2.75
1630934696078,2.24
1630934696093,1.56
1630934696109,0.64
1630934696125,-0.6
1630934696140,-2.16
1630934696156,-3.94
1630934696171,-5.76
1630934696187,-7.41
1630934696203,-8.73
1630934696218,-9.67
1630934696234,-10.28
1630934696250,-10.73
1630934696265,-11.19
1630934696281,-11.86
1630934696296,-12.87
1630934696312,-14.29
1630934696328,-16.08
1630934696343,-18.06
1630934696359,-19.89
1630934696375,-21.13
1630934696390,-21.34
1630934696406,-20.25
1630934696421,-17.81
1630934696437,-14.27
1630934696453,-10.06
1630934696468,-5.68
1630934696484,-1.54
1630934696500,2.06
1630934696515,5.01
1630934696531,7.32
1630934696546,9.11
1630934696562,10.54
1630934696578,11.71
1630934696593,12.68
1630934696609,13.41
1630934696625,13.77
1630934696640,13.64
1630934696656,13.07
1630934696671,12.25
1630934696687,11.52
1630934696703,11.16
1630934696718,11.27
1630934696734,11.73
1630934696750,12.22
1630934696765,12.47
1630934696781,12.32
1630934696796,11.83
1630934696812,11.17
1630934696828,10.51
1630934696843,9.91
1630934696859,9.33
1630934696875,8.69
1630934696890,7.93
1630934696906,7.05
1630934696921,6.12
1630934696937,5.23
1630934696953,4.4
1630934696968,3.61
1630934696984,2.76
1630934697000,1.73
1630934697015,0.45
1630934697031,-1.07
1630934697046,-2.72
1630934697062,-4.32
1630934697078,-5.67
1630934697093,-6.71
1630934697109,-7.48
1630934697125,-8.19
1630934697140,-9.07
1630934697156,-10.29
1630934697171,-11.88
1630934697187,-13.73
1630934697203,-15.63
1630934697218,-17.3
1630934697234,-18.4
1630934697250,-18.57
1630934697265,-17.52
1630934697281,-15.09
1630934697296,-11.39
1630934697312,-6.83
1630934697328,-2.01
1630934697343,2.48
1630934697359,6.2
1630934697375,9.03
1630934697390,11.09
1630934697406,12.63
1630934697421,13.82
1630934697437,14.74
1630934697453,15.36
1630934697468,15.66
1630934697484,15.64
1630934697500,15.38
1630934697515,14.96
1630934697531,14.42
1630934697546,13.78
1630934697562,13.03
1630934697578,12.16
1630934697593,11.22
1630934697609,10.26
1630934697625,9.35
1630934697640,8.56
1630934697656,7.93
1630934697671,7.48
1630934697687,7.19
1630934697703,6.91
1630934697718,6.48
1630934697734,5.71
1630934697750,4.52
1630934697765,2.98
1630934697781,1.32
1630934697796,-0.24
1630934697812,-1.53
1630934697828,-2.6
1630934697843,-3.6
1630934697859,-4.74
1630934697875,-6.13
1630934697890,-7.74
1630934697906,-9.44
1630934697921,-11.08
1630934697937,-12.57
1630934697953,-13.94
1630934697968,-15.29
1630934697984,-16.72
1630934698000,-18.28
1630934698015,-19.97
1630934698031,-21.74
1630934698046,-23.48
1630934698062,-25.03
1630934698078,-26.14
1630934698093,-26.55
1630934698109,-26.02
1630934698125,-24.4
1630934698140,-21.74
1630934698156,-18.24
1630934698171,-14.22
1630934698187,-10.02
1630934698203,-5.94
1630934698218,-2.16
1630934698234,1.21
1630934698250,4.09
1630934698265,6.4
1630934698281,8.06
1630934698296,9.04
1630934698312,9.41
1630934698328,9.34
1630934698343,9.04
1630934698359,8.7
1630934698375,8.44
1630934698390,8.26
1630934698406,8.13
1630934698421,8.02
1630934698437,7.95
1630934698453,7.96
1630934698468,8.06
1630934698484,8.23
1630934698500,8.43
1630934698515,8.59
1630934698531,8.62
1630934698546,8.47
1630934698562,8.05
1630934698578,7.33
1630934698593,6.31
1630934698609,5.07
1630934698625,3.75
1630934698640,2.51
1630934698656,1.45
1630934698671,0.53
1630934698687,-0.4
1630934698703,-1.52
1630934698718,-2.92
1630934698734,-4.56
1630934698750,-6.29
1630934698765,-7.92
1630934698781,-9.35
1630934698796,-10.56
1630934698812,-11.6
1630934698828,-12.52
1630934698843,-13.37
1630934698859,-14.21
1630934698875,-15.12
1630934698890,-16.21
1630934698906,-17.49
1630934698921,-18.76
1630934698937,-19.62
1630934698953,-19.54
1630934698968,-18.06
1630934698984,-15.09
1630934699000,-10.88
1630934699015,-5.99
1630934699031,-1.06
1630934699046,3.42
1630934699062,7.21
1630934699078,10.25
1630934699093,12.64
1630934699109,14.44
1630934699125,15.69
1630934699140,16.38
1630934699156,16.56
1630934699171,16.34
1630934699187,15.93
1630934699203,15.58
1630934699218,15.48
1630934699234,15.66
1630934699250,16.02
1630934699265,16.34
1630934699281,16.35
1630934699296,15.9
1630934699312,15.04
1630934699328,14.0
1630934699343,13.07
1630934699359,12.49
1630934699375,12.3
1630934699390,12.31
1630934699406,12.23
1630934699421,11.77
1630934699437,10.81
1630934699453,9.43
1630934699468,7.82
1630934699484,6.22
1630934699500,4.74
1630934699515,3.4
1630934699531,2.11
1630934699546,0.78
1630934699562,-0.6
1630934699578,-1.98
1630934699593,-3.27
1630934699609,-4.41
1630934699625,-5.43
1630934699640,-6.41
1630934699656,-7.43
1630934699671,-8.57
1630934699687,-9.83
1630934699703,-11.18
1630934699718,-12.59
1630934699734,-14.11
1630934699750,-15.77
1630934699765,-17.57
1630934699781,-19.41
1630934699796,-20.99
1630934699812,-21.85
1630934699828,-21.55
1630934699843,-19.82
1630934699859,-16.7
1630934699875,-12.57
1630934699890,-8.04
1630934699906,-3.68
1630934699921,0.13
1630934699937,3.3
1630934699953,5.89
1630934699968,8.06
1630934699984,9.85
1630934700000,11.21
1630934700015,12.02
1630934700031,12.21
1630934700046,11.8
1630934700062,10.94
1630934700078,9.83
1630934700093,8.66
1630934700109,7.56
1630934700125,6.64
1630934700140,5.89
1630934700156,5.32
1630934700171,4.87
1630934700187,4.51
1630934700203,4.23
1630934700218,4.05
1630934700234,3.95
1630934700250,3.82
1630934700265,3.48
1630934700281,2.72
1630934700296,1.45
1630934700312,-0.2
1630934700328,-1.91
1630934700343,-3.32
1630934700359,-4.22
1630934700375,-4.67
1630934700390,-4.98
1630934700406,-5.51
1630934700421,-6.49
1630934700437,-7.83
1630934700453,-9.28
1630934700468,-10.48
1630934700484,-11.25
1630934700500,-11.66
1630934700515,-11.93
1630934700531,-12.35
1630934700546,-13.1
1630934700562,-14.17
1630934700578,-15.45
1630934700593,-16.85
1630934700609,-18.25
1630934700625,-19.53
1630934700640,-20.45
1630934700656,-20.62
1630934700671,-19.59
1630934700687,-17.07
1630934700703,-13.12
1630934700718,-8.22
1630934700734,-3.08
1630934700750,1.58
1630934700765,5.33
1630934700781,8.13
1630934700796,10.24
1630934700812,11.98
1630934700828,13.54
1630934700843,14.92
1630934700859,15.96
1630934700875,16.52
1630934700890,16.55
1630934700906,16.16
1630934700921,15.53
1630934700937,14.89
1630934700953,14.39
1630934700968,14.09
1630934700984,13.93
1630934701000,13.8
1630934701015,13.58
1630934701031,13.22
1630934701046,12.75
1630934701062,12.29
1630934701078,11.95
1630934701093,11.75
1630934701109,11.59
1630934701125,11.26
1630934701140,10.56
1630934701156,9.38
1630934701171,7.81
1630934701187,6.09
1630934701203,4.54
1630934701218,3.41
1630934701234,2.75
1630934701250,2.4
1630934701265,2.06
1630934701281,1.46
1630934701296,0.44
1630934701312,-0.96
1630934701328,-2.55
1630934701343,-4.14
1630934701359,-5.58
1630934701375,-6.89
1630934701390,-8.16
1630934701406,-9.47
1630934701421,-10.85
1630934701437,-12.28
1630934701453,-13.71
1630934701468,-15.17
1630934701484,-16.72
1630934701500,-18.34
1630934701515,-19.8
1630934701531,-20.66
1630934701546,-20.41
1630934701562,-18.65
1630934701578,-15.35
1630934701593,-10.83
1630934701609,-5.73
1630934701625,-0.75
1630934701640,3.58
1630934701656,7.02
1630934701671,9.55
1630934701687,11.36
1630934701703,12.6
1630934701718,13.42
1630934701734,13.88
1630934701750,14.02
1630934701765,13.88
1630934701781,13.53
1630934701796,13.04
1630934701812,12.52
1630934701828,12.05
1630934701843,11.65
1630934701859,11.32
1630934701875,10.99
1630934701890,10.65
1630934701906,10.27
1630934701921,9.9
1630934701937,9.54
1630934701953,9.19
1630934701968,8.8
1630934701984,8.31
1630934702000,7.62
1630934702015,6.66
1630934702031,5.42
1630934702046,3.96
1630934702062,2.41
1630934702078,0.95
1630934702093,-0.26
1630934702109,-1.18
1630934702125,-1.91
1630934702140,-2.7
1630934702156,-3.79
1630934702171,-5.36
1630934702187,-7.34
1630934702203,-9.48
1630934702218,-11.42
1630934702234,-12.93
1630934702250,-14.0
1630934702265,-14.85
1630934702281,-15.82
1630934702296,-17.16
1630934702312,-18.96
1630934702328,-21.09
1630934702343,-23.31
1630934702359,-25.36
1630934702375,-26.98
1630934702390,-27.94
1630934702406,-27.94
1630934702421,-26.73
1630934702437,-24.15
1630934702453,-20.29
1630934702468,-15.5
1630934702484,-10.35
1630934702500,-5.45
1630934702515,-1.24
1630934702531,2.11
1630934702546,4.7
1630934702562,6.78
1630934702578,8.58
1630934702593,10.2
1630934702609,11.64
1630934702625,12.75
1630934702640,13.42
1630934702656,13.64
1630934702671,13.51
1630934702687,13.19
1630934702703,12.85
1630934702718,12.57
1630934702734,12.37
1630934702750,12.21
1630934702765,12.07
1630934702781,11.96
1630934702796,11.94
1630934702812,12.01
1630934702828,12.09
1630934702843,12.04
1630934702859,11.67
1630934702875,10.83
1630934702890,9.5
1630934702906,7.82
1630934702921,6.01
1630934702937,4.34
1630934702953,2.99
1630934702968,2.01
1630934702984,1.25
1630934703000,0.49
1630934703015,-0.5
1630934703031,-1.82
1630934703046,-3.41
1630934703062,-5.1
1630934703078,-6.68
1630934703093,-8.06
1630934703109,-9.24
1630934703125,-10.36
1630934703140,-11.58
1630934703156,-13.02
1630934703171,-14.77
1630934703187,-16.84
1630934703203,-19.11
1630934703218,-21.32
1630934703234,-23.07
1630934703250,-23.83
1630934703265,-23.17
1630934703281,-20.84
1630934703296,-16.96
1630934703312,-11.96
1630934703328,-6.44
1630934703343,-1.0
1630934703359,3.9
1630934703375,8.02
1630934703390,11.29
1630934703406,13.69
1630934703421,15.29
1630934703437,16.19
1630934703453,16.56
1630934703468,16.59
1630934703484,16.51
1630934703500,16.44
1630934703515,16.45
1630934703531,16.49
1630934703546,16.46
1630934703562,16.3
1630934703578,16.0
1630934703593,15.58
1630934703609,15.14
1630934703625,14.72
1630934703640,14.32
1630934703656,13.92
1630934703671,13.45
1630934703687,12.89
1630934703703,12.25
1630934703718,11.57
1630934703734,10.88
1630934703750,10.14
1630934703765,9.29
1630934703781,8.26
1630934703796,7.04
1630934703812,5.69
1630934703828,4.3
1630934703843,2.93
1630934703859,1.53
1630934703875,-0.01
1630934703890,-1.78
1630934703906,-3.77
1630934703921,-5.82
1630934703937,-7.74
1630934703953,-9.37
1630934703968,-10.72
1630934703984,-11.94
1630934704000,-13.26
1630934704015,-14.86
1630934704031,-16.84
1630934704046,-19.19
1630934704062,-21.8
1630934704078,-24.43
1630934704093,-26.71
1630934704109,-28.13
1630934704125,-28.15
1630934704140,-26.44
1630934704156,-23.0
1630934704171,-18.3
1630934704187,-13.05
1630934704203,-7.99
1630934704218,-3.61
1630934704234,-0.09
1630934704250,2.65
1630934704265,4.82
1630934704281,6.5
1630934704296,7.7
1630934704312,8.34
1630934704328,8.44
1630934704343,8.11
1630934704359,7.6
1630934704375,7.16
1630934704390,6.93
1630934704406,6.92
1630934704421,7.03
1630934704437,7.18
1630934704453,7.3
1630934704468,7.44
1630934704484,7.63
1630934704500,7.88
1630934704515,8.1
1630934704531,8.16
1630934704546,7.94
1630934704562,7.39
1630934704578,6.55
1630934704593,5.52
1630934704609,4.37
1630934704625,3.15
1630934704640,1.86
1630934704656,0.48
1630934704671,-0.95
1630934704687,-2.41
1630934704703,-3.85
1630934704718,-5.23
1630934704734,-6.51
1630934704750,-7.68
1630934704765,-8.74
1630934704781,-9.75
1630934704796,-10.79
1630934704812,-11.97
1630934704828,-13.4
1630934704843,-15.14
1630934704859,-17.2
1630934704875,-19.44
1630934704890,-21.58
1630934704906,-23.25
1630934704921,-23.98
1630934704937,-23.36
1630934704953,-21.2
1630934704968,-17.6
1630934704984,-12.94
1630934705000,-7.76
1630934705015,-2.64
1630934705031,1.99
1630934705046,5.89
1630934705062,9.02
1630934705078,11.42
1630934705093,13.19
1630934705109,14.37
1630934705125,15.03
1630934705140,15.24
1630934705156,15.12
1630934705171,14.86
1630934705187,14.64
1630934705203,14.64
1630934705218,14.88
1630934705234,15.27
1630934705250,15.6
1630934705265,15.66
1630934705281,15.36
1630934705296,14.78
1630934705312,14.14
1630934705328,13.64
1630934705343,13.41
1630934705359,13.36
1630934705375,13.29
1630934705390,13.0
1630934705406,12.33
1630934705421,11.29
1630934705437,10.02
1630934705453,8.71
1630934705468,7.51
1630934705484,6.45
1630934705500,5.49
1630934705515,4.51
1630934705531,3.39
1630934705546,2.08
1630934705562,0.58
1630934705578,-1.04
1630934705593,-2.68
1630934705609,-4.26
1630934705625,-5.71
1630934705640,-7.04
1630934705656,-8.28
1630934705671,-9.53
1630934705687,-10.88
1630934705703,-12.46
1630934705718,-14.37
1630934705734,-16.63
1630934705750,-19.09
1630934705765,-21.43
1630934705781,-23.14
1630934705796,-23.66
1630934705812,-22.56
1630934705828,-19.7
1630934705843,-15.34
1630934705859,-10.08
1630934705875,-4.67
1630934705890,0.2
1630934705906,4.13
1630934705921,7.06
1630934705937,9.2
1630934705953,10.83
1630934705968,12.16
1630934705984,13.25
1630934706000,14.04
1630934706015,14.45
1630934706031,14.47
1630934706046,14.18
1630934706062,13.76
1630934706078,13.37
1630934706093,13.1
1630934706109,12.92
1630934706125,12.76
1630934706140,12.54
1630934706156,12.26
1630934706171,11.97
1630934706187,11.7
1630934706203,11.48
1630934706218,11.24
1630934706234,10.87
1630934706250,10.24
1630934706265,9.31
1630934706281,8.09
1630934706296,6.7
1630934706312,5.31
1630934706328,4.03
1630934706343,2.9
1630934706359,1.89
1630934706375,0.87
1630934706390,-0.26
1630934706406,-1.54
1630934706421,-3.01
1630934706437,-4.62
1630934706453,-6.34
1630934706468,-8.13
1630934706484,-9.94
1630934706500,-11.69
1630934706515,-13.33
1630934706531,-14.83
1630934706546,-16.23
1630934706562,-17.67
1630934706578,-19.25
1630934706593,-20.94
1630934706609,-22.45
1630934706625,-23.31
1630934706640,-23.04
1630934706656,-21.38
1630934706671,-18.39
1630934706687,-14.47
1630934706703,-10.11
1630934706718,-5.79
1630934706734,-1.77
1630934706750,1.87
1630934706765,5.12
1630934706781,7.97
1630934706796,10.36
1630934706812,12.22
1630934706828,13.51
1630934706843,14.28
1630934706859,14.62
1630934706875,14.64
1630934706890,14.43
1630934706906,14.05
1630934706921,13.54
1630934706937,12.97
1630934706953,12.43
1630934706968,12.0
1630934706984,11.77
1630934707000,11.76
1630934707015,11.91
1630934707031,12.07
1630934707046,12.08
1630934707062,11.8
1630934707078,11.23
1630934707093,10.48
1630934707109,9.67
1630934707125,8.91
1630934707140,8.16
1630934707156,7.34
1630934707171,6.33
1630934707187,5.1
1630934707203,3.76
1630934707218,2.44
1630934707234,1.23
1630934707250,0.14
1630934707265,-0.93
1630934707281,-2.08
1630934707296,-3.35
1630934707312,-4.71
1630934707328,-6.06
1630934707343,-7.29
1630934707359,-8.36
1630934707375,-9.27
1630934707390,-10.1
1630934707406,-10.96
1630934707421,-11.97
1630934707437,-13.16
1630934707453,-14.51
1630934707468,-15.95
1630934707484,-17.42
1630934707500,-18.88
1630934707515,-20.3
1630934707531,-21.51
1630934707546,-22.2
1630934707562,-21.91
1630934707578,-20.23
1630934707593,-16.97
1630934707609,-12.34
1630934707625,-6.9
1630934707640,-1.37
1630934707656,3.64
1630934707671,7.83
1630934707687,11.2
1630934707703,13.95
1630934707718,16.22
1630934707734,18.04
1630934707750,19.36
1630934707765,20.09
1630934707781,20.27
1630934707796,20.05
1630934707812,19.64
1630934707828,19.18
1630934707843,18.7
1630934707859,18.15
1630934707875,17.46
1630934707890,16.63
1630934707906,15.75
1630934707921,14.98
1630934707937,14.46
1630934707953,14.23
1630934707968,14.23
1630934707984,14.3
1630934708000,14.23
1630934708015,13.85
1630934708031,13.06
1630934708046,11.83
1630934708062,10.25
1630934708078,8.45
1630934708093,6.62
1630934708109,4.9
1630934708125,3.38
1630934708140,2.02
1630934708156,0.76
1630934708171,-0.47
1630934708187,-1.65
1630934708203,-2.67
1630934708218,-3.46
1630934708234,-4.07
1630934708250,-4.67
1630934708265,-5.54
1630934708281,-6.9
1630934708296,-8.75
1630934708312,-10.85
1630934708328,-12.8
1630934708343,-14.28
1630934708359,-15.18
1630934708375,-15.7
1630934708390,-16.21
1630934708406,-17.11
1630934708421,-18.62
1630934708437,-20.68
1630934708453,-23.0
1630934708468,-25.02
1630934708484,-26.17
1630934708500,-25.97
1630934708515,-24.2
1630934708531,-20.96
1630934708546,-16.66
1630934708562,-11.91
1630934708578,-7.3
1630934708593,-3.27
1630934708609,-0.05
1630934708625,2.38
1630934708640,4.11
1630934708656,5.28
1630934708671,5.98
1630934708687,6.31
1630934708703,6.36
1630934708718,6.25
1630934708734,6.1
1630934708750,6.03
1630934708765,6.08
1630934708781,6.25
1630934708796,6.48
1630934708812,6.67
1630934708828,6.77
1630934708843,6.75
1630934708859,6.62
1630934708875,6.41
1630934708890,6.13
1630934708906,5.77
1630934708921,5.29
1630934708937,4.7
1630934708953,4.04
1630934708968,3.39
1630934708984,2.84
1630934709000,2.4
1630934709015,1.99
1630934709031,1.5
1630934709046,0.82
1630934709062,-0.04
1630934709078,-0.97
1630934709093,-1.82
1630934709109,-2.45
1630934709125,-2.88
1630934709140,-3.21
1630934709156,-3.6
1630934709171,-4.18
1630934709187,-4.96
1630934709203,-5.89
1630934709218,-6.9
1630934709234,-7.92
1630934709250,-8.93
1630934709265,-9.98
1630934709281,-11.11
1630934709296,-12.32
1630934709312,-13.59
1630934709328,-14.87
1630934709343,-16.11
1630934709359,-17.25
1630934709375,-18.17
1630934709390,-18.65
1630934709406,-18.42
1630934709421,-17.24
1630934709437,-14.97
1630934709453,-11.69
1630934709468,-7.69
1630934709484,-3.37
1630934709500,0.86
1630934709515,4.73
1630934709531,8.09
1630934709546,10.91
1630934709562,13.17
1630934709578,14.81
1630934709593,15.77
1630934709609,16.02
1630934709625,15.69
1630934709640,15.02
1630934709656,14.29
1630934709671,13.71
1630934709687,13.39
1630934709703,13.31
1630934709718,13.33
1630934709734,13.33
1630934709750,13.21
1630934709765,12.96
1630934709781,12.6
1630934709796,12.19
1630934709812,11.8
1630934709828,11.47
1630934709843,11.21
1630934709859,10.97
1630934709875,10.69
1630934709890,10.31
1630934709906,9.77
1630934709921,9.06
1630934709937,8.22
1630934709953,7.3
1630934709968,6.34
1630934709984,5.36
1630934710000,4.35
1630934710015,3.27
1630934710031,2.1
1630934710046,0.91
1630934710062,-0.21
1630934710078,-1.15
1630934710093,-1.89
1630934710109,-2.56
1630934710125,-3.33
1630934710140,-4.4
1630934710156,-5.82
1630934710171,-7.49
1630934710187,-9.19
1630934710203,-10.74
1630934710218,-12.09
1630934710234,-13.39
1630934710250,-14.87
1630934710265,-16.71
1630934710281,-18.89
1630934710296,-21.18
1630934710312,-23.16
1630934710328,-24.36
1630934710343,-24.45
1630934710359,-23.24
1630934710375,-20.78
1630934710390,-17.36
1630934710406,-13.37
1630934710421,-9.3
1630934710437,-5.53
1630934710453,-2.26
1630934710468,0.49
1630934710484,2.79
1630934710500,4.74
1630934710515,6.31
1630934710531,7.39
1630934710546,7.87
1630934710562,7.74
1630934710578,7.15
1630934710593,6.35
1630934710609,5.62
1630934710625,5.12
1630934710640,4.86
1630934710656,4.76
1630934710671,4.71
1630934710687,4.65
1630934710703,4.58
1630934710718,4.58
1630934710734,4.67
1630934710750,4.83
1630934710765,4.97
1630934710781,4.9
1630934710796,4.49
1630934710812,3.62
1630934710828,2.37
1630934710843,0.9
1630934710859,-0.52
1630934710875,-1.64
1630934710890,-2.36
1630934710906,-2.77
1630934710921,-3.05
1630934710937,-3.44
1630934710953,-4.09
1630934710968,-5.03
1630934710984,-6.19
1630934711000,-7.45
1630934711015,-8.69
1630934711031,-9.82
1630934711046,-10.81
1630934711062,-11.62
1630934711078,-12.28
1630934711093,-12.88
1630934711109,-13.59
1630934711125,-14.59
1630934711140,-16.02
1630934711156,-17.81
1630934711171,-19.67
1630934711187,-21.07
1630934711203,-21.45
1630934711218,-20.37
1630934711234,-17.74
1630934711250,-13.84
1630934711265,-9.29
1630934711281,-4.77
1630934711296,-0.87
1630934711312,2.15
1630934711328,4.32
1630934711343,5.88
1630934711359,7.1
1630934711375,8.15
1630934711390,9.0
1630934711406,9.58
1630934711421,9.8
1630934711437,9.67
1630934711453,9.3
1630934711468,8.88
1630934711484,8.61
1630934711500,8.57
1630934711515,8.75
1630934711531,9.04
1630934711546,9.28
1630934711562,9.34
1630934711578,9.2
1630934711593,8.9
1630934711609,8.55
1630934711625,8.27
1630934711640,8.12
1630934711656,8.08
1630934711671,8.05
1630934711687,7.9
1630934711703,7.52
1630934711718,6.87
1630934711734,5.97
1630934711750,4.91
1630934711765,3.76
1630934711781,2.56
1630934711796,1.33
1630934711812,0.03
1630934711828,-1.4
1630934711843,-2.97
1630934711859,-4.64
1630934711875,-6.29
1630934711890,-7.79
1630934711906,-9.01
1630934711921,-9.93
1630934711937,-10.63
1630934711953,-11.26
1630934711968,-12.01
1630934711984,-13.09
1630934712000,-14.65
1630934712015,-16.72
1630934712031,-19.16
1630934712046,-21.58
1630934712062,-23.42
1630934712078,-24.04
1630934712093,-22.96
1630934712109,-20.02
1630934712125,-15.54
1630934712140,-10.14
1630934712156,-4.57
1630934712171,0.54
1630934712187,4.86
1630934712203,8.34
1630934712218,11.12
1630934712234,13.36
1630934712250,15.12
1630934712265,16.4
1630934712281,17.13
1630934712296,17.32
1630934712312,17.05
1630934712328,16.52
1630934712343,15.97
1630934712359,15.56
1630934712375,15.37
1630934712390,15.3
1630934712406,15.19
1630934712421,14.93
1630934712437,14.48
1630934712453,13.96
1630934712468,13.52
1630934712484,13.31
1630934712500,13.31
1630934712515,13.33
1630934712531,13.12
1630934712546,12.44
1630934712562,11.19
1630934712578,9.43
1630934712593,7.38
1630934712609,5.35
1630934712625,3.57
1630934712640,2.17
1630934712656,1.1
1630934712671,0.15
1630934712687,-0.94
1630934712703,-2.35
1630934712718,-4.12
1630934712734,-6.11
1630934712750,-8.08
1630934712765,-9.85
1630934712781,-11.4
1630934712796,-12.84
1630934712812,-14.41
1630934712828,-16.33
1630934712843,-18.71
1630934712859,-21.46
1630934712875,-24.33
1630934712890,-26.9
1630934712906,-28.67
1630934712921,-29.18
1630934712937,-28.09
1630934712953,-25.36
1630934712968,-21.26
1630934712984,-16.35
1630934713000,-11.3
1630934713015,-6.7
1630934713031,-2.92
1630934713046,0.01
1630934713062,2.26
1630934713078,4.13
1630934713093,5.82
1630934713109,7.39
1630934713125,8.78
1630934713140,9.85
1630934713156,10.49
1630934713171,10.68
1630934713187,10.51
1630934713203,10.08
1630934713218,9.53
1630934713234,8.93
1630934713250,8.33
1630934713265,7.79
1630934713281,7.36
1630934713296,7.11
1630934713312,7.08
1630934713328,7.23
1630934713343,7.43
1630934713359,7.5
1630934713375,7.24
1630934713390,6.55
1630934713406,5.41
1630934713421,3.89
1630934713437,2.12
1630934713453,0.23
1630934713468,-1.65
1630934713484,-3.39
1630934713500,-4.88
1630934713515,-6.07
1630934713531,-7.0
1630934713546,-7.83
1630934713562,-8.74
1630934713578,-9.89
1630934713593,-11.34
1630934713609,-13.05
1630934713625,-14.96
1630934713640,-17.02
1630934713656,-19.18
1630934713671,-21.31
1630934713687,-23.05
1630934713703,-23.88
1630934713718,-23.25
1630934713734,-20.84
1630934713750,-16.78
1630934713765,-11.66
1630934713781,-6.3
1630934713796,-1.45
1630934713812,2.47
1630934713828,5.48
1630934713843,7.9
1630934713859,10.05
1630934713875,12.11
1630934713890,13.99
1630934713906,15.48
1630934713921,16.39
1630934713937,16.71
1630934713953,16.64
1630934713968,16.46
1630934713984,16.41
1630934714000,16.57
1630934714015,16.84
1630934714031,17.04
1630934714046,16.99
1630934714062,16.63
1630934714078,16.0
1630934714093,15.27
1630934714109,14.58
1630934714125,13.99
1630934714140,13.45
1630934714156,12.81
1630934714171,11.97
1630934714187,10.91
1630934714203,9.77
1630934714218,8.75
1630934714234,8.04
1630934714250,7.64
1630934714265,7.4
1630934714281,7.0
1630934714296,6.2
1630934714312,4.89
1630934714328,3.2
1630934714343,1.4
1630934714359,-0.21
1630934714375,-1.49
1630934714390,-2.48
1630934714406,-3.37
1630934714421,-4.41
1630934714437,-5.82
1630934714453,-7.71
1630934714468,-10.06
1630934714484,-12.73
1630934714500,-15.4
1630934714515,-17.63
1630934714531,-18.9
1630934714546,-18.75
1630934714562,-16.95
1630934714578,-13.63
1630934714593,-9.25
1630934714609,-4.47
1630934714625,0.06
1630934714640,3.94
1630934714656,7.05
1630934714671,9.52
1630934714687,11.56
1630934714703,13.31
1630934714718,14.76
1630934714734,15.8
1630934714750,16.31
1630934714765,16.29
1630934714781,15.87
1630934714796,15.22
1630934714812,14.49
1630934714828,13.78
1630934714843,13.1
1630934714859,12.45
1630934714875,11.86
1630934714890,11.35
1630934714906,10.92
1630934714921,10.5
1630934714937,10.0
1630934714953,9.34
1630934714968,8.53
1630934714984,7.59
1630934715000,6.59
1630934715015,5.57
1630934715031,4.51
1630934715046,3.36
1630934715062,2.07
1630934715078,0.64
1630934715093,-0.91
1630934715109,-2.53
1630934715125,-4.16
1630934715140,-5.77
1630934715156,-7.32
1630934715171,-8.78
1630934715187,-10.13
1630934715203,-11.38
1630934715218,-12.6
1630934715234,-13.89
1630934715250,-15.39
1630934715265,-17.19
1630934715281,-19.35
1630934715296,-21.71
1630934715312,-23.95
1630934715328,-25.53
1630934715343,-25.91
1630934715359,-24.69
1630934715375,-21.84
1630934715390,-17.7
1630934715406,-12.89
1630934715421,-8.06
1630934715437,-3.67
1630934715453,0.09
1630934715468,3.26
1630934715484,5.95
1630934715500,8.25
1630934715515,10.18
1630934715531,11.72
1630934715546,12.88
1630934715562,13.73
1630934715578,14.32
1630934715593,14.72
1630934715609,14.91
1630934715625,14.88
1630934715640,14.6
1630934715656,14.09
1630934715671,13.39
1630934715687,12.63
1630934715703,11.91
1630934715718,11.34
1630934715734,11.0
1630934715750,10.88
1630934715765,10.9
1630934715781,10.92
1630934715796,10.79
1630934715812,10.36
1630934715828,9.6
1630934715843,8.51
1630934715859,7.15
1630934715875,5.59
1630934715890,3.95
1630934715906,2.35
1630934715921,0.91
1630934715937,-0.29
1630934715953,-1.26
1630934715968,-2.11
1630934715984,-3.0
1630934716000,-4.03
1630934716015,-5.21
1630934716031,-6.47
1630934716046,-7.72
1630934716062,-8.92
1630934716078,-10.07
1630934716093,-11.26
1630934716109,-12.54
1630934716125,-13.93
1630934716140,-15.42
1630934716156,-16.96
1630934716171,-18.54
1630934716187,-20.06
1630934716203,-21.34
1630934716218,-22.07
1630934716234,-21.87
1630934716250,-20.42
1630934716265,-17.67
1630934716281,-13.81
1630934716296,-9.3
1630934716312,-4.66
1630934716328,-0.33
1630934716343,3.48
1630934716359,6.74
1630934716375,9.52
1630934716390,11.9
1630934716406,13.9
1630934716421,15.44
1630934716437,16.45
1630934716453,16.9
1630934716468,16.89
1630934716484,16.61
1630934716500,16.28
1630934716515,16.06
1630934716531,15.98
1630934716546,15.94
1630934716562,15.79
1630934716578,15.42
1630934716593,14.82
1630934716609,14.09
1630934716625,13.38
1630934716640,12.78
1630934716656,12.29
1630934716671,11.8
1630934716687,11.19
1630934716703,10.36
1630934716718,9.33
1630934716734,8.17
1630934716750,7.0
1630934716765,5.92
1630934716781,4.93
1630934716796,4.0
1630934716812,3.04
1630934716828,1.95
1630934716843,0.66
1630934716859,-0.82
1630934716875,-2.39
1630934716890,-3.94
1630934716906,-5.31
1630934716921,-6.48
1630934716937,-7.47
1630934716953,-8.43
1630934716968,-9.46
1630934716984,-10.64
1630934717000,-11.91
1630934717015,-13.18
1630934717031,-14.41
1630934717046,-15.69
1630934717062,-17.18
1630934717078,-18.96
1630934717093,-20.9
1630934717109,-22.53
1630934717125,-23.25
1630934717140,-22.52
1630934717156,-20.19
1630934717171,-16.56
1630934717187,-12.27
1630934717203,-8.03
1630934717218,-4.32
1630934717234,-1.28
1630934717250,1.22
1630934717265,3.37
1630934717281,5.28
1630934717296,6.88
1630934717312,8.08
1630934717328,8.85
1630934717343,9.27
1630934717359,9.51
1630934717375,9.71
1630934717390,9.88
1630934717406,9.93
1630934717421,9.72
1630934717437,9.18
1630934717453,8.44
1630934717468,7.72
1630934717484,7.25
1630934717500,7.13
1630934717515,7.29
1630934717531,7.5
1630934717546,7.61
1630934717562,7.53
1630934717578,7.31
1630934717593,7.03
1630934717609,6.71
1630934717625,6.24
1630934717640,5.5
1630934717656,4.47
1630934717671,3.23
1630934717687,2.01
1630934717703,1.02
1630934717718,0.31
1630934717734,-0.22
1630934717750,-0.79
1630934717765,-1.63
1630934717781,-2.82
1630934717796,-4.29
1630934717812,-5.89
1630934717828,-7.4
1630934717843,-8.66
1630934717859,-9.61
1630934717875,-10.37
1630934717890,-11.11
1630934717906,-12.11
1630934717921,-13.53
1630934717937,-15.39
1630934717953,-17.5
1630934717968,-19.5
1630934717984,-20.98
1630934718000,-21.6
1630934718015,-21.2
1630934718031,-19.79
1630934718046,-17.49
1630934718062,-14.47
1630934718078,-10.9
1630934718093,-6.98
1630934718109,-3.0
1630934718125,0.74
1630934718140,3.97
1630934718156,6.51
1630934718171,8.38
1630934718187,9.71
1630934718203,10.73
1630934718218,11.6
1630934718234,12.4
1630934718250,13.08
1630934718265,13.52
1630934718281,13.64
1630934718296,13.43
1630934718312,12.95
1630934718328,12.33
1630934718343,11.72
1630934718359,11.23
1630934718375,10.96
1630934718390,10.93
1630934718406,11.12
1630934718421,11.44
1630934718437,11.73
1630934718453,11.84
1630934718468,11.67
1630934718484,11.21
1630934718500,10.49
1630934718515,9.58
1630934718531,8.56
1630934718546,7.49
1630934718562,6.41
1630934718578,5.37
1630934718593,4.4
1630934718609,3.53
1630934718625,2.72
1630934718640,1.92
1630934718656,1.04
1630934718671,-0.03
1630934718687,-1.32
1630934718703,-2.77
1630934718718,-4.22
1630934718734,-5.5
1630934718750,-6.49
1630934718765,-7.2
1630934718781,-7.77
1630934718796,-8.43
1630934718812,-9.37
1630934718828,-10.68
1630934718843,-12.3
1630934718859,-14.1
1630934718875,-15.94
1630934718890,-17.74
1630934718906,-19.44
1630934718921,-20.96
1630934718937,-22.07
1630934718953,-22.45
1630934718968,-21.79
1630934718984,-19.9
1630934719000,-16.85
1630934719015,-12.95
1630934719031,-8.67
1630934719046,-4.49
1630934719062,-0.76
1630934719078,2.34
1630934719093,4.8
1630934719109,6.69
1630934719125,8.08
1630934719140,9.04
1630934719156,9.6
1630934719171,9.82
1630934719187,9.78
1630934719203,9.56
1630934719218,9.25
1630934719234,8.92
1630934719250,8.57
1630934719265,8.18
1630934719281,7.74
1630934719296,7.25
1630934719312,6.77
1630934719328,6.42
1630934719343,6.3
1630934719359,6.44
1630934719375,6.77
1630934719390,7.1
1630934719406,7.21
1630934719421,6.88
1630934719437,6.04
1630934719453,4.81
1630934719468,3.41
1630934719484,2.11
1630934719500,1.11
1630934719515,0.44
1630934719531,0.01
1630934719546,-0.38
1630934719562,-0.91
1630934719578,-1.71
1630934719593,-2.76
1630934719609,-3.98
1630934719625,-5.26
1630934719640,-6.51
1630934719656,-7.66
1630934719671,-8.72
1630934719687,-9.71
1630934719703,-10.67
1630934719718,-11.58
1630934719734,-12.43
1630934719750,-13.22
1630934719765,-14.04
1630934719781,-15.03
1630934719796,-16.33
1630934719812,-17.97
1630934719828,-19.72
1630934719843,-21.15
1630934719859,-21.72
1630934719875,-20.96
1630934719890,-18.71
1630934719906,-15.17
1630934719921,-10.83
1630934719937,-6.29
1630934719953,-2.02
1630934719968,1.7
1630934719984,4.8
1630934720000,7.34
1630934720015,9.38
1630934720031,10.96
1630934720046,12.09
1630934720062,12.82
1630934720078,13.22
1630934720093,13.37
1630934720109,13.35
1630934720125,13.19
1630934720140,12.9
1630934720156,12.46
1630934720171,11.88
1630934720187,11.22
1630934720203,10.57
1630934720218,10.06
1630934720234,9.79
1630934720250,9.8
1630934720265,10.03
1630934720281,10.33
1630934720296,10.52
1630934720312,10.47
1630934720328,10.14
1630934720343,9.55
1630934720359,8.76
1630934720375,7.82
1630934720390,6.7
1630934720406,5.4
1630934720421,3.95
1630934720437,2.45
1630934720453,1.06
1630934720468,-0.07
1630934720484,-0.83
1630934720500,-1.23
1630934720515,-1.36
1630934720531,-1.37
1630934720546,-1.48
1630934720562,-1.9
1630934720578,-2.72
1630934720593,-3.94
1630934720609,-5.41
1630934720625,-6.92
1630934720640,-8.25
1630934720656,-9.34
1630934720671,-10.22
1630934720687,-11.1
1630934720703,-12.18
1630934720718,-13.62
1630934720734,-15.46
1630934720750,-17.57
1630934720765,-19.67
1630934720781,-21.37
1630934720796,-22.25
1630934720812,-21.93
1630934720828,-20.2
1630934720843,-17.08
1630934720859,-12.87
1630934720875,-8.06
1630934720890,-3.21
1630934720906,1.17
1630934720921,4.76
1630934720937,7.45
1630934720953,9.34
1630934720968,10.62
1630934720984,11.47
1630934721000,12.06
1630934721015,12.4
1630934721031,12.47
1630934721046,12.25
1630934721062,11.76
1630934721078,11.1
1630934721093,10.44
1630934721109,9.91
1630934721125,9.61
1630934721140,9.55
1630934721156,9.63
1630934721171,9.68
1630934721187,9.57
1630934721203,9.21
1630934721218,8.64
1630934721234,8.0
1630934721250,7.38
1630934721265,6.82
1630934721281,6.23
1630934721296,5.47
1630934721312,4.43
1630934721328,3.09
1630934721343,1.57
1630934721359,0.02
1630934721375,-1.43
1630934721390,-2.75
1630934721406,-3.98
1630934721421,-5.22
1630934721437,-6.53
1630934721453,-7.88
1630934721468,-9.17
1630934721484,-10.28
1630934721500,-11.12
1630934721515,-11.7
1630934721531,-12.14
1630934721546,-12.64
1630934721562,-13.38
1630934721578,-14.46
1630934721593,-15.89
1630934721609,-17.57
1630934721625,-19.38
1630934721640,-21.17
1630934721656,-22.77
1630934721671,-23.96
1630934721687,-24.44
1630934721703,-23.9
1630934721718,-22.12
1630934721734,-19.11
1630934721750,-15.11
1630934721765,-10.58
1630934721781,-5.98
1630934721796,-1.68
1630934721812,2.14
1630934721828,5.46
1630934721843,8.31
1630934721859,10.71
1630934721875,12.59
1630934721890,13.89
1630934721906,14.6
1630934721921,14.82
1630934721937,14.73
1630934721953,14.52
1630934721968,14.37
1630934721984,14.35
1630934722000,14.49
1630934722015,14.74
1630934722031,15.05
1630934722046,15.28
1630934722062,15.35
1630934722078,15.21
1630934722093,14.9
1630934722109,14.48
1630934722125,14.01
1630934722140,13.42
1630934722156,12.57
1630934722171,11.32
1630934722187,9.66
1630934722203,7.78
1630934722218,5.98
1630934722234,4.56
1630934722250,3.61
1630934722265,3.0
1630934722281,2.43
1630934722296,1.6
1630934722312,0.35
1630934722328,-1.29
1630934722343,-3.17
1630934722359,-5.06
1630934722375,-6.82
1630934722390,-8.36
1630934722406,-9.67
1630934722421,-10.81
1630934722437,-11.89
1630934722453,-13.04
1630934722468,-14.37
1630934722484,-16.01
1630934722500,-17.99
1630934722515,-20.23
1630934722531,-22.48
1630934722546,-24.31
1630934722562,-25.18
1630934722578,-24.59
1630934722593,-22.28
1630934722609,-18.38
1630934722625,-13.37
1630934722640,-7.98
1630934722656,-2.91
1630934722671,1.4
1630934722687,4.81
1630934722703,7.45
1630934722718,9.57
1630934722734,11.32
1630934722750,12.75
1630934722765,13.79
1630934722781,14.41
1630934722796,14.61
1630934722812,14.5
1630934722828,14.19
1630934722843,13.82
1630934722859,13.42
1630934722875,13.01
1630934722890,12.54
1630934722906,12.02
1630934722921,11.47
1630934722937,10.96
1630934722953,10.57
1630934722968,10.31
1630934722984,10.16
1630934723000,10.0
1630934723015,9.63
1630934723031,8.89
1630934723046,7.73
1630934723062,6.19
1630934723078,4.49
1630934723093,2.84
1630934723109,1.44
1630934723125,0.31
1630934723140,-0.68
1630934723156,-1.76
1630934723171,-3.14
1630934723187,-4.89
1630934723203,-6.93
1630934723218,-9.0
1630934723234,-10.85
1630934723250,-12.28
1630934723265,-13.28
1630934723281,-14.01
1630934723296,-14.73
1630934723312,-15.72
1630934723328,-17.17
1630934723343,-19.16
1630934723359,-21.57
1630934723375,-24.11
1630934723390,-26.31
1630934723406,-27.67
1630934723421,-27.7
1630934723437,-26.13
1630934723453,-22.96
1630934723468,-18.54
1630934723484,-13.43
1630934723500,-8.23
1630934723515,-3.42
1630934723531,0.72
1630934723546,4.16
1630934723562,6.93
1630934723578,9.09
1630934723593,10.7
1630934723609,11.77
1630934723625,12.35
1630934723640,12.55
1630934723656,12.54
1630934723671,12.49
1630934723687,12.51
1630934723703,12.63
1630934723718,12.81
1630934723734,12.93
1630934723750,12.89
1630934723765,12.62
1630934723781,12.12
1630934723796,11.46
1630934723812,10.75
1630934723828,10.11
1630934723843,9.57
1630934723859,9.13
1630934723875,8.72
1630934723890,8.22
1630934723906,7.55
1630934723921,6.62
1630934723937,5.41
1630934723953,3.94
1630934723968,2.32
1630934723984,0.7
1630934724000,-0.82
1630934724015,-2.14
1630934724031,-3.28
1630934724046,-4.29
1630934724062,-5.27
1630934724078,-6.3
1630934724093,-7.44
1630934724109,-8.77
1630934724125,-10.4
1630934724140,-12.38
1630934724156,-14.72
1630934724171,-17.21
1630934724187,-19.44
1630934724203,-20.84
1630934724218,-20.86
1630934724234,-19.17
1630934724250,-15.81
1630934724265,-11.2
1630934724281,-6.0
1630934724296,-0.85
1630934724312,3.77
1630934724328,7.68
1630934724343,10.89
1630934724359,13.57
1630934724375,15.85
1630934724390,17.81
1630934724406,19.42
1630934724421,20.63
1630934724437,21.34
1630934724453,21.49
1630934724468,21.11
1630934724484,20.29
1630934724500,19.24
1630934724515,18.14
1630934724531,17.17
1630934724546,16.36
1630934724562,15.66
1630934724578,15.0
1630934724593,14.33
1630934724609,13.64
1630934724625,12.95
1630934724640,12.26
1630934724656,11.49
1630934724671,10.53
1630934724687,9.32
1630934724703,7.91
1630934724718,6.47
1630934724734,5.19
1630934724750,4.2
1630934724765,3.44
1630934724781,2.74
1630934724796,1.86
1630934724812,0.66
1630934724828,-0.88
1630934724843,-2.65
1630934724859,-4.47
1630934724875,-6.19
1630934724890,-7.73
1630934724906,-9.09
1630934724921,-10.33
1630934724937,-11.51
1630934724953,-12.73
1630934724968,-14.11
1630934724984,-15.77
1630934725000,-17.78
1630934725015,-20.09
1630934725031,-22.41
1630934725046,-24.29
1630934725062,-25.17
1630934725078,-24.59
1630934725093,-22.38
1630934725109,-18.69
1630934725125,-13.99
1630934725140,-8.92
1630934725156,-4.06
1630934725171,0.2
1630934725187,3.72
1630934725203,6.56
1630934725218,8.87
1630934725234,10.79
1630934725250,12.36
1630934725265,13.58
1630934725281,14.4
1630934725296,14.8
1630934725312,14.8
1630934725328,14.46
1630934725343,13.85
1630934725359,13.06
1630934725375,12.17
1630934725390,11.29
1630934725406,10.49
1630934725421,9.86
1630934725437,9.44
1630934725453,9.24
1630934725468,9.18
1630934725484,9.12
1630934725500,8.9
1630934725515,8.36
1630934725531,7.42
1630934725546,6.12
1630934725562,4.57
1630934725578,2.98
1630934725593,1.47
1630934725609,0.17
1630934725625,-0.95
1630934725640,-1.94
1630934725656,-2.91
1630934725671,-3.91
1630934725687,-4.99
1630934725703,-6.14
1630934725718,-7.36
1630934725734,-8.6
1630934725750,-9.84
1630934725765,-11.02
1630934725781,-12.12
1630934725796,-13.21
1630934725812,-14.42
1630934725828,-15.9
1630934725843,-17.71
1630934725859,-19.66
1630934725875,-21.33
1630934725890,-22.14
1630934725906,-21.59
1630934725921,-19.47
1630934725937,-15.95
1630934725953,-11.53
1630934725968,-6.81
1630934725984,-2.3
1630934726000,1.72
1630934726015,5.19
1630934726031,8.2
1630934726046,10.81
1630934726062,13.02
1630934726078,14.75
1630934726093,15.93
1630934726109,16.54
1630934726125,16.64
1630934726140,16.36
1630934726156,15.88
1630934726171,15.34
1630934726187,14.8
1630934726203,14.31
1630934726218,13.86
1630934726234,13.44
1630934726250,13.03
1630934726265,12.66
1630934726281,12.3
1630934726296,11.97
1630934726312,11.65
1630934726328,11.32
1630934726343,10.93
1630934726359,10.41
1630934726375,9.64
1630934726390,8.55
1630934726406,7.13
1630934726421,5.53
1630934726437,3.91
1630934726453,2.47
1630934726468,1.29
1630934726484,0.33
1630934726500,-0.56
1630934726515,-1.55
1630934726531,-2.78
1630934726546,-4.27
1630934726562,-5.98
1630934726578,-7.76
1630934726593,-9.46
1630934726609,-10.9
1630934726625,-12.01
1630934726640,-12.78
1630934726656,-13.38
1630934726671,-14.06
1630934726687,-15.09
1630934726703,-16.62
1630934726718,-18.56
1630934726734,-20.56
1630934726750,-22.07
1630934726765,-22.52
1630934726781,-21.5
1630934726796,-18.94
1630934726812,-15.07
1630934726828,-10.41
1630934726843,-5.52
1630934726859,-0.91
1630934726875,3.14
1630934726890,6.55
1630934726906,9.39
1630934726921,11.73
1630934726937,13.64
1630934726953,15.08
1630934726968,15.99
1630934726984,16.38
1630934727000,16.32
1630934727015,16.01
1630934727031,15.63
1630934727046,15.35
1630934727062,15.17
1630934727078,15.0
1630934727093,14.73
1630934727109,14.27
1630934727125,13.63
1630934727140,12.93
1630934727156,12.27
1630934727171,11.73
1630934727187,11.27
1630934727203,10.83
1630934727218,10.32
1630934727234,9.66
1630934727250,8.86
1630934727265,7.92
1630934727281,6.89
1630934727296,5.8
1630934727312,4.63
1630934727328,3.36
1630934727343,1.93
1630934727359,0.3
1630934727375,-1.49
1630934727390,-3.31
1630934727406,-5.05
1630934727421,-6.6
1630934727437,-7.92
1630934727453,-9.06
1630934727468,-10.1
1630934727484,-11.15
1630934727500,-12.27
1630934727515,-13.49
1630934727531,-14.81
1630934727546,-16.26
1630934727562,-17.91
1630934727578,-19.79
1630934727593,-21.85
1630934727609,-23.91
1630934727625,-25.61
1630934727640,-26.5
1630934727656,-26.13
1630934727671,-24.27
1630934727687,-21.0
1630934727703,-16.71
1630934727718,-12.03
1630934727734,-7.58
1630934727750,-3.76
1630934727765,-0.71
1630934727781,1.7
1630934727796,3.71
1630934727812,5.52
1630934727828,7.22
1630934727843,8.72
1630934727859,9.92
1630934727875,10.71
1630934727890,11.1
1630934727906,11.17
1630934727921,11.04
1630934727937,10.82
1630934727953,10.53
1630934727968,10.14
1630934727984,9.68
1630934728000,9.23
1630934728015,8.9
1630934728031,8.79
1630934728046,8.89
1630934728062,9.06
1630934728078,9.09
1630934728093,8.78
1630934728109,8.05
1630934728125,6.98
1630934728140,5.79
1630934728156,4.7
1630934728171,3.92
1630934728187,3.48
1630934728203,3.29
1630934728218,3.16
1630934728234,2.87
1630934728250,2.27
1630934728265,1.26
1630934728281,-0.17
1630934728296,-1.91
1630934728312,-3.82
1630934728328,-5.7
1630934728343,-7.37
1630934728359,-8.71
1630934728375,-9.73
1630934728390,-10.52
1630934728406,-11.28
1630934728421,-12.21
1630934728437,-13.45
1630934728453,-15.03
1630934728468,-16.83
1630934728484,-18.56
1630934728500,-19.87
1630934728515,-20.36
1630934728531,-19.69
1630934728546,-17.66
1630934728562,-14.3
1630934728578,-9.93
1630934728593,-5.07
1630934728609,-0.34
1630934728625,3.74
1630934728640,6.88
1630934728656,9.04
1630934728671,10.39
1630934728687,11.18
1630934728703,11.63
1630934728718,11.86
1630934728734,11.93
1630934728750,11.9
1630934728765,11.81
1630934728781,11.73
1630934728796,11.65
1630934728812,11.49
1630934728828,11.12
1630934728843,10.47
1630934728859,9.59
1630934728875,8.69
1630934728890,8.01
1630934728906,7.7
1630934728921,7.71
1630934728937,7.84
1630934728953,7.8
1630934728968,7.42
1630934728984,6.7
1630934729000,5.75
1630934729015,4.79
1630934729031,3.92
1630934729046,3.17
1630934729062,2.46
1630934729078,1.73
1630934729093,0.97
1630934729109,0.19
1630934729125,-0.56
1630934729140,-1.34
1630934729156,-2.22
1630934729171,-3.28
1630934729187,-4.55
1630934729203,-5.97
1630934729218,-7.4
1630934729234,-8.7
1630934729250,-9.8
1630934729265,-10.73
1630934729281,-11.62
1630934729296,-12.66
1630934729312,-14.01
1630934729328,-15.71
1630934729343,-17.64
1630934729359,-19.49
1630934729375,-20.78
1630934729390,-21.03
1630934729406,-19.91
1630934729421,-17.38
1630934729437,-13.74
1630934729453,-9.52
1630934729468,-5.3
1630934729484,-1.47
1630934729500,1.79
1630934729515,4.52
1630934729531,6.82
1630934729546,8.77
1630934729562,10.3
1630934729578,11.33
1630934729593,11.81
1630934729609,11.79
1630934729625,11.45
1630934729640,10.98
1630934729656,10.53
1630934729671,10.13
1630934729687,9.78
1630934729703,9.42
1630934729718,9.03
1630934729734,8.62
1630934729750,8.25
1630934729765,7.95
1630934729781,7.69
1630934729796,7.42
1630934729812,7.05
1630934729828,6.46
1630934729843,5.55
1630934729859,4.33
1630934729875,2.87
1630934729890,1.38
1630934729906,0.08
1630934729921,-0.89
1630934729937,-1.56
1630934729953,-2.16
1630934729968,-2.98
1630934729984,-4.21
1630934730000,-5.82
1630934730015,-7.58
1630934730031,-9.19
1630934730046,-10.44
1630934730062,-11.35
1630934730078,-12.08
1630934730093,-12.86
1630934730109,-13.84
1630934730125,-15.05
1630934730140,-16.49
1630934730156,-18.16
1630934730171,-20.07
1630934730187,-22.09
1630934730203,-23.93
1630934730218,-25.08
1630934730234,-24.97
1630934730250,-23.2
1630934730265,-19.77
1630934730281,-15.14
1630934730296,-10.06
1630934730312,-5.3
1630934730328,-1.31
1630934730343,1.82
1630934730359,4.34
1630934730375,6.56
1630934730390,8.69
1630934730406,10.68
1630934730421,12.35
1630934730437,13.52
1630934730453,14.16
1630934730468,14.41
1630934730484,14.47
1630934730500,14.49
1630934730515,14.5
1630934730531,14.41
1630934730546,14.16
1630934730562,13.75
1630934730578,13.28
1630934730593,12.83
1630934730609,12.47
1630934730625,12.16
1630934730640,11.81
1630934730656,11.33
1630934730671,10.69
1630934730687,9.91
1630934730703,9.07
1630934730718,8.24
1630934730734,7.43
1630934730750,6.65
1630934730765,5.85
1630934730781,4.97
1630934730796,3.92
1630934730812,2.58
1630934730828,0.88
1630934730843,-1.2
1630934730859,-3.53
1630934730875,-5.89
1630934730890,-7.97
1630934730906,-9.55
1630934730921,-10.56
1630934730937,-11.16
1630934730953,-11.67
1630934730968,-12.45
1630934730984,-13.78
1630934731000,-15.72
1630934731015,-18.14
1630934731031,-20.69
1630934731046,-22.92
1630934731062,-24.35
1630934731078,-24.52
1630934731093,-23.14
1630934731109,-20.17
1630934731125,-15.84
1630934731140,-10.65
1630934731156,-5.27
1630934731171,-0.3
1630934731187,3.9
1630934731203,7.21
1630934731218,9.77
1630934731234,11.76
1630934731250,13.35
1630934731265,14.54
1630934731281,15.33
1630934731296,15.69
1630934731312,15.66
1630934731328,15.38
1630934731343,15.0
1630934731359,14.6
1630934731375,14.22
1630934731390,13.81
1630934731406,13.34
1630934731421,12.78
1630934731437,12.18
1630934731453,11.59
1630934731468,11.1
1630934731484,10.79
1630934731500,10.66
1630934731515,10.64
1630934731531,10.55
1630934731546,10.2
1630934731562,9.41
1630934731578,8.16
1630934731593,6.57
1630934731609,4.85
1630934731625,3.19
1630934731640,1.68
1630934731656,0.25
1630934731671,-1.22
1630934731687,-2.83
1630934731703,-4.53
1630934731718,-6.2
1630934731734,-7.7
1630934731750,-8.96
1630934731765,-10.09
1630934731781,-11.22
1630934731796,-12.53
1630934731812,-14.09
1630934731828,-15.93
1630934731843,-18.01
1630934731859,-20.23
1630934731875,-22.42
1630934731890,-24.32
1630934731906,-25.56
1630934731921,-25.73
1630934731937,-24.53
1630934731953,-21.89
1630934731968,-18.0
1630934731984,-13.29
1630934732000,-8.31
1630934732015,-3.54
1630934732031,0.68
1630934732046,4.21
1630934732062,7.05
1630934732078,9.24
1630934732093,10.85
1630934732109,11.9
1630934732125,12.44
1630934732140,12.56
1630934732156,12.36
1630934732171,11.98
1630934732187,11.55
1630934732203,11.2
1630934732218,10.97
1630934732234,10.91
1630934732250,11.0
1630934732265,11.16
1630934732281,11.36
1630934732296,11.52
1630934732312,11.6
1630934732328,11.6
1630934732343,11.46
1630934732359,11.08
1630934732375,10.36
1630934732390,9.2
1630934732406,7.66
1630934732421,5.89
1630934732437,4.13
1630934732453,2.6
1630934732468,1.37
1630934732484,0.37
1630934732500,-0.57
1630934732515,-1.62
1630934732531,-2.86
1630934732546,-4.22
1630934732562,-5.62
1630934732578,-6.96
1630934732593,-8.24
1630934732609,-9.55
1630934732625,-10.99
1630934732640,-12.68
1630934732656,-14.66
1630934732671,-16.86
1630934732687,-19.07
1630934732703,-20.92
1630934732718,-21.97
1630934732734,-21.87
1630934732750,-20.43
1630934732765,-17.78
1630934732781,-14.27
1630934732796,-10.33
1630934732812,-6.3
1630934732828,-2.36
1630934732843,1.44
1630934732859,5.05
1630934732875,8.32
1630934732890,11.03
1630934732906,12.96
1630934732921,14.05
1630934732937,14.39
1630934732953,14.23
1630934732968,13.82
1630934732984,13.33
1630934733000,12.88
1630934733015,12.47
1630934733031,12.11
1630934733046,11.8
1630934733062,11.54
1630934733078,11.32
1630934733093,11.1
1630934733109,10.86
1630934733125,10.54
1630934733140,10.12
1630934733156,9.58
1630934733171,8.9
1630934733187,8.1
1630934733203,7.21
1630934733218,6.29
1630934733234,5.4
1630934733250,4.56
1630934733265,3.79
1630934733281,3.1
1630934733296,2.48
1630934733312,1.89
1630934733328,1.26
1630934733343,0.49
1630934733359,-0.54
1630934733375,-1.88
1630934733390,-3.47
1630934733406,-5.15
1630934733421,-6.76
1630934733437,-8.19
1630934733453,-9.46
1630934733468,-10.7
1630934733484,-12.09
1630934733500,-13.76
1630934733515,-15.75
1630934733531,-17.96
1630934733546,-20.18
1630934733562,-22.08
1630934733578,-23.29
1630934733593,-23.42
1630934733609,-22.21
1630934733625,-19.58
1630934733640,-15.76
1630934733656,-11.18
1630934733671,-6.37
1630934733687,-1.84
1630934733703,2.09
1630934733718,5.27
1630934733734,7.77
1630934733750,9.71
1630934733765,11.22
1630934733781,12.38
1630934733796,13.2
1630934733812,13.71
1630934733828,13.92
1630934733843,13.94
1630934733859,13.88
1630934733875,13.82
1630934733890,13.78
1630934733906,13.67
1630934733921,13.39
1630934733937,12.89
1630934733953,12.21
1630934733968,11.51
1630934733984,10.9
1630934734000,10.43
1630934734015,10.05
1630934734031,9.57
1630934734046,8.85
1630934734062,7.83
1630934734078,6.55
1630934734093,5.15
1630934734109,3.8
1630934734125,2.62
1630934734140,1.61
1630934734156,0.69
1630934734171,-0.27
1630934734187,-1.37
1630934734203,-2.61
1630934734218,-3.92
1630934734234,-5.17
1630934734250,-6.27
1630934734265,-7.22
1630934734281,-8.11
1630934734296,-9.11
1630934734312,-10.35
1630934734328,-11.91
1630934734343,-13.77
1630934734359,-15.85
1630934734375,-17.99
1630934734390,-19.96
1630934734406,-21.4
1630934734421,-21.9
1630934734437,-21.1
1630934734453,-18.85
1630934734468,-15.29
1630934734484,-10.87
1630934734500,-6.21
1630934734515,-1.86
1630934734531,1.87
1630934734546,4.93
1630934734562,7.51
1630934734578,9.81
1630934734593,11.92
1630934734609,13.76
1630934734625,15.17
1630934734640,15.98
1630934734656,16.12
1630934734671,15.69
1630934734687,14.9
1630934734703,14.01
1630934734718,13.22
1630934734734,12.62
1630934734750,12.18
1630934734765,11.79
1630934734781,11.32
1630934734796,10.74
1630934734812,10.07
1630934734828,9.38
1630934734843,8.71
1630934734859,7.99
1630934734875,7.12
1630934734890,6.02
1630934734906,4.71
1630934734921,3.34
1630934734937,2.05
1630934734953,0.95
1630934734968,0.05
1630934734984,-0.74
1630934735000,-1.55
1630934735015,-2.48
1630934735031,-3.54
1630934735046,-4.76
1630934735062,-6.07
1630934735078,-7.46
1630934735093,-8.88
1630934735109,-10.26
1630934735125,-11.55
1630934735140,-12.73
1630934735156,-13.8
1630934735171,-14.9
1630934735187,-16.18
1630934735203,-17.79
1630934735218,-19.79
1630934735234,-22.0
1630934735250,-24.0
1630934735265,-25.22
1630934735281,-25.14
1630934735296,-23.47
1630934735312,-20.31
1630934735328,-16.1
1630934735343,-11.45
1630934735359,-6.87
1630934735375,-2.68
1630934735390,1.05
1630934735406,4.34
1630934735421,7.24
1630934735437,9.68
1630934735453,11.6
1630934735468,12.97
1630934735484,13.86
1630934735500,14.41
1630934735515,14.77
1630934735531,15.02
1630934735546,15.19
1630934735562,15.24
1630934735578,15.17
1630934735593,14.99
1630934735609,14.71
1630934735625,14.41
1630934735640,14.13
1630934735656,13.9
1630934735671,13.71
1630934735687,13.51
1630934735703,13.22
1630934735718,12.77
1630934735734,12.14
1630934735750,11.37
1630934735765,10.52
1630934735781,9.68
1630934735796,8.86
1630934735812,8.04
1630934735828,7.19
1630934735843,6.29
1630934735859,5.39
1630934735875,4.55
1630934735890,3.79
1630934735906,3.04
1630934735921,2.17
1630934735937,1.01
1630934735953,-0.53
1630934735968,-2.39
1630934735984,-4.36
1630934736000,-6.18
1630934736015,-7.64
1630934736031,-8.7
1630934736046,-9.52
1630934736062,-10.35
1630934736078,-11.44
1630934736093,-12.99
1630934736109,-15.0
1630934736125,-17.35
1630934736140,-19.73
1630934736156,-21.76
1630934736171,-22.97
1630934736187,-22.92
1630934736203,-21.38
1630934736218,-18.38
1630934736234,-14.31
1630934736250,-9.74
1630934736265,-5.33
1630934736281,-1.53
1630934736296,1.42
1630934736312,3.57
1630934736328,5.09
1630934736343,6.17
1630934736359,6.95
1630934736375,7.47
1630934736390,7.79
1630934736406,7.97
1630934736421,8.06
1630934736437,8.08
1630934736453,8.02
1630934736468,7.82
1630934736484,7.42
1630934736500,6.86
1630934736515,6.24
1630934736531,5.67
1630934736546,5.23
1630934736562,4.96
1630934736578,4.8
1630934736593,4.65
1630934736609,4.43
1630934736625,4.14
1630934736640,3.79
1630934736656,3.4
1630934736671,2.96
1630934736687,2.38
1630934736703,1.57
1630934736718,0.46
1630934736734,-0.94
1630934736750,-2.55
1630934736765,-4.19
1630934736781,-5.69
1630934736796,-6.94
1630934736812,-7.92
1630934736828,-8.68
1630934736843,-9.34
1630934736859,-10.02
1630934736875,-10.86
1630934736890,-11.94
1630934736906,-13.34
1630934736921,-15.09
1630934736937,-17.13
1630934736953,-19.18
1630934736968,-20.8
1630934736984,-21.49
1630934737000,-20.77
1630934737015,-18.51
1630934737031,-14.94
1630934737046,-10.66
1630934737062,-6.35
1630934737078,-2.52
1630934737093,0.6
1630934737109,3.11
1630934737125,5.26
1630934737140,7.26
1630934737156,9.16
1630934737171,10.88
1630934737187,12.27
1630934737203,13.3
1630934737218,14.0
1630934737234,14.5
1630934737250,14.91
1630934737265,15.26
1630934737281,15.51
1630934737296,15.59
1630934737312,15.46
1630934737328,15.14
1630934737343,14.75
1630934737359,14.45
1630934737375,14.31
1630934737390,14.33
1630934737406,14.33
1630934737421,14.07
1630934737437,13.33
1630934737453,12.07
1630934737468,10.46
1630934737484,8.72
1630934737500,7.08
1630934737515,5.63
1630934737531,4.33
1630934737546,3.05
1630934737562,1.69
1630934737578,0.25
1630934737593,-1.22
1630934737609,-2.64
1630934737625,-3.94
1630934737640,-5.11
1630934737656,-6.17
1630934737671,-7.18
1630934737687,-8.23
1630934737703,-9.45
1630934737718,-10.93
1630934737734,-12.76
1630934737750,-14.88
1630934737765,-17.08
1630934737781,-18.98
1630934737796,-20.13
1630934737812,-20.18
1630934737828,-18.98
1630934737843,-16.64
1630934737859,-13.5
1630934737875,-9.93
1630934737890,-6.29
1630934737906,-2.76
1630934737921,0.61
1630934737937,3.8
1630934737953,6.82
1630934737968,9.58
1630934737984,11.96
1630934738000,13.86
1630934738015,15.2
1630934738031,15.97
1630934738046,16.17
1630934738062,15.85
1630934738078,15.06
1630934738093,13.96
1630934738109,12.73
1630934738125,11.59
1630934738140,10.68
1630934738156,10.08
1630934738171,9.77
1630934738187,9.66
1630934738203,9.62
1630934738218,9.53
1630934738234,9.3
1630934738250,8.84
1630934738265,8.07
1630934738281,6.94
1630934738296,5.49
1630934738312,3.8
1630934738328,2.04
1630934738343,0.37
1630934738359,-1.09
1630934738375,-2.33
1630934738390,-3.44
1630934738406,-4.56
1630934738421,-5.81
1630934738437,-7.23
1630934738453,-8.8
1630934738468,-10.43
1630934738484,-12.07
1630934738500,-13.74
1630934738515,-15.54
1630934738531,-17.56
1630934738546,-19.83
1630934738562,-22.14
1630934738578,-24.08
1630934738593,-25.1
1630934738609,-24.74
1630934738625,-22.82
1630934738640,-19.48
1630934738656,-15.22
1630934738671,-10.69
1630934738687,-6.46
1630934738703,-2.89
1630934738718,-0.06
1630934738734,2.18
1630934738750,4.06
1630934738765,5.78
1630934738781,7.4
1630934738796,8.83
1630934738812,9.95
1630934738828,10.63
1630934738843,10.87
1630934738859,10.8
1630934738875,10.56
1630934738890,10.31
1630934738906,10.12
1630934738921,9.96
1630934738937,9.79
1630934738953,9.59
1630934738968,9.4
1630934738984,9.27
1630934739000,9.25
1630934739015,9.29
1630934739031,9.27
1630934739046,8.99
1630934739062,8.26
1630934739078,7.04
1630934739093,5.42
1630934739109,3.64
1630934739125,1.95
1630934739140,0.53
1630934739156,-0.65
1630934739171,-1.75
1630934739187,-2.98
1630934739203,-4.44
1630934739218,-6.09
1630934739234,-7.73
1630934739250,-9.14
1630934739265,-10.21
1630934739281,-10.99
1630934739296,-11.64
1630934739312,-12.37
1630934739328,-13.36
1630934739343,-14.71
1630934739359,-16.43
1630934739375,-18.42
1630934739390,-20.44
1630934739406,-22.12
1630934739421,-23.02
1630934739437,-22.72
1630934739453,-21.02
1630934739468,-17.98
1630934739484,-13.93
1630934739500,-9.32
1630934739515,-4.66
1630934739531,-0.3
1630934739546,3.54
1630934739562,6.79
1630934739578,9.45
1630934739593,11.56
1630934739609,13.16
1630934739625,14.3
1630934739640,15.02
1630934739656,15.39
1630934739671,15.47
1630934739687,15.33
1630934739703,15.02
1630934739718,14.58
1630934739734,14.04
1630934739750,13.47
1630934739765,12.93
1630934739781,12.49
1630934739796,12.18
1630934739812,11.94
1630934739828,11.65
1630934739843,11.16
1630934739859,10.38
1630934739875,9.36
1630934739890,8.24
1630934739906,7.19
1630934739921,6.33
1630934739937,5.62
1630934739953,4.93
1630934739968,4.1
1630934739984,3.05
1630934740000,1.79
1630934740015,0.41
1630934740031,-1.01
1630934740046,-2.46
1630934740062,-3.95
1630934740078,-5.51
1630934740093,-7.11
1630934740109,-8.7
1630934740125,-10.25
1630934740140,-11.77
1630934740156,-13.38
1630934740171,-15.14
1630934740187,-16.98
1630934740203,-18.58
1630934740218,-19.55
1630934740234,-19.47
1630934740250,-18.13
1630934740265,-15.63
1630934740281,-12.28
1630934740296,-8.49
1630934740312,-4.64
1630934740328,-0.98
1630934740343,2.36
1630934740359,5.35
1630934740375,7.95
1630934740390,10.12
1630934740406,11.78
1630934740421,12.85
1630934740437,13.3
1630934740453,13.19
1630934740468,12.66
1630934740484,11.93
1630934740500,11.26
1630934740515,10.84
1630934740531,10.75
1630934740546,10.88
1630934740562,11.05
1630934740578,11.09
1630934740593,10.91
1630934740609,10.48
1630934740625,9.83
1630934740640,8.98
1630934740656,7.91
1630934740671,6.65
1630934740687,5.22
1630934740703,3.78
1630934740718,2.43
1630934740734,1.24
1630934740750,0.13
1630934740765,-1.04
1630934740781,-2.43
1630934740796,-4.07
1630934740812,-5.89
1630934740828,-7.7
1630934740843,-9.34
1630934740859,-10.73
1630934740875,-11.9
1630934740890,-12.98
1630934740906,-14.08
1630934740921,-15.32
1630934740937,-16.76
1630934740953,-18.37
1630934740968,-20.02
1630934740984,-21.43
1630934741000,-22.2
1630934741015,-21.89
1630934741031,-20.22
1630934741046,-17.2
1630934741062,-13.13
1630934741078,-8.56
1630934741093,-4.02
1630934741109,0.06
1630934741125,3.53
1630934741140,6.42
1630934741156,8.81
1630934741171,10.76
1630934741187,12.25
1630934741203,13.19
1630934741218,13.52
1630934741234,13.27
1630934741250,12.55
1630934741265,11.56
1630934741281,10.51
1630934741296,9.59
1630934741312,8.9
1630934741328,8.44
1630934741343,8.14
1630934741359,7.85
1630934741375,7.48
1630934741390,6.99
1630934741406,6.4
1630934741421,5.76
1630934741437,5.08
1630934741453,4.37
1630934741468,3.56
1630934741484,2.6
1630934741500,1.44
1630934741515,0.1
1630934741531,-1.34
1630934741546,-2.78
1630934741562,-4.1
1630934741578,-5.23
1630934741593,-6.21
1630934741609,-7.18
1630934741625,-8.31
1630934741640,-9.74
1630934741656,-11.51
1630934741671,-13.55
1630934741687,-15.7
1630934741703,-17.78
1630934741718,-19.61
1630934741734,-20.97
1630934741750,-21.63
1630934741765,-21.29
1630934741781,-19.76
1630934741796,-16.98
1630934741812,-13.21
1630934741828,-8.89
1630934741843,-4.56
1630934741859,-0.62
1630934741875,2.73
1630934741890,5.56
1630934741906,8.01
1630934741921,10.23
1630934741937,12.21
1630934741953,13.84
1630934741968,14.97
1630934741984,15.5
1630934742000,15.46
1630934742015,15.03
1630934742031,14.43
1630934742046,13.89
1630934742062,13.55
1630934742078,13.4
1630934742093,13.35
1630934742109,13.29
1630934742125,13.16
1630934742140,12.95
1630934742156,12.7
1630934742171,12.38
1630934742187,11.95
1630934742203,11.33
1630934742218,10.47
1630934742234,9.42
1630934742250,8.25
1630934742265,7.05
1630934742281,5.85
1630934742296,4.59
1630934742312,3.19
1630934742328,1.61
1630934742343,-0.13
1630934742359,-1.91
1630934742375,-3.62
1630934742390,-5.2
1630934742406,-6.63
1630934742421,-7.95
1630934742437,-9.21
1630934742453,-10.46
1630934742468,-11.76
1630934742484,-13.19
1630934742500,-14.81
1630934742515,-16.58
1630934742531,-18.28
1630934742546,-19.53
1630934742562,-19.84
1630934742578,-18.81
1630934742593,-16.3
1630934742609,-12.48
1630934742625,-7.84
1630934742640,-2.96
1630934742656,1.59
1630934742671,5.49
1630934742687,8.62
1630934742703,11.01
1630934742718,12.78
1630934742734,14.0
1630934742750,14.73
1630934742765,15.05
1630934742781,15.04
1630934742796,14.83
1630934742812,14.55
1630934742828,14.27
1630934742843,13.97
1630934742859,13.58
1630934742875,13.04
1630934742890,12.33
1630934742906,11.52
1630934742921,10.71
1630934742937,10.02
1630934742953,9.48
1630934742968,9.05
1630934742984,8.6
1630934743000,7.96
1630934743015,7.04
1630934743031,5.83
1630934743046,4.4
1630934743062,2.9
1630934743078,1.44
1630934743093,0.08
1630934743109,-1.22
1630934743125,-2.53
1630934743140,-3.95
1630934743156,-5.48
1630934743171,-7.06
1630934743187,-8.54
1630934743203,-9.78
1630934743218,-10.69
1630934743234,-11.33
1630934743250,-11.89
1630934743265,-12.64
1630934743281,-13.83
1630934743296,-15.55
1630934743312,-17.62
1630934743328,-19.61
1630934743343,-20.93
1630934743359,-21.05
1630934743375,-19.69
1630934743390,-16.95
1630934743406,-13.23
1630934743421,-9.08
1630934743437,-5.01
1630934743453,-1.26
1630934743468,2.09
1630934743484,5.08
1630934743500,7.72
1630934743515,9.94
1630934743531,11.61
1630934743546,12.66
1630934743562,13.13
1630934743578,13.17
1630934743593,13.0
1630934743609,12.8
1630934743625,12.62
1630934743640,12.44
1630934743656,12.17
1630934743671,11.73
1630934743687,11.12
1630934743703,10.41
1630934743718,9.71
1630934743734,9.11
1630934743750,8.65
1630934743765,8.27
1630934743781,7.88
1630934743796,7.35
1630934743812,6.65
1630934743828,5.79
1630934743843,4.8
1630934743859,3.7
1630934743875,2.48
1630934743890,1.1
1630934743906,-0.4
1630934743921,-1.96
1630934743937,-3.46
1630934743953,-4.86
1630934743968,-6.16
1630934743984,-7.47
1630934744000,-8.86
1630934744015,-10.35
1630934744031,-11.87
1630934744046,-13.33
1630934744062,-14.68
1630934744078,-16.01
1630934744093,-17.39
1630934744109,-18.82
1630934744125,-20.07
1630934744140,-20.71
1630934744156,-20.27
1630934744171,-18.43
1630934744187,-15.27
1630934744203,-11.2
1630934744218,-6.83
1630934744234,-2.73
1630934744250,0.77
1630934744265,3.59
1630934744281,5.86
1630934744296,7.72
1630934744312,9.25
1630934744328,10.46
1630934744343,11.33
1630934744359,11.82
1630934744375,11.96
1630934744390,11.78
1630934744406,11.34
1630934744421,10.74
1630934744437,10.09
1630934744453,9.51
1630934744468,9.13
1630934744484,8.98
1630934744500,9.03
1630934744515,9.14
1630934744531,9.21
1630934744546,9.15
1630934744562,8.98
1630934744578,8.71
1630934744593,8.32
1630934744609,7.75
1630934744625,6.92
1630934744640,5.77
1630934744656,4.31
1630934744671,2.62
1630934744687,0.85
1630934744703,-0.87
1630934744718,-2.43
1630934744734,-3.8
1630934744750,-5.01
1630934744765,-6.13
1630934744781,-7.22
1630934744796,-8.37
1630934744812,-9.61
1630934744828,-11.0
1630934744843,-12.57
1630934744859,-14.36
1630934744875,-16.35
1630934744890,-18.34
1630934744906,-20.03
1630934744921,-20.99
1630934744937,-20.83
1630934744953,-19.36
1630934744968,-16.66
1630934744984,-13.12
1630934745000,-9.22
1630934745015,-5.43
1630934745031,-1.99
1630934745046,1.04
1630934745062,3.73
1630934745078,6.14
1630934745093,8.26
1630934745109,10.01
1630934745125,11.28
1630934745140,11.98
1630934745156,12.15
1630934745171,11.89
1630934745187,11.37
1630934745203,10.79
1630934745218,10.31
1630934745234,10.0
1630934745250,9.83
1630934745265,9.73
1630934745281,9.55
1630934745296,9.23
1630934745312,8.75
1630934745328,8.17
1630934745343,7.58
1630934745359,7.0
1630934745375,6.43
1630934745390,5.81
1630934745406,5.1
1630934745421,4.28
1630934745437,3.34
1630934745453,2.27
1630934745468,1.06
1630934745484,-0.27
1630934745500,-1.7
1630934745515,-3.17
1630934745531,-4.64
1630934745546,-6.07
1630934745562,-7.42
1630934745578,-8.67
1630934745593,-9.78
1630934745609,-10.78
1630934745625,-11.79
1630934745640,-13.03
1630934745656,-14.64
1630934745671,-16.58
1630934745687,-18.49
1630934745703,-19.8
1630934745718,-19.91
1630934745734,-18.48
1630934745750,-15.56
1630934745765,-11.61
1630934745781,-7.27
1630934745796,-3.1
1630934745812,0.54
1630934745828,3.59
1630934745843,6.1
1630934745859,8.17
1630934745875,9.79
1630934745890,10.91
1630934745906,11.48
1630934745921,11.52
1630934745937,11.18
1630934745953,10.62
1630934745968,10.02
1630934745984,9.47
1630934746000,8.98
1630934746015,8.5
1630934746031,7.94
1630934746046,7.27
1630934746062,6.53
1630934746078,5.82
1630934746093,5.23
1630934746109,4.82
1630934746125,4.54
1630934746140,4.26
1630934746156,3.81
1630934746171,3.04
1630934746187,1.92
1630934746203,0.54
1630934746218,-0.98
1630934746234,-2.54
1630934746250,-4.09
1630934746265,-5.62
1630934746281,-7.13
1630934746296,-8.59
1630934746312,-9.98
1630934746328,-11.35
1630934746343,-12.81
1630934746359,-14.43
1630934746375,-16.21
1630934746390,-17.86
1630934746406,-18.94
1630934746421,-18.93
1630934746437,-17.52
1630934746453,-14.74
1630934746468,-11.01
1630934746484,-6.96
1630934746500,-3.21
1630934746515,-0.14
1630934746531,2.18
1630934746546,3.94
1630934746562,5.38
1630934746578,6.66
1630934746593,7.79
1630934746609,8.67
1630934746625,9.18
1630934746640,9.25
1630934746656,8.91
1630934746671,8.24
1630934746687,7.36
1630934746703,6.36
1630934746718,5.33
1630934746734,4.36
1630934746750,3.55
1630934746765,2.93
1630934746781,2.51
1630934746796,2.2
1630934746812,1.84
1630934746828,1.29
1630934746843,0.43
1630934746859,-0.74
1630934746875,-2.12
1630934746890,-3.54
1630934746906,-4.84
1630934746921,-5.89
1630934746937,-6.7
1630934746953,-7.37
1630934746968,-8.1
1630934746984,-9.15
1630934747000,-10.7
1630934747015,-12.72
1630934747031,-14.98
1630934747046,-17.01
1630934747062,-18.27
1630934747078,-18.3
1630934747093,-16.9
1630934747109,-14.22
1630934747125,-10.65
1630934747140,-6.72
1630934747156,-2.86
1630934747171,0.63
1630934747187,3.63
1630934747203,6.12
1630934747218,8.07
1630934747234,9.39
1630934747250,10.07
1630934747265,10.12
1630934747281,9.7
1630934747296,9.07
1630934747312,8.45
1630934747328,8.03
1630934747343,7.81
1630934747359,7.7
1630934747375,7.56
1630934747390,7.27
1630934747406,6.8
1630934747421,6.18
1630934747437,5.47
1630934747453,4.74
1630934747468,3.98
1630934747484,3.12
1630934747500,2.09
1630934747515,0.82
1630934747531,-0.67
1630934747546,-2.29
1630934747562,-3.89
1630934747578,-5.37
1630934747593,-6.69
1630934747609,-7.93
1630934747625,-9.28
1630934747640,-10.88
1630934747656,-12.8
1630934747671,-14.9
1630934747687,-16.83
1630934747703,-18.17
1630934747718,-18.48
1630934747734,-17.5
1630934747750,-15.22
1630934747765,-11.85
1630934747781,-7.83
1630934747796,-3.59
1630934747812,0.46
1630934747828,4.06
1630934747843,7.08
1630934747859,9.48
1630934747875,11.27
1630934747890,12.46
1630934747906,13.12
1630934747921,13.32
1630934747937,13.22
1630934747953,12.99
1630934747968,12.75
1630934747984,12.53
1630934748000,12.26
1630934748015,11.81
1630934748031,11.08
1630934748046,10.1
1630934748062,9.01
1630934748078,8.02
1630934748093,7.28
1630934748109,6.82
1630934748125,6.5
1630934748140,6.11
1630934748156,5.41
1630934748171,4.31
1630934748187,2.87
1630934748203,1.25
1630934748218,-0.35
1630934748234,-1.83
1630934748250,-3.16
1630934748265,-4.43
1630934748281,-5.75
1630934748296,-7.28
1630934748312,-9.12
1630934748328,-11.26
1630934748343,-13.59
1630934748359,-15.81
1630934748375,-17.5
1630934748390,-18.2
1630934748406,-17.58
1630934748421,-15.57
1630934748437,-12.39
1630934748453,-8.5
1630934748468,-4.38
1630934748484,-0.46
1630934748500,3.05
1630934748515,6.07
1630934748531,8.55
1630934748546,10.47
1630934748562,11.79
1630934748578,12.48
1630934748593,12.63
1630934748609,12.41
1630934748625,12.04
1630934748640,11.64
1630934748656,11.28
1630934748671,10.91
1630934748687,10.46
1630934748703,9.89
1630934748718,9.21
1630934748734,8.46
1630934748750,7.68
1630934748765,6.88
1630934748781,6.06
1630934748796,5.21
1630934748812,4.33
1630934748828,3.41
1630934748843,2.4
1630934748859,1.25
1630934748875,-0.05
1630934748890,-1.46
1630934748906,-2.87
1630934748921,-4.18
1630934748937,-5.35
1630934748953,-6.49
1630934748968,-7.77
1630934748984,-9.38
1630934749000,-11.41
1630934749015,-13.72
1630934749031,-15.97
1630934749046,-17.65
1630934749062,-18.27
1630934749078,-17.48
1630934749093,-15.23
1630934749109,-11.76
1630934749125,-7.59
1630934749140,-3.27
1630934749156,0.71
1630934749171,4.1
1630934749187,6.9
1630934749203,9.22
1630934749218,11.16
1630934749234,12.75
1630934749250,13.89
1630934749265,14.51
1630934749281,14.59
1630934749296,14.23
1630934749312,13.61
1630934749328,12.91
1630934749343,12.25
1630934749359,11.66
1630934749375,11.11
1630934749390,10.55
1630934749406,9.99
1630934749421,9.45
1630934749437,9.0
1630934749453,8.66
1630934749468,8.36
1630934749484,7.96
1630934749500,7.29
1630934749515,6.2
1630934749531,4.7
1630934749546,2.92
1630934749562,1.12
1630934749578,-0.45
1630934749593,-1.66
1630934749609,-2.54
1630934749625,-3.29
1630934749640,-4.15
1630934749656,-5.31
1630934749671,-6.9
1630934749687,-8.92
1630934749703,-11.3
1630934749718,-13.87
1630934749734,-16.33
1630934749750,-18.31
1630934749765,-19.38
1630934749781,-19.21
1630934749796,-17.63
1630934749812,-14.77
1630934749828,-10.97
1630934749843,-6.72
1630934749859,-2.51
1630934749875,1.31
1630934749890,4.53
1630934749906,7.12
1630934749921,9.2
1630934749937,10.89
1630934749953,12.32
1630934749968,13.55
1630934749984,14.53
1630934750000,15.15
1630934750015,15.34
1630934750031,15.11
1630934750046,14.61
1630934750062,14.03
1630934750078,13.58
1630934750093,13.37
1630934750109,13.38
1630934750125,13.5
1630934750140,13.61
1630934750156,13.58
1630934750171,13.4
1630934750187,13.05
1630934750203,12.53
1630934750218,11.82
1630934750234,10.94
1630934750250,9.91
1630934750265,8.8
1630934750281,7.7
1630934750296,6.7
1630934750312,5.81
1630934750328,4.96
1630934750343,4.05
1630934750359,2.93
1630934750375,1.53
1630934750390,-0.13
1630934750406,-1.97
1630934750421,-3.79
1630934750437,-5.47
1630934750453,-6.95
1630934750468,-8.3
1630934750484,-9.73
1630934750500,-11.5
1630934750515,-13.78
1630934750531,-16.48
1630934750546,-19.29
1630934750562,-21.71
1630934750578,-23.21
1630934750593,-23.41
1630934750609,-22.21
1630934750625,-19.74
1630934750640,-16.38
1630934750656,-12.57
1630934750671,-8.72
1630934750687,-5.13
1630934750703,-1.97
1630934750718,0.68
1630934750734,2.78
1630934750750,4.37
1630934750765,5.47
1630934750781,6.18
1630934750796,6.59
1630934750812,6.8
1630934750828,6.86
1630934750843,6.81
1630934750859,6.64
1630934750875,6.35
1630934750890,5.98
1630934750906,5.59
1630934750921,5.24
1630934750937,4.99
1630934750953,4.82
1630934750968,4.68
1630934750984,4.51
1630934751000,4.25
1630934751015,3.88
1630934751031,3.44
1630934751046,2.98
1630934751062,2.52
1630934751078,2.07
1630934751093,1.57
1630934751109,1.02
1630934751125,0.34
1630934751140,-0.47
1630934751156,-1.45
1630934751171,-2.61
1630934751187,-3.96
1630934751203,-5.42
1630934751218,-6.91
1630934751234,-8.26
1630934751250,-9.33
1630934751265,-10.07
1630934751281,-10.55
1630934751296,-10.98
1630934751312,-11.64
1630934751328,-12.72
1630934751343,-14.24
1630934751359,-15.95
1630934751375,-17.38
1630934751390,-17.98
1630934751406,-17.32
1630934751421,-15.24
1630934751437,-11.93
1630934751453,-7.85
1630934751468,-3.59
1630934751484,0.4
1630934751500,3.87
1630934751515,6.76
1630934751531,9.14
1630934751546,11.06
1630934751562,12.49
1630934751578,13.4
1630934751593,13.77
1630934751609,13.71
1630934751625,13.4
1630934751640,13.06
1630934751656,12.82
1630934751671,12.73
1630934751687,12.72
1630934751703,12.7
1630934751718,12.57
1630934751734,12.29
1630934751750,11.9
1630934751765,11.44
1630934751781,11.02
1630934751796,10.7
1630934751812,10.5
1630934751828,10.37
1630934751843,10.2
1630934751859,9.83
1630934751875,9.12
1630934751890,8.01
1630934751906,6.56
1630934751921,4.95
1630934751937,3.41
1630934751953,2.17
1630934751968,1.33
1630934751984,0.78
1630934752000,0.27
1630934752015,-0.52
1630934752031,-1.77
1630934752046,-3.47
1630934752062,-5.36
1630934752078,-7.07
1630934752093,-8.34
1630934752109,-9.12
1630934752125,-9.63
1630934752140,-10.22
1630934752156,-11.18
1630934752171,-12.59
1630934752187,-14.32
1630934752203,-16.11
1630934752218,-17.68
1630934752234,-18.8
1630934752250,-19.31
1630934752265,-19.07
1630934752281,-17.92
1630934752296,-15.82
1630934752312,-12.86
1630934752328,-9.32
1630934752343,-5.62
1630934752359,-2.17
1630934752375,0.8
1630934752390,3.25
1630934752406,5.29
1630934752421,7.08
1630934752437,8.69
1630934752453,10.1
1630934752468,11.22
1630934752484,11.98
1630934752500,12.38
1630934752515,12.5
1630934752531,12.4
1630934752546,12.11
1630934752562,11.63
1630934752578,10.96
1630934752593,10.19
1630934752609,9.44
1630934752625,8.89
1630934752640,8.67
1630934752656,8.8
1630934752671,9.16
1630934752687,9.58
1630934752703,9.83
1630934752718,9.73
1630934752734,9.14
1630934752750,8.04
1630934752765,6.54
1630934752781,4.85
1630934752796,3.25
1630934752812,1.96
1630934752828,1.04
1630934752843,0.38
1630934752859,-0.3
1630934752875,-1.26
1630934752890,-2.66
1630934752906,-4.43
1630934752921,-6.31
1630934752937,-7.96
1630934752953,-9.14
1630934752968,-9.78
1630934752984,-10.06
1630934753000,-10.33
1630934753015,-10.89
1630934753031,-11.93
1630934753046,-13.45
1630934753062,-15.26
1630934753078,-17.04
1630934753093,-18.43
1630934753109,-19.09
1630934753125,-18.76
1630934753140,-17.33
1630934753156,-14.88
1630934753171,-11.7
1630934753187,-8.27
1630934753203,-5.03
1630934753218,-2.34
1630934753234,-0.26
1630934753250,1.31
1630934753265,2.59
1630934753281,3.74
1630934753296,4.77
1630934753312,5.57
1630934753328,6.0
1630934753343,5.98
1630934753359,5.61
1630934753375,5.06
1630934753390,4.53
1630934753406,4.11
1630934753421,3.79
1630934753437,3.46
1630934753453,3.04
1630934753468,2.56
1630934753484,2.16
1630934753500,2.0
1630934753515,2.1
1630934753531,2.36
1630934753546,2.49
1630934753562,2.22
1630934753578,1.42
1630934753593,0.2
1630934753609,-1.15
1630934753625,-2.35
1630934753640,-3.24
1630934753656,-3.91
1630934753671,-4.56
1630934753687,-5.36
1630934753703,-6.38
1630934753718,-7.51
1630934753734,-8.62
1630934753750,-9.58
1630934753765,-10.43
1630934753781,-11.21
1630934753796,-12.01
1630934753812,-12.82
1630934753828,-13.6
1630934753843,-14.33
1630934753859,-15.1
1630934753875,-16.05
1630934753890,-17.26
1630934753906,-18.61
1630934753921,-19.74
1630934753937,-20.11
1630934753953,-19.28
1630934753968,-17.06
1630934753984,-13.66
1630934754000,-9.61
1630934754015,-5.5
1630934754031,-1.79
1630934754046,1.34
1630934754062,3.93
1630934754078,6.11
1630934754093,7.95
1630934754109,9.41
1630934754125,10.45
1630934754140,11.02
1630934754156,11.23
1630934754171,11.23
1630934754187,11.22
1630934754203,11.3
1630934754218,11.51
1630934754234,11.75
1630934754250,11.94
1630934754265,11.97
1630934754281,11.83
1630934754296,11.57
1630934754312,11.27
1630934754328,10.99
1630934754343,10.76
1630934754359,10.51
1630934754375,10.15
1630934754390,9.61
1630934754406,8.87
1630934754421,8.0
1630934754437,7.11
1630934754453,6.26
1630934754468,5.42
1630934754484,4.52
1630934754500,3.43
1630934754515,2.1
1630934754531,0.56
1630934754546,-1.11
1630934754562,-2.82
1630934754578,-4.5
1630934754593,-6.09
1630934754609,-7.5
1630934754625,-8.66
1630934754640,-9.52
1630934754656,-10.15
1630934754671,-10.76
1630934754687,-11.67
1630934754703,-13.12
1630934754718,-15.14
1630934754734,-17.44
1630934754750,-19.42
1630934754765,-20.42
1630934754781,-19.92
1630934754796,-17.77
1630934754812,-14.24
1630934754828,-9.89
1630934754843,-5.39
1630934754859,-1.23
1630934754875,2.3
1630934754890,5.14
1630934754906,7.38
1630934754921,9.12
1630934754937,10.45
1630934754953,11.37
1630934754968,11.95
1630934754984,12.22
1630934755000,12.31
1630934755015,12.31
1630934755031,12.27
1630934755046,12.19
1630934755062,11.98
1630934755078,11.55
1630934755093,10.88
1630934755109,10.06
1630934755125,9.26
1630934755140,8.67
1630934755156,8.38
1630934755171,8.38
1630934755187,8.53
1630934755203,8.62
1630934755218,8.49
1630934755234,8.02
1630934755250,7.21
1630934755265,6.11
1630934755281,4.81
1630934755296,3.42
1630934755312,2.04
1630934755328,0.75
1630934755343,-0.39
1630934755359,-1.45
1630934755375,-2.52
1630934755390,-3.71
1630934755406,-5.05
1630934755421,-6.48
1630934755437,-7.9
1630934755453,-9.23
1630934755468,-10.47
1630934755484,-11.73
1630934755500,-13.17
1630934755515,-14.86
1630934755531,-16.8
1630934755546,-18.82
1630934755562,-20.64
1630934755578,-21.93
1630934755593,-22.4
1630934755609,-21.83
1630934755625,-20.18
1630934755640,-17.52
1630934755656,-14.13
1630934755671,-10.38
1630934755687,-6.64
1630934755703,-3.25
1630934755718,-0.37
1630934755734,1.95
1630934755750,3.8
1630934755765,5.26
1630934755781,6.38
1630934755796,7.19
1630934755812,7.68
1630934755828,7.88
1630934755843,7.85
1630934755859,7.62
1630934755875,7.24
1630934755890,6.71
1630934755906,6.09
1630934755921,5.51
1630934755937,5.14
1630934755953,5.12
1630934755968,5.44
1630934755984,5.94
1630934756000,6.34
1630934756015,6.38
1630934756031,5.9
1630934756046,4.96
1630934756062,3.73
1630934756078,2.4
1630934756093,1.17
1630934756109,0.11
1630934756125,-0.76
1630934756140,-1.49
1630934756156,-2.13
1630934756171,-2.74
1630934756187,-3.36
1630934756203,-4.04
1630934756218,-4.82
1630934756234,-5.73
1630934756250,-6.79
1630934756265,-7.99
1630934756281,-9.29
1630934756296,-10.55
1630934756312,-11.69
1630934756328,-12.66
1630934756343,-13.55
1630934756359,-14.5
1630934756375,-15.54
1630934756390,-16.5
1630934756406,-17.01
1630934756421,-16.59
1630934756437,-14.92
1630934756453,-12.02
1630934756468,-8.24
1630934756484,-4.08
1630934756500,0.01
1630934756515,3.83
1630934756531,7.34
1630934756546,10.55
1630934756562,13.42
1630934756578,15.74
1630934756593,17.32
1630934756609,18.05
1630934756625,18.04
1630934756640,17.57
1630934756656,16.92
1630934756671,16.35
1630934756687,15.93
1630934756703,15.67
1630934756718,15.5
1630934756734,15.35
1630934756750,15.16
1630934756765,14.87
1630934756781,14.47
1630934756796,13.92
1630934756812,13.27
1630934756828,12.51
1630934756843,11.65
1630934756859,10.64
1630934756875,9.44
1630934756890,8.02
1630934756906,6.45
1630934756921,4.86
1630934756937,3.37
1630934756953,2.02
1630934756968,0.75
1630934756984,-0.56
1630934757000,-2.02
1630934757015,-3.62
1630934757031,-5.27
1630934757046,-6.79
1630934757062,-8.08
1630934757078,-9.1
1630934757093,-9.92
1630934757109,-10.69
1630934757125,-11.54
1630934757140,-12.62
1630934757156,-14.03
1630934757171,-15.82
1630934757187,-17.9
1630934757203,-20.0
1630934757218,-21.61
1630934757234,-22.16
1630934757250,-21.21
1630934757265,-18.64
1630934757281,-14.74
1630934757296,-10.11
1630934757312,-5.43
1630934757328,-1.23
1630934757343,2.31
1630934757359,5.22
1630934757375,7.7
1630934757390,9.85
1630934757406,11.66
1630934757421,12.98
1630934757437,13.69
1630934757453,13.75
1630934757468,13.31
1630934757484,12.6
1630934757500,11.85
1630934757515,11.19
1630934757531,10.61
1630934757546,10.02
1630934757562,9.33
1630934757578,8.56
1630934757593,7.83
1630934757609,7.3
1630934757625,7.09
1630934757640,7.16
1630934757656,7.31
1630934757671,7.31
1630934757687,6.97
1630934757703,6.26
1630934757718,5.32
1630934757734,4.36
1630934757750,3.51
1630934757765,2.8
1630934757781,2.12
1630934757796,1.32
1630934757812,0.34
1630934757828,-0.78
1630934757843,-1.94
1630934757859,-3.08
1630934757875,-4.19
1630934757890,-5.34
1630934757906,-6.58
1630934757921,-7.92
1630934757937,-9.3
1630934757953,-10.67
1630934757968,-12.03
1630934757984,-13.42
1630934758000,-14.84
1630934758015,-16.14
1630934758031,-16.98
1630934758046,-16.93
1630934758062,-15.67
1630934758078,-13.13
1630934758093,-9.55
1630934758109,-5.39
1630934758125,-1.15
1630934758140,2.76
1630934758156,6.13
1630934758171,8.89
1630934758187,11.08
1630934758203,12.77
1630934758218,14.01
1630934758234,14.88
1630934758250,15.43
1630934758265,15.68
1630934758281,15.66
1630934758296,15.38
1630934758312,14.88
1630934758328,14.25
1630934758343,13.57
1630934758359,12.91
1630934758375,12.28
1630934758390,11.65
1630934758406,10.97
1630934758421,10.18
1630934758437,9.29
1630934758453,8.37
1630934758468,7.5
1630934758484,6.7
1630934758500,5.95
1630934758515,5.12
1630934758531,4.08
1630934758546,2.75
1630934758562,1.15
1630934758578,-0.55
1630934758593,-2.18
1630934758609,-3.6
1630934758625,-4.76
1630934758640,-5.75
1630934758656,-6.71
1630934758671,-7.73
1630934758687,-8.86
1630934758703,-10.07
1630934758718,-11.39
1630934758734,-12.86
1630934758750,-14.53
1630934758765,-16.37
1630934758781,-18.14
1630934758796,-19.44
1630934758812,-19.8
1630934758828,-18.85
1630934758843,-16.5
1630934758859,-13.02
1630934758875,-8.91
1630934758890,-4.75
1630934758906,-1.03
1630934758921,2.02
1630934758937,4.41
1630934758953,6.26
1630934758968,7.74
1630934758984,8.89
1630934759000,9.72
1630934759015,10.17
1630934759031,10.22
1630934759046,9.91
1630934759062,9.4
1630934759078,8.86
1630934759093,8.42
1630934759109,8.15
1630934759125,8.01
1630934759140,7.9
1630934759156,7.7
1630934759171,7.38
1630934759187,6.95
1630934759203,6.48
1630934759218,6.02
1630934759234,5.59
1630934759250,5.1
1630934759265,4.46
1630934759281,3.57
1630934759296,2.4
1630934759312,1.0
1630934759328,-0.55
1630934759343,-2.17
1630934759359,-3.78
1630934759375,-5.32
1630934759390,-6.76
1630934759406,-8.07
1630934759421,-9.27
1630934759437,-10.41
1630934759453,-11.6
1630934759468,-12.93
1630934759484,-14.45
1630934759500,-16.04
1630934759515,-17.44
1630934759531,-18.29
1630934759546,-18.25
1630934759562,-17.13
1630934759578,-14.96
1630934759593,-11.94
1630934759609,-8.42
1630934759625,-4.76
1630934759640,-1.25
1630934759656,1.91
1630934759671,4.62
1630934759687,6.87
1630934759703,8.68
1630934759718,10.08
1630934759734,11.08
1630934759750,11.67
1630934759765,11.85
1630934759781,11.63
1630934759796,11.08
1630934759812,10.37
1630934759828,9.65
1630934759843,9.07
1630934759859,8.68
1630934759875,8.41
1630934759890,8.14
1630934759906,7.74
1630934759921,7.16
1630934759937,6.36
1630934759953,5.4
1630934759968,4.3
1630934759984,3.11
1630934760000,1.82
1630934760015,0.43
1630934760031,-1.06
1630934760046,-2.62
1630934760062,-4.13
1630934760078,-5.52
1630934760093,-6.72
1630934760109,-7.76
1630934760125,-8.77
1630934760140,-9.91
1630934760156,-11.25
1630934760171,-12.67
1630934760187,-13.88
1630934760203,-14.43
1630934760218,-13.91
1630934760234,-12.14
1630934760250,-9.23
1630934760265,-5.59
1630934760281,-1.77
1630934760296,1.78
1630934760312,4.8
1630934760328,7.25
1630934760343,9.24
1630934760359,10.86
1630934760375,12.16
1630934760390,13.08
1630934760406,13.54
1630934760421,13.57
1630934760437,13.27
1630934760453,12.77
1630934760468,12.19
1630934760484,11.53
1630934760500,10.71
1630934760515,9.67
1630934760531,8.41
1630934760546,7.04
1630934760562,5.75
1630934760578,4.65
1630934760593,3.8
1630934760609,3.08
1630934760625,2.35
1630934760640,1.49
1630934760656,0.45
1630934760671,-0.7
1630934760687,-1.87
1630934760703,-2.97
1630934760718,-4.01
1630934760734,-5.04
1630934760750,-6.14
1630934760765,-7.42
1630934760781,-8.89
1630934760796,-10.55
1630934760812,-12.26
1630934760828,-13.81
1630934760843,-14.88
1630934760859,-15.16
1630934760875,-14.4
1630934760890,-12.6
1630934760906,-9.92
1630934760921,-6.74
1630934760937,-3.43
1630934760953,-0.29
1630934760968,2.57
1630934760984,5.14
1630934761000,7.48
1630934761015,9.51
1630934761031,11.15
1630934761046,12.25
1630934761062,12.79
1630934761078,12.86
1630934761093,12.62
1630934761109,12.21
1630934761125,11.65
1630934761140,10.91
1630934761156,9.91
1630934761171,8.69
1630934761187,7.38
1630934761203,6.19
1630934761218,5.34
1630934761234,4.9
1630934761250,4.76
1630934761265,4.69
1630934761281,4.41
1630934761296,3.7
1630934761312,2.47
1630934761328,0.8
1630934761343,-1.11
1630934761359,-3.0
1630934761375,-4.66
1630934761390,-6.0
1630934761406,-7.05
1630934761421,-7.94
1630934761437,-8.83
1630934761453,-9.88
1630934761468,-11.17
1630934761484,-12.69
1630934761500,-14.35
1630934761515,-15.97
1630934761531,-17.26
1630934761546,-17.9
1630934761562,-17.57
