timestamp,bvp
1630678967000,10.36
1630678967015,8.79
1630678967031,7.23
1630678967046,5.71
1630678967062,4.28
1630678967078,3.0
1630678967093,1.99
1630678967109,1.41
1630678967125,1.49
1630678967140,2.43
1630678967156,4.4
1630678967171,7.37
1630678967187,11.19
1630678967203,15.56
1630678967218,20.15
1630678967234,24.67
1630678967250,28.91
1630678967265,32.76
1630678967281,36.1
1630678967296,38.86
1630678967312,40.92
1630678967328,42.14
1630678967343,42.39
1630678967359,41.57
1630678967375,39.71
1630678967390,36.97
1630678967406,33.65
1630678967421,30.14
1630678967437,26.82
1630678967453,23.88
1630678967468,21.34
1630678967484,19.12
1630678967500,17.05
1630678967515,15.04
1630678967531,13.03
1630678967546,10.99
1630678967562,8.91
1630678967578,6.73
1630678967593,4.45
1630678967609,2.17
1630678967625,0.09
1630678967640,-1.58
1630678967656,-2.71
1630678967671,-3.33
1630678967687,-3.66
1630678967703,-4.0
1630678967718,-4.67
1630678967734,-5.9
1630678967750,-7.78
1630678967765,-10.23
1630678967781,-13.07
1630678967796,-16.0
1630678967812,-18.65
1630678967828,-20.64
1630678967843,-21.65
1630678967859,-21.52
1630678967875,-20.33
1630678967890,-18.4
1630678967906,-16.23
1630678967921,-14.33
1630678967937,-13.07
1630678967953,-12.51
1630678967968,-12.51
1630678967984,-12.74
1630678968000,-12.97
1630678968015,-13.09
1630678968031,-13.16
1630678968046,-13.31
1630678968062,-13.63
1630678968078,-14.08
1630678968093,-14.53
1630678968109,-14.85
1630678968125,-15.0
1630678968140,-15.07
1630678968156,-15.19
1630678968171,-15.5
1630678968187,-15.97
1630678968203,-16.5
1630678968218,-16.96
1630678968234,-17.34
1630678968250,-17.81
1630678968265,-18.65
1630678968281,-20.15
1630678968296,-22.44
1630678968312,-25.32
1630678968328,-28.32
1630678968343,-30.79
1630678968359,-32.19
1630678968375,-32.31
1630678968390,-31.32
1630678968406,-29.74
1630678968421,-28.16
1630678968437,-27.07
1630678968453,-26.63
1630678968468,-26.66
1630678968484,-26.75
1630678968500,-26.38
1630678968515,-25.03
1630678968531,-22.31
1630678968546,-17.98
1630678968562,-12.02
1630678968578,-4.71
1630678968593,3.45
1630678968609,11.77
1630678968625,19.54
1630678968640,26.19
1630678968656,31.4
1630678968671,35.12
1630678968687,37.52
1630678968703,38.82
1630678968718,39.24
1630678968734,38.97
1630678968750,38.14
1630678968765,36.9
1630678968781,35.4
1630678968796,33.79
1630678968812,32.18
1630678968828,30.63
1630678968843,29.15
1630678968859,27.72
1630678968875,26.34
1630678968890,25.01
1630678968906,23.78
1630678968921,22.66
1630678968937,21.62
1630678968953,20.58
1630678968968,19.47
1630678968984,18.21
1630678969000,16.84
1630678969015,15.47
1630678969031,14.23
1630678969046,13.12
1630678969062,12.0
1630678969078,10.56
1630678969093,8.43
1630678969109,5.35
1630678969125,1.33
1630678969140,-3.35
1630678969156,-8.17
1630678969171,-12.52
1630678969187,-15.92
1630678969203,-18.05
1630678969218,-18.89
1630678969234,-18.71
1630678969250,-17.98
1630678969265,-17.31
1630678969281,-17.22
1630678969296,-18.08
1630678969312,-19.98
1630678969328,-22.72
1630678969343,-25.92
1630678969359,-29.14
1630678969375,-31.97
1630678969390,-34.16
1630678969406,-35.6
1630678969421,-36.39
1630678969437,-36.77
1630678969453,-37.1
1630678969468,-37.7
1630678969484,-38.7
1630678969500,-39.97
1630678969515,-41.1
1630678969531,-41.63
1630678969546,-41.25
1630678969562,-40.03
1630678969578,-38.39
1630678969593,-37.02
1630678969609,-36.6
1630678969625,-37.59
1630678969640,-40.1
1630678969656,-43.76
1630678969671,-47.85
1630678969687,-51.34
1630678969703,-53.19
1630678969718,-52.57
1630678969734,-49.12
1630678969750,-43.02
1630678969765,-34.92
1630678969781,-25.7
1630678969796,-16.19
1630678969812,-6.97
1630678969828,1.63
1630678969843,9.42
1630678969859,16.26
1630678969875,22.01
1630678969890,26.58
1630678969906,30.04
1630678969921,32.71
1630678969937,34.98
1630678969953,37.22
1630678969968,39.59
1630678969984,41.93
1630678970000,43.9
1630678970015,45.12
1630678970031,45.4
1630678970046,44.81
1630678970062,43.57
1630678970078,42.0
1630678970093,40.28
1630678970109,38.5
1630678970125,36.67
1630678970140,34.78
1630678970156,32.91
1630678970171,31.14
1630678970187,29.54
1630678970203,28.09
1630678970218,26.71
1630678970234,25.36
1630678970250,24.07
1630678970265,22.96
1630678970281,22.17
1630678970296,21.67
1630678970312,21.23
1630678970328,20.43
1630678970343,18.73
1630678970359,15.68
1630678970375,11.05
1630678970390,4.95
1630678970406,-2.14
1630678970421,-9.42
1630678970437,-15.98
1630678970453,-21.03
1630678970468,-24.19
1630678970484,-25.6
1630678970500,-25.9
1630678970515,-26.0
1630678970531,-26.8
1630678970546,-28.82
1630678970562,-32.06
1630678970578,-36.05
1630678970593,-39.94
1630678970609,-42.76
1630678970625,-43.62
1630678970640,-41.93
1630678970656,-37.55
1630678970671,-30.79
1630678970687,-22.44
1630678970703,-13.5
1630678970718,-5.01
1630678970734,2.25
1630678970750,7.87
1630678970765,11.87
1630678970781,14.61
1630678970796,16.55
1630678970812,18.12
1630678970828,19.59
1630678970843,21.09
1630678970859,22.65
1630678970875,24.32
1630678970890,26.12
1630678970906,27.92
1630678970921,29.43
1630678970937,30.15
1630678970953,29.51
1630678970968,27.07
1630678970984,22.74
1630678971000,16.75
1630678971015,9.66
1630678971031,2.1
1630678971046,-5.35
1630678971062,-12.24
1630678971078,-18.21
1630678971093,-22.88
1630678971109,-25.83
1630678971125,-26.66
1630678971140,-25.16
1630678971156,-21.44
1630678971171,-16.05
1630678971187,-9.85
1630678971203,-3.87
1630678971218,1.02
1630678971234,4.37
1630678971250,6.23
1630678971265,7.06
1630678971281,7.47
1630678971296,8.0
1630678971312,8.88
1630678971328,10.08
1630678971343,11.4
1630678971359,12.68
1630678971375,13.91
1630678971390,15.31
1630678971406,17.28
1630678971421,20.25
1630678971437,24.59
1630678971453,30.43
1630678971468,37.53
1630678971484,45.2
1630678971500,52.41
1630678971515,57.9
1630678971531,60.55
1630678971546,59.68
1630678971562,55.26
1630678971578,47.87
1630678971593,38.48
1630678971609,28.08
1630678971625,17.36
1630678971640,6.64
1630678971656,-4.05
1630678971671,-14.7
1630678971687,-25.04
1630678971703,-34.44
1630678971718,-42.03
1630678971734,-46.89
1630678971750,-48.35
1630678971765,-46.21
1630678971781,-40.8
1630678971796,-32.9
1630678971812,-23.54
1630678971828,-13.82
1630678971843,-4.71
1630678971859,3.09
1630678971875,9.23
1630678971890,13.7
1630678971906,16.84
1630678971921,19.12
1630678971937,21.04
1630678971953,23.0
1630678971968,25.24
1630678971984,27.87
1630678972000,30.89
1630678972015,34.17
1630678972031,37.43
1630678972046,40.16
1630678972062,41.7
1630678972078,41.45
1630678972093,39.11
1630678972109,34.86
1630678972125,29.4
1630678972140,23.73
1630678972156,18.8
1630678972171,15.2
1630678972187,13.06
1630678972203,12.11
1630678972218,11.85
1630678972234,11.82
1630678972250,11.73
1630678972265,11.53
1630678972281,11.33
1630678972296,11.4
1630678972312,12.0
1630678972328,13.43
1630678972343,15.8
1630678972359,19.0
1630678972375,22.44
1630678972390,25.07
1630678972406,25.47
1630678972421,22.3
1630678972437,14.75
1630678972453,3.06
1630678972468,-11.46
1630678972484,-26.75
1630678972500,-40.69
1630678972515,-51.77
1630678972531,-59.43
1630678972546,-64.01
1630678972562,-66.31
1630678972578,-67.08
1630678972593,-66.74
1630678972609,-65.38
1630678972625,-62.92
1630678972640,-59.36
1630678972656,-54.83
1630678972671,-49.51
1630678972687,-43.51
1630678972703,-36.8
1630678972718,-29.31
1630678972734,-21.07
1630678972750,-12.35
1630678972765,-3.66
1630678972781,4.36
1630678972796,11.17
1630678972812,16.52
1630678972828,20.47
1630678972843,23.32
1630678972859,25.44
1630678972875,27.01
1630678972890,28.03
1630678972906,28.29
1630678972921,27.54
1630678972937,25.65
1630678972953,22.67
1630678972968,18.92
1630678972984,14.8
1630678973000,10.72
1630678973015,6.92
1630678973031,3.39
1630678973046,-0.03
1630678973062,-3.62
1630678973078,-7.59
1630678973093,-11.97
1630678973109,-16.61
1630678973125,-21.25
1630678973140,-25.64
1630678973156,-29.59
1630678973171,-33.03
1630678973187,-35.93
1630678973203,-38.33
1630678973218,-40.33
1630678973234,-42.14
1630678973250,-44.08
1630678973265,-46.43
1630678973281,-49.3
1630678973296,-52.51
1630678973312,-55.63
1630678973328,-58.23
1630678973343,-60.17
1630678973359,-61.69
1630678973375,-63.25
1630678973390,-65.12
1630678973406,-67.0
1630678973421,-67.95
1630678973437,-66.71
1630678973453,-62.35
1630678973468,-54.75
1630678973484,-44.77
1630678973500,-33.84
1630678973515,-23.37
1630678973531,-14.16
1630678973546,-6.25
1630678973562,0.78
1630678973578,7.36
1630678973593,13.49
1630678973609,18.74
1630678973625,22.49
1630678973640,24.36
1630678973656,24.5
1630678973671,23.54
1630678973687,22.32
1630678973703,21.48
1630678973718,21.26
1630678973734,21.42
1630678973750,21.47
1630678973765,20.98
1630678973781,19.75
1630678973796,17.92
1630678973812,15.84
1630678973828,13.93
1630678973843,12.47
1630678973859,11.56
1630678973875,11.17
1630678973890,11.16
1630678973906,11.43
1630678973921,11.93
1630678973937,12.62
1630678973953,13.43
1630678973968,14.27
1630678973984,14.97
1630678974000,15.36
1630678974015,15.27
1630678974031,14.65
1630678974046,13.51
1630678974062,11.99
1630678974078,10.29
1630678974093,8.66
1630678974109,7.26
1630678974125,6.24
1630678974140,5.59
1630678974156,5.22
1630678974171,4.96
1630678974187,4.63
1630678974203,4.15
1630678974218,3.57
1630678974234,3.11
1630678974250,2.99
1630678974265,3.34
1630678974281,4.08
1630678974296,4.94
1630678974312,5.6
1630678974328,5.83
1630678974343,5.65
1630678974359,5.27
1630678974375,4.98
1630678974390,5.0
1630678974406,5.32
1630678974421,5.72
1630678974437,5.9
1630678974453,5.63
1630678974468,4.89
1630678974484,3.89
1630678974500,3.07
1630678974515,2.9
1630678974531,3.74
1630678974546,5.71
1630678974562,8.64
1630678974578,12.13
1630678974593,15.62
1630678974609,18.63
1630678974625,20.85
1630678974640,22.2
1630678974656,22.79
1630678974671,22.88
1630678974687,22.73
1630678974703,22.57
1630678974718,22.52
1630678974734,22.59
1630678974750,22.75
1630678974765,22.86
1630678974781,22.82
1630678974796,22.5
1630678974812,21.88
1630678974828,20.94
1630678974843,19.7
1630678974859,18.06
1630678974875,15.79
1630678974890,12.57
1630678974906,8.12
1630678974921,2.34
1630678974937,-4.51
1630678974953,-11.82
1630678974968,-18.75
1630678974984,-24.42
1630678975000,-28.15
1630678975015,-29.62
1630678975031,-28.93
1630678975046,-26.64
1630678975062,-23.58
1630678975078,-20.67
1630678975093,-18.64
1630678975109,-17.78
1630678975125,-17.89
1630678975140,-18.38
1630678975156,-18.59
1630678975171,-18.08
1630678975187,-16.77
1630678975203,-14.93
1630678975218,-12.96
1630678975234,-11.19
1630678975250,-9.76
1630678975265,-8.66
1630678975281,-7.82
1630678975296,-7.21
1630678975312,-6.82
1630678975328,-6.62
1630678975343,-6.52
1630678975359,-6.35
1630678975375,-5.9
1630678975390,-5.0
1630678975406,-3.6
1630678975421,-1.8
1630678975437,0.17
1630678975453,1.99
1630678975468,3.38
1630678975484,4.22
1630678975500,4.56
1630678975515,4.6
1630678975531,4.61
1630678975546,4.73
1630678975562,4.98
1630678975578,5.25
1630678975593,5.37
1630678975609,5.19
1630678975625,4.67
1630678975640,3.85
1630678975656,2.83
1630678975671,1.74
1630678975687,0.72
1630678975703,-0.05
1630678975718,-0.43
1630678975734,-0.32
1630678975750,0.33
1630678975765,1.45
1630678975781,2.89
1630678975796,4.47
1630678975812,5.98
1630678975828,7.22
1630678975843,8.01
1630678975859,8.23
1630678975875,7.85
1630678975890,6.94
1630678975906,5.67
1630678975921,4.3
1630678975937,3.07
1630678975953,2.21
1630678975968,1.89
1630678975984,2.18
1630678976000,3.05
1630678976015,4.33
1630678976031,5.71
1630678976046,6.81
1630678976062,7.33
1630678976078,7.16
1630678976093,6.44
1630678976109,5.47
1630678976125,4.58
1630678976140,3.95
1630678976156,3.54
1630678976171,3.15
1630678976187,2.58
1630678976203,1.73
1630678976218,0.7
1630678976234,-0.33
1630678976250,-1.14
1630678976265,-1.66
1630678976281,-1.92
1630678976296,-2.04
1630678976312,-2.11
1630678976328,-2.17
1630678976343,-2.2
1630678976359,-2.11
1630678976375,-1.83
1630678976390,-1.28
1630678976406,-0.33
1630678976421,1.12
1630678976437,3.11
1630678976453,5.53
1630678976468,8.09
1630678976484,10.32
1630678976500,11.75
1630678976515,12.01
1630678976531,11.03
1630678976546,8.98
1630678976562,6.23
1630678976578,3.21
1630678976593,0.36
1630678976609,-1.91
1630678976625,-3.31
1630678976640,-3.61
1630678976656,-2.75
1630678976671,-0.87
1630678976687,1.72
1630678976703,4.57
1630678976718,7.27
1630678976734,9.51
1630678976750,11.18
1630678976765,12.35
1630678976781,13.17
1630678976796,13.84
1630678976812,14.52
1630678976828,15.3
1630678976843,16.2
1630678976859,17.15
1630678976875,18.04
1630678976890,18.72
1630678976906,19.11
1630678976921,19.25
1630678976937,19.26
1630678976953,19.27
1630678976968,19.33
1630678976984,19.35
1630678977000,19.14
1630678977015,18.5
1630678977031,17.31
1630678977046,15.62
1630678977062,13.61
1630678977078,11.5
1630678977093,9.49
1630678977109,7.7
1630678977125,6.24
1630678977140,5.19
1630678977156,4.7
1630678977171,4.82
1630678977187,5.55
1630678977203,6.65
1630678977218,7.79
1630678977234,8.57
1630678977250,8.73
1630678977265,8.21
1630678977281,7.18
1630678977296,5.92
1630678977312,4.7
1630678977328,3.62
1630678977343,2.64
1630678977359,1.62
1630678977375,0.45
1630678977390,-0.88
1630678977406,-2.25
1630678977421,-3.56
1630678977437,-4.74
1630678977453,-5.91
1630678977468,-7.31
1630678977484,-9.22
1630678977500,-11.84
1630678977515,-15.2
1630678977531,-19.05
1630678977546,-22.95
1630678977562,-26.32
1630678977578,-28.59
1630678977593,-29.44
1630678977609,-28.83
1630678977625,-27.07
1630678977640,-24.69
1630678977656,-22.31
1630678977671,-20.45
1630678977687,-19.34
1630678977703,-18.92
1630678977718,-18.92
1630678977734,-18.99
1630678977750,-18.85
1630678977765,-18.38
1630678977781,-17.61
1630678977796,-16.7
1630678977812,-15.78
1630678977828,-14.96
1630678977843,-14.26
1630678977859,-13.69
1630678977875,-13.22
1630678977890,-12.83
1630678977906,-12.49
1630678977921,-12.17
1630678977937,-11.83
1630678977953,-11.48
1630678977968,-11.18
1630678977984,-10.96
1630678978000,-10.84
1630678978015,-10.71
1630678978031,-10.44
1630678978046,-9.93
1630678978062,-9.22
1630678978078,-8.52
1630678978093,-8.11
1630678978109,-8.15
1630678978125,-8.58
1630678978140,-9.16
1630678978156,-9.56
1630678978171,-9.59
1630678978187,-9.25
1630678978203,-8.67
1630678978218,-8.03
1630678978234,-7.35
1630678978250,-6.53
1630678978265,-5.45
1630678978281,-4.13
1630678978296,-2.77
1630678978312,-1.74
1630678978328,-1.37
1630678978343,-1.78
1630678978359,-2.86
1630678978375,-4.31
1630678978390,-5.74
1630678978406,-6.78
1630678978421,-7.16
1630678978437,-6.75
1630678978453,-5.55
1630678978468,-3.73
1630678978484,-1.54
1630678978500,0.74
1630678978515,2.91
1630678978531,4.86
1630678978546,6.61
1630678978562,8.12
1630678978578,9.33
1630678978593,10.12
1630678978609,10.38
1630678978625,10.17
1630678978640,9.68
1630678978656,9.21
1630678978671,8.96
1630678978687,9.02
1630678978703,9.31
1630678978718,9.66
1630678978734,9.93
1630678978750,10.1
1630678978765,10.2
1630678978781,10.28
1630678978796,10.31
1630678978812,10.24
1630678978828,9.99
1630678978843,9.57
1630678978859,9.04
1630678978875,8.51
1630678978890,8.03
1630678978906,7.59
1630678978921,7.14
1630678978937,6.68
1630678978953,6.26
1630678978968,5.99
1630678978984,5.97
1630678979000,6.2
1630678979015,6.58
1630678979031,6.96
1630678979046,7.18
1630678979062,7.18
1630678979078,6.94
1630678979093,6.54
1630678979109,6.09
1630678979125,5.77
1630678979140,5.8
1630678979156,6.4
1630678979171,7.69
1630678979187,9.56
1630678979203,11.68
1630678979218,13.6
1630678979234,14.96
1630678979250,15.67
1630678979265,15.98
1630678979281,16.35
1630678979296,17.22
1630678979312,18.86
1630678979328,21.21
1630678979343,23.98
1630678979359,26.8
1630678979375,29.39
1630678979390,31.58
1630678979406,33.35
1630678979421,34.71
1630678979437,35.71
1630678979453,36.38
1630678979468,36.79
1630678979484,36.98
1630678979500,36.91
1630678979515,36.44
1630678979531,35.34
1630678979546,33.32
1630678979562,30.27
1630678979578,26.27
1630678979593,21.71
1630678979609,17.13
1630678979625,13.09
1630678979640,9.97
1630678979656,7.91
1630678979671,6.82
1630678979687,6.4
1630678979703,6.34
1630678979718,6.33
1630678979734,6.12
1630678979750,5.51
1630678979765,4.36
1630678979781,2.56
1630678979796,0.05
1630678979812,-3.15
1630678979828,-7.0
1630678979843,-11.53
1630678979859,-16.79
1630678979875,-22.91
1630678979890,-29.95
1630678979906,-37.8
1630678979921,-46.14
1630678979937,-54.45
1630678979953,-62.12
1630678979968,-68.62
1630678979984,-73.59
1630678980000,-76.85
1630678980015,-78.41
1630678980031,-78.31
1630678980046,-76.61
1630678980062,-73.4
1630678980078,-68.81
1630678980093,-63.12
1630678980109,-56.71
1630678980125,-50.0
1630678980140,-43.36
1630678980156,-36.98
1630678980171,-30.86
1630678980187,-24.85
1630678980203,-18.85
1630678980218,-12.88
1630678980234,-7.15
1630678980250,-1.98
1630678980265,2.33
1630678980281,5.63
1630678980296,7.94
1630678980312,9.42
1630678980328,10.27
1630678980343,10.69
1630678980359,10.82
1630678980375,10.82
1630678980390,10.85
1630678980406,11.05
1630678980421,11.52
1630678980437,12.24
1630678980453,13.11
1630678980468,13.95
1630678980484,14.59
1630678980500,14.9
1630678980515,14.85
1630678980531,14.44
1630678980546,13.73
1630678980562,12.81
1630678980578,11.76
1630678980593,10.66
1630678980609,9.61
1630678980625,8.68
1630678980640,7.89
1630678980656,7.25
1630678980671,6.7
1630678980687,6.11
1630678980703,5.34
1630678980718,4.26
1630678980734,2.81
1630678980750,1.06
1630678980765,-0.78
1630678980781,-2.39
1630678980796,-3.47
1630678980812,-3.83
1630678980828,-3.47
1630678980843,-2.52
1630678980859,-1.23
1630678980875,0.18
1630678980890,1.56
1630678980906,2.89
1630678980921,4.21
1630678980937,5.6
1630678980953,7.16
1630678980968,8.93
1630678980984,10.89
1630678981000,12.94
1630678981015,14.89
1630678981031,16.51
1630678981046,17.64
1630678981062,18.19
1630678981078,18.29
1630678981093,18.12
1630678981109,17.95
1630678981125,18.0
1630678981140,18.41
1630678981156,19.26
1630678981171,20.5
1630678981187,21.99
1630678981203,23.48
1630678981218,24.69
1630678981234,25.34
1630678981250,25.3
1630678981265,24.61
1630678981281,23.52
1630678981296,22.33
1630678981312,21.27
1630678981328,20.46
1630678981343,19.86
1630678981359,19.34
1630678981375,18.85
1630678981390,18.37
1630678981406,18.0
1630678981421,17.81
1630678981437,17.79
1630678981453,17.87
1630678981468,17.9
1630678981484,17.82
1630678981500,17.61
1630678981515,17.32
1630678981531,17.03
1630678981546,16.72
1630678981562,16.24
1630678981578,15.36
1630678981593,13.89
1630678981609,11.76
1630678981625,9.13
1630678981640,6.39
1630678981656,4.02
1630678981671,2.45
1630678981687,1.91
1630678981703,2.36
1630678981718,3.49
1630678981734,4.83
1630678981750,5.87
1630678981765,6.24
1630678981781,5.8
1630678981796,4.66
1630678981812,3.12
1630678981828,1.52
1630678981843,0.1
1630678981859,-1.1
1630678981875,-2.3
1630678981890,-3.85
1630678981906,-6.09
1630678981921,-9.21
1630678981937,-13.17
1630678981953,-17.74
1630678981968,-22.64
1630678981984,-27.58
1630678982000,-32.42
1630678982015,-37.2
1630678982031,-42.14
1630678982046,-47.66
1630678982062,-54.3
1630678982078,-62.6
1630678982093,-72.89
1630678982109,-84.96
1630678982125,-97.78
1630678982140,-109.49
1630678982156,-117.81
1630678982171,-120.79
1630678982187,-117.59
1630678982203,-108.9
1630678982218,-96.75
1630678982234,-83.63
1630678982250,-71.56
1630678982265,-61.41
1630678982281,-52.92
1630678982296,-45.29
1630678982312,-37.82
1630678982328,-30.42
1630678982343,-23.42
1630678982359,-17.18
1630678982375,-11.68
1630678982390,-6.46
1630678982406,-0.91
1630678982421,5.32
1630678982437,11.98
1630678982453,18.36
1630678982468,23.63
1630678982484,27.26
1630678982500,29.2
1630678982515,29.93
1630678982531,30.08
1630678982546,30.2
1630678982562,30.56
1630678982578,31.12
1630678982593,31.74
1630678982609,32.34
1630678982625,32.95
1630678982640,33.7
1630678982656,34.64
1630678982671,35.67
1630678982687,36.53
1630678982703,36.94
1630678982718,36.81
1630678982734,36.27
1630678982750,35.68
1630678982765,35.42
1630678982781,35.71
1630678982796,36.55
1630678982812,37.75
1630678982828,39.03
1630678982843,40.17
1630678982859,41.12
1630678982875,42.0
1630678982890,43.02
1630678982906,44.43
1630678982921,46.39
1630678982937,48.86
1630678982953,51.66
1630678982968,54.44
1630678982984,56.75
1630678983000,58.18
1630678983015,58.46
1630678983031,57.52
1630678983046,55.55
1630678983062,52.91
1630678983078,50.03
1630678983093,47.26
1630678983109,44.76
1630678983125,42.41
1630678983140,39.82
1630678983156,36.5
1630678983171,32.05
1630678983187,26.36
1630678983203,19.72
1630678983218,12.73
1630678983234,6.08
1630678983250,0.33
1630678983265,-4.28
1630678983281,-7.79
1630678983296,-10.43
1630678983312,-12.42
1630678983328,-13.9
1630678983343,-15.03
1630678983359,-16.01
1630678983375,-17.15
1630678983390,-18.83
1630678983406,-21.34
1630678983421,-24.78
1630678983437,-28.98
1630678983453,-33.64
1630678983468,-38.49
1630678983484,-43.42
1630678983500,-48.55
1630678983515,-54.11
1630678983531,-60.3
1630678983546,-67.14
1630678983562,-74.44
1630678983578,-81.85
1630678983593,-88.9
1630678983609,-95.13
1630678983625,-100.09
1630678983640,-103.3
1630678983656,-104.4
1630678983671,-103.2
1630678983687,-99.81
1630678983703,-94.6
1630678983718,-88.12
1630678983734,-80.78
1630678983750,-72.71
1630678983765,-63.74
1630678983781,-53.58
1630678983796,-42.16
1630678983812,-29.84
1630678983828,-17.47
1630678983843,-6.08
1630678983859,3.45
1630678983875,10.76
1630678983890,16.01
1630678983906,19.75
1630678983921,22.63
1630678983937,25.08
1630678983953,27.2
1630678983968,28.82
1630678983984,29.71
1630678984000,29.73
1630678984015,29.01
1630678984031,27.93
1630678984046,27.04
1630678984062,26.9
1630678984078,27.94
1630678984093,30.34
1630678984109,33.95
1630678984125,38.3
1630678984140,42.78
1630678984156,46.73
1630678984171,49.7
1630678984187,51.59
1630678984203,52.67
1630678984218,53.45
1630678984234,54.47
1630678984250,56.07
1630678984265,58.27
1630678984281,60.84
1630678984296,63.43
1630678984312,65.7
1630678984328,67.4
1630678984343,68.36
1630678984359,68.42
1630678984375,67.51
1630678984390,65.62
1630678984406,62.92
1630678984421,59.67
1630678984437,56.18
1630678984453,52.65
1630678984468,49.15
1630678984484,45.65
1630678984500,42.17
1630678984515,38.78
1630678984531,35.6
1630678984546,32.69
1630678984562,29.92
1630678984578,27.01
1630678984593,23.66
1630678984609,19.72
1630678984625,15.33
1630678984640,10.84
1630678984656,6.68
1630678984671,3.14
1630678984687,0.25
1630678984703,-2.22
1630678984718,-4.61
1630678984734,-7.22
1630678984750,-10.19
1630678984765,-13.36
1630678984781,-16.35
1630678984796,-18.63
1630678984812,-19.76
1630678984828,-19.5
1630678984843,-17.99
1630678984859,-15.75
1630678984875,-13.48
1630678984890,-11.8
1630678984906,-11.12
1630678984921,-11.53
1630678984937,-12.95
1630678984953,-15.32
1630678984968,-18.77
1630678984984,-23.57
1630678985000,-29.94
1630678985015,-37.86
1630678985031,-46.93
1630678985046,-56.47
1630678985062,-65.75
1630678985078,-74.24
1630678985093,-81.72
1630678985109,-88.2
1630678985125,-93.78
1630678985140,-98.51
1630678985156,-102.34
1630678985171,-105.25
1630678985187,-107.27
1630678985203,-108.45
1630678985218,-108.76
1630678985234,-107.98
1630678985250,-105.7
1630678985265,-101.58
1630678985281,-95.59
1630678985296,-88.14
1630678985312,-79.95
1630678985328,-71.72
1630678985343,-63.71
1630678985359,-55.65
1630678985375,-46.82
1630678985390,-36.52
1630678985406,-24.53
1630678985421,-11.29
1630678985437,2.19
1630678985453,14.71
1630678985468,25.33
1630678985484,33.64
1630678985500,39.75
1630678985515,44.07
1630678985531,47.0
1630678985546,48.81
1630678985562,49.56
1630678985578,49.31
1630678985593,48.26
1630678985609,46.81
1630678985625,45.49
1630678985640,44.75
1630678985656,44.81
1630678985671,45.52
1630678985687,46.45
1630678985703,47.03
1630678985718,46.8
1630678985734,45.55
1630678985750,43.51
1630678985765,41.25
1630678985781,39.55
1630678985796,39.07
1630678985812,40.18
1630678985828,42.72
1630678985843,46.15
1630678985859,49.72
1630678985875,52.77
1630678985890,54.91
1630678985906,56.03
1630678985921,56.25
1630678985937,55.71
1630678985953,54.45
1630678985968,52.41
1630678985984,49.49
1630678986000,45.68
1630678986015,41.11
1630678986031,36.01
1630678986046,30.7
1630678986062,25.49
1630678986078,20.61
1630678986093,16.2
1630678986109,12.35
1630678986125,9.16
1630678986140,6.68
1630678986156,4.93
1630678986171,3.74
1630678986187,2.76
1630678986203,1.51
1630678986218,-0.43
1630678986234,-3.27
1630678986250,-6.91
1630678986265,-10.99
1630678986281,-15.08
1630678986296,-18.86
1630678986312,-22.25
1630678986328,-25.44
1630678986343,-28.82
1630678986359,-32.77
1630678986375,-37.63
1630678986390,-43.51
1630678986406,-50.32
1630678986421,-57.73
1630678986437,-65.22
1630678986453,-72.17
1630678986468,-77.98
1630678986484,-82.2
1630678986500,-84.72
1630678986515,-85.7
1630678986531,-85.61
1630678986546,-84.98
1630678986562,-84.18
1630678986578,-83.24
1630678986593,-81.84
1630678986609,-79.39
1630678986625,-75.38
1630678986640,-69.65
1630678986656,-62.5
1630678986671,-54.62
1630678986687,-46.73
1630678986703,-39.32
1630678986718,-32.38
1630678986734,-25.6
1630678986750,-18.55
1630678986765,-11.07
1630678986781,-3.38
1630678986796,3.96
1630678986812,10.36
1630678986828,15.39
1630678986843,18.94
1630678986859,21.19
1630678986875,22.37
1630678986890,22.73
1630678986906,22.44
1630678986921,21.71
1630678986937,20.84
1630678986953,20.17
1630678986968,20.02
1630678986984,20.53
1630678987000,21.56
1630678987015,22.83
1630678987031,24.0
1630678987046,24.87
1630678987062,25.39
1630678987078,25.67
1630678987093,25.85
1630678987109,26.0
1630678987125,26.06
1630678987140,25.86
1630678987156,25.22
1630678987171,23.98
1630678987187,22.13
1630678987203,19.73
1630678987218,16.96
1630678987234,14.1
1630678987250,11.46
1630678987265,9.4
1630678987281,8.2
1630678987296,8.06
1630678987312,8.95
1630678987328,10.64
1630678987343,12.73
1630678987359,14.78
1630678987375,16.45
1630678987390,17.62
1630678987406,18.38
1630678987421,18.92
1630678987437,19.43
1630678987453,19.95
1630678987468,20.45
1630678987484,20.87
1630678987500,21.2
1630678987515,21.54
1630678987531,22.0
1630678987546,22.61
1630678987562,23.29
1630678987578,23.87
1630678987593,24.22
1630678987609,24.45
1630678987625,24.89
1630678987640,26.04
1630678987656,28.27
1630678987671,31.62
1630678987687,35.67
1630678987703,39.72
1630678987718,43.09
1630678987734,45.47
1630678987750,47.04
1630678987765,48.38
1630678987781,50.12
1630678987796,52.6
1630678987812,55.71
1630678987828,58.94
1630678987843,61.7
1630678987859,63.58
1630678987875,64.58
1630678987890,65.01
1630678987906,65.24
1630678987921,65.5
1630678987937,65.69
1630678987953,65.47
1630678987968,64.4
1630678987984,62.12
1630678988000,58.44
1630678988015,53.3
1630678988031,46.67
1630678988046,38.61
1630678988062,29.28
1630678988078,19.09
1630678988093,8.68
1630678988109,-1.06
1630678988125,-9.3
1630678988140,-15.43
1630678988156,-19.27
1630678988171,-21.06
1630678988187,-21.35
1630678988203,-20.8
1630678988218,-20.05
1630678988234,-19.57
1630678988250,-19.69
1630678988265,-20.67
1630678988281,-22.75
1630678988296,-26.13
1630678988312,-30.87
1630678988328,-36.77
1630678988343,-43.26
1630678988359,-49.51
1630678988375,-54.56
1630678988390,-57.68
1630678988406,-58.59
1630678988421,-57.48
1630678988437,-54.9
1630678988453,-51.51
1630678988468,-47.74
1630678988484,-43.81
1630678988500,-39.73
1630678988515,-35.47
1630678988531,-31.17
1630678988546,-27.15
1630678988562,-23.75
1630678988578,-21.23
1630678988593,-19.6
1630678988609,-18.62
1630678988625,-17.93
1630678988640,-17.2
1630678988656,-16.3
1630678988671,-15.3
1630678988687,-14.39
1630678988703,-13.76
1630678988718,-13.47
1630678988734,-13.48
1630678988750,-13.69
1630678988765,-14.06
1630678988781,-14.64
1630678988796,-15.56
1630678988812,-16.98
1630678988828,-19.0
1630678988843,-21.76
1630678988859,-25.33
1630678988875,-29.73
1630678988890,-34.82
1630678988906,-40.22
1630678988921,-45.37
1630678988937,-49.7
1630678988953,-52.91
1630678988968,-55.06
1630678988984,-56.62
1630678989000,-58.24
1630678989015,-60.46
1630678989031,-63.5
1630678989046,-67.18
1630678989062,-70.97
1630678989078,-74.14
1630678989093,-75.91
1630678989109,-75.58
1630678989125,-72.8
1630678989140,-67.64
1630678989156,-60.71
1630678989171,-52.99
1630678989187,-45.49
1630678989203,-38.88
1630678989218,-33.18
1630678989234,-27.86
1630678989250,-22.08
1630678989265,-15.2
1630678989281,-7.11
1630678989296,1.66
1630678989312,10.13
1630678989328,17.3
1630678989343,22.53
1630678989359,25.68
1630678989375,27.14
1630678989390,27.54
1630678989406,27.55
1630678989421,27.65
1630678989437,28.13
1630678989453,29.06
1630678989468,30.42
1630678989484,32.08
1630678989500,33.83
1630678989515,35.36
1630678989531,36.34
1630678989546,36.51
1630678989562,35.81
1630678989578,34.4
1630678989593,32.65
1630678989609,30.96
1630678989625,29.62
1630678989640,28.68
1630678989656,27.92
1630678989671,27.03
1630678989687,25.78
1630678989703,24.12
1630678989718,22.27
1630678989734,20.59
1630678989750,19.38
1630678989765,18.83
1630678989781,18.9
1630678989796,19.42
1630678989812,20.19
1630678989828,21.0
1630678989843,21.72
1630678989859,22.28
1630678989875,22.66
1630678989890,22.91
1630678989906,23.15
1630678989921,23.5
1630678989937,24.08
1630678989953,24.89
1630678989968,25.86
1630678989984,26.89
1630678990000,27.92
1630678990015,28.97
1630678990031,30.11
1630678990046,31.43
1630678990062,32.94
1630678990078,34.63
1630678990093,36.44
1630678990109,38.32
1630678990125,40.28
1630678990140,42.34
1630678990156,44.58
1630678990171,47.1
1630678990187,50.02
1630678990203,53.39
1630678990218,57.13
1630678990234,60.99
1630678990250,64.51
1630678990265,67.17
1630678990281,68.47
1630678990296,68.1
1630678990312,65.98
1630678990328,62.29
1630678990343,57.31
1630678990359,51.4
1630678990375,44.86
1630678990390,37.89
1630678990406,30.6
1630678990421,23.01
1630678990437,15.14
1630678990453,7.11
1630678990468,-0.84
1630678990484,-8.25
1630678990500,-14.57
1630678990515,-19.24
1630678990531,-21.89
1630678990546,-22.45
1630678990562,-21.21
1630678990578,-18.73
1630678990593,-15.72
1630678990609,-12.84
1630678990625,-10.56
1630678990640,-9.12
1630678990656,-8.54
1630678990671,-8.71
1630678990687,-9.43
1630678990703,-10.52
1630678990718,-11.82
1630678990734,-13.26
1630678990750,-14.81
1630678990765,-16.54
1630678990781,-18.53
1630678990796,-20.83
1630678990812,-23.43
1630678990828,-26.26
1630678990843,-29.18
1630678990859,-32.06
1630678990875,-34.78
1630678990890,-37.22
1630678990906,-39.29
1630678990921,-40.9
1630678990937,-42.04
1630678990953,-42.81
1630678990968,-43.39
1630678990984,-44.02
1630678991000,-44.92
1630678991015,-46.21
1630678991031,-47.88
1630678991046,-49.8
1630678991062,-51.78
1630678991078,-53.59
1630678991093,-55.11
1630678991109,-56.32
1630678991125,-57.37
1630678991140,-58.57
1630678991156,-60.32
1630678991171,-62.94
1630678991187,-66.52
1630678991203,-70.83
1630678991218,-75.35
1630678991234,-79.39
1630678991250,-82.24
1630678991265,-83.25
1630678991281,-82.04
1630678991296,-78.5
1630678991312,-72.87
1630678991328,-65.75
1630678991343,-57.97
1630678991359,-50.4
1630678991375,-43.65
1630678991390,-37.85
1630678991406,-32.66
1630678991421,-27.45
1630678991437,-21.66
1630678991453,-15.1
1630678991468,-8.02
1630678991484,-0.96
1630678991500,5.55
1630678991515,11.23
1630678991531,16.08
1630678991546,20.26
1630678991562,23.8
1630678991578,26.57
1630678991593,28.25
1630678991609,28.58
1630678991625,27.55
1630678991640,25.45
1630678991656,22.86
1630678991671,20.37
1630678991687,18.46
1630678991703,17.35
1630678991718,17.03
1630678991734,17.33
1630678991750,18.05
1630678991765,19.03
1630678991781,20.17
1630678991796,21.46
1630678991812,22.85
1630678991828,24.27
1630678991843,25.58
1630678991859,26.59
1630678991875,27.11
1630678991890,27.01
1630678991906,26.3
1630678991921,25.14
1630678991937,23.82
1630678991953,22.63
1630678991968,21.84
1630678991984,21.59
1630678992000,21.9
1630678992015,22.69
1630678992031,23.83
1630678992046,25.19
1630678992062,26.63
1630678992078,28.06
1630678992093,29.35
1630678992109,30.43
1630678992125,31.28
1630678992140,31.95
1630678992156,32.55
1630678992171,33.24
1630678992187,34.14
1630678992203,35.31
1630678992218,36.73
1630678992234,38.3
1630678992250,39.97
1630678992265,41.68
1630678992281,43.42
1630678992296,45.14
1630678992312,46.82
1630678992328,48.42
1630678992343,49.94
1630678992359,51.41
1630678992375,52.89
1630678992390,54.38
1630678992406,55.82
1630678992421,57.05
1630678992437,57.82
1630678992453,57.91
1630678992468,57.15
1630678992484,55.48
1630678992500,52.95
1630678992515,49.65
1630678992531,45.71
1630678992546,41.21
1630678992562,36.21
1630678992578,30.75
1630678992593,24.86
1630678992609,18.52
1630678992625,11.73
1630678992640,4.51
1630678992656,-3.08
1630678992671,-10.79
1630678992687,-18.2
1630678992703,-24.69
1630678992718,-29.57
1630678992734,-32.31
1630678992750,-32.73
1630678992765,-31.05
1630678992781,-27.85
1630678992796,-23.86
1630678992812,-19.74
1630678992828,-16.0
1630678992843,-12.97
1630678992859,-10.92
1630678992875,-10.09
1630678992890,-10.68
1630678992906,-12.72
1630678992921,-15.96
1630678992937,-19.94
1630678992953,-24.03
1630678992968,-27.61
1630678992984,-30.26
1630678993000,-31.82
1630678993015,-32.39
1630678993031,-32.23
1630678993046,-31.68
1630678993062,-31.06
1630678993078,-30.65
1630678993093,-30.66
1630678993109,-31.22
1630678993125,-32.42
1630678993140,-34.29
1630678993156,-36.83
1630678993171,-39.99
1630678993187,-43.69
1630678993203,-47.79
1630678993218,-52.08
1630678993234,-56.24
1630678993250,-59.98
1630678993265,-63.07
1630678993281,-65.45
1630678993296,-67.27
1630678993312,-68.78
1630678993328,-70.16
1630678993343,-71.33
1630678993359,-71.9
1630678993375,-71.37
1630678993390,-69.34
1630678993406,-65.81
1630678993421,-61.18
1630678993437,-56.09
1630678993453,-51.02
1630678993468,-46.09
1630678993484,-40.98
1630678993500,-35.15
1630678993515,-28.21
1630678993531,-20.19
1630678993546,-11.61
1630678993562,-3.29
1630678993578,3.97
1630678993593,9.6
1630678993609,13.5
1630678993625,15.86
1630678993640,17.05
1630678993656,17.42
1630678993671,17.22
1630678993687,16.61
1630678993703,15.78
1630678993718,15.0
1630678993734,14.68
1630678993750,15.23
1630678993765,16.89
1630678993781,19.61
1630678993796,22.96
1630678993812,26.3
1630678993828,28.92
1630678993843,30.3
1630678993859,30.29
1630678993875,29.09
1630678993890,27.16
1630678993906,25.09
1630678993921,23.42
1630678993937,22.49
1630678993953,22.35
1630678993968,22.84
1630678993984,23.58
1630678994000,24.18
1630678994015,24.28
1630678994031,23.67
1630678994046,22.29
1630678994062,20.25
1630678994078,17.8
1630678994093,15.26
1630678994109,13.04
1630678994125,11.51
1630678994140,10.9
1630678994156,11.22
1630678994171,12.18
1630678994187,13.3
1630678994203,14.04
1630678994218,14.06
1630678994234,13.31
1630678994250,12.03
1630678994265,10.66
1630678994281,9.64
1630678994296,9.25
1630678994312,9.52
1630678994328,10.27
1630678994343,11.2
1630678994359,12.01
1630678994375,12.46
1630678994390,12.5
1630678994406,12.15
1630678994421,11.57
1630678994437,10.91
1630678994453,10.28
1630678994468,9.74
1630678994484,9.27
1630678994500,8.83
1630678994515,8.43
1630678994531,8.07
1630678994546,7.82
1630678994562,7.69
1630678994578,7.66
1630678994593,7.68
1630678994609,7.64
1630678994625,7.48
1630678994640,7.19
1630678994656,6.82
1630678994671,6.45
1630678994687,6.12
1630678994703,5.8
1630678994718,5.43
1630678994734,4.92
1630678994750,4.25
1630678994765,3.45
1630678994781,2.63
1630678994796,1.89
1630678994812,1.33
1630678994828,0.91
1630678994843,0.55
1630678994859,0.14
1630678994875,-0.41
1630678994890,-1.05
1630678994906,-1.63
1630678994921,-1.91
1630678994937,-1.68
1630678994953,-0.83
1630678994968,0.58
1630678994984,2.36
1630678995000,4.25
1630678995015,6.02
1630678995031,7.52
1630678995046,8.68
1630678995062,9.5
1630678995078,10.03
1630678995093,10.35
1630678995109,10.59
1630678995125,10.88
1630678995140,11.34
1630678995156,12.03
1630678995171,12.9
1630678995187,13.9
1630678995203,14.95
1630678995218,16.05
1630678995234,17.22
1630678995250,18.53
1630678995265,19.99
1630678995281,21.55
1630678995296,23.14
1630678995312,24.75
1630678995328,26.42
1630678995343,28.34
1630678995359,30.7
1630678995375,33.66
1630678995390,37.24
1630678995406,41.29
1630678995421,45.51
1630678995437,49.43
1630678995453,52.57
1630678995468,54.44
1630678995484,54.76
1630678995500,53.56
1630678995515,51.26
1630678995531,48.59
1630678995546,46.33
1630678995562,45.02
1630678995578,44.72
1630678995593,44.93
1630678995609,44.87
1630678995625,43.75
1630678995640,41.1
1630678995656,36.91
1630678995671,31.52
1630678995687,25.39
1630678995703,18.95
1630678995718,12.51
1630678995734,6.34
1630678995750,0.74
1630678995765,-3.86
1630678995781,-7.1
1630678995796,-8.79
1630678995812,-9.07
1630678995828,-8.41
1630678995843,-7.43
1630678995859,-6.65
1630678995875,-6.39
1630678995890,-6.7
1630678995906,-7.48
1630678995921,-8.65
1630678995937,-10.22
1630678995953,-12.21
1630678995968,-14.59
1630678995984,-17.14
1630678996000,-19.51
1630678996015,-21.36
1630678996031,-22.52
1630678996046,-23.08
1630678996062,-23.38
1630678996078,-23.84
1630678996093,-24.87
1630678996109,-26.76
1630678996125,-29.64
1630678996140,-33.41
1630678996156,-37.7
1630678996171,-41.89
1630678996187,-45.2
1630678996203,-46.9
1630678996218,-46.63
1630678996234,-44.53
1630678996250,-41.23
1630678996265,-37.61
1630678996281,-34.41
1630678996296,-32.06
1630678996312,-30.56
1630678996328,-29.73
1630678996343,-29.37
1630678996359,-29.42
1630678996375,-29.95
1630678996390,-31.04
1630678996406,-32.64
1630678996421,-34.62
1630678996437,-36.73
1630678996453,-38.8
1630678996468,-40.78
1630678996484,-42.76
1630678996500,-44.92
1630678996515,-47.41
1630678996531,-50.31
1630678996546,-53.58
1630678996562,-57.05
1630678996578,-60.51
1630678996593,-63.76
1630678996609,-66.66
1630678996625,-69.2
1630678996640,-71.38
1630678996656,-73.08
1630678996671,-73.94
1630678996687,-73.4
1630678996703,-70.89
1630678996718,-66.07
1630678996734,-59.09
1630678996750,-50.61
1630678996765,-41.59
1630678996781,-32.98
1630678996796,-25.35
1630678996812,-18.82
1630678996828,-13.15
1630678996843,-7.97
1630678996859,-3.05
1630678996875,1.62
1630678996890,5.87
1630678996906,9.5
1630678996921,12.45
1630678996937,14.76
1630678996953,16.59
1630678996968,18.1
1630678996984,19.38
1630678997000,20.45
1630678997015,21.28
1630678997031,21.84
1630678997046,22.14
1630678997062,22.25
1630678997078,22.29
1630678997093,22.36
1630678997109,22.54
1630678997125,22.88
1630678997140,23.44
1630678997156,24.26
1630678997171,25.39
1630678997187,26.83
1630678997203,28.45
1630678997218,30.02
1630678997234,31.21
1630678997250,31.75
1630678997265,31.55
1630678997281,30.76
1630678997296,29.74
1630678997312,28.85
1630678997328,28.28
1630678997343,27.89
1630678997359,27.3
1630678997375,26.06
1630678997390,23.93
1630678997406,20.99
1630678997421,17.7
1630678997437,14.72
1630678997453,12.62
1630678997468,11.7
1630678997484,11.81
1630678997500,12.47
1630678997515,13.04
1630678997531,12.95
1630678997546,11.94
1630678997562,10.06
1630678997578,7.65
1630678997593,5.17
1630678997609,3.04
1630678997625,1.52
1630678997640,0.66
1630678997656,0.38
1630678997671,0.5
1630678997687,0.86
1630678997703,1.28
1630678997718,1.66
1630678997734,1.92
1630678997750,2.05
1630678997765,2.1
1630678997781,2.18
1630678997796,2.36
1630678997812,2.68
1630678997828,3.11
1630678997843,3.62
1630678997859,4.18
1630678997875,4.78
1630678997890,5.4
1630678997906,5.94
1630678997921,6.29
1630678997937,6.38
1630678997953,6.26
1630678997968,6.13
1630678997984,6.26
1630678998000,6.83
1630678998015,7.81
1630678998031,8.89
1630678998046,9.68
1630678998062,9.85
1630678998078,9.33
1630678998093,8.3
1630678998109,7.12
1630678998125,6.09
1630678998140,5.33
1630678998156,4.78
1630678998171,4.22
1630678998187,3.52
1630678998203,2.7
1630678998218,1.91
1630678998234,1.35
1630678998250,1.1
1630678998265,1.07
1630678998281,1.01
1630678998296,0.72
1630678998312,0.16
1630678998328,-0.43
1630678998343,-0.69
1630678998359,-0.32
1630678998375,0.81
1630678998390,2.55
1630678998406,4.62
1630678998421,6.72
1630678998437,8.73
1630678998453,10.65
1630678998468,12.53
1630678998484,14.39
1630678998500,16.17
1630678998515,17.76
1630678998531,19.07
1630678998546,20.11
1630678998562,20.99
1630678998578,21.9
1630678998593,22.99
1630678998609,24.4
1630678998625,26.17
1630678998640,28.26
1630678998656,30.6
1630678998671,33.09
1630678998687,35.61
1630678998703,38.06
1630678998718,40.34
1630678998734,42.38
1630678998750,44.13
1630678998765,45.56
1630678998781,46.6
1630678998796,47.11
1630678998812,46.87
1630678998828,45.64
1630678998843,43.27
1630678998859,39.78
1630678998875,35.44
1630678998890,30.67
1630678998906,25.9
1630678998921,21.37
1630678998937,17.05
1630678998953,12.69
1630678998968,8.02
1630678998984,2.9
1630678999000,-2.53
1630678999015,-7.92
1630678999031,-12.84
1630678999046,-16.94
1630678999062,-19.99
1630678999078,-22.0
1630678999093,-23.09
1630678999109,-23.48
1630678999125,-23.45
1630678999140,-23.35
1630678999156,-23.5
1630678999171,-24.18
1630678999187,-25.48
1630678999203,-27.37
1630678999218,-29.66
1630678999234,-32.11
1630678999250,-34.52
1630678999265,-36.78
1630678999281,-38.88
1630678999296,-40.89
1630678999312,-42.98
1630678999328,-45.37
1630678999343,-48.28
1630678999359,-51.88
1630678999375,-56.27
1630678999390,-61.36
1630678999406,-66.96
1630678999421,-72.83
1630678999437,-78.73
1630678999453,-84.43
1630678999468,-89.6
1630678999484,-93.68
1630678999500,-95.86
1630678999515,-95.27
1630678999531,-91.35
1630678999546,-84.14
1630678999562,-74.41
1630678999578,-63.4
1630678999593,-52.4
1630678999609,-42.31
1630678999625,-33.43
1630678999640,-25.63
1630678999656,-18.58
1630678999671,-12.09
1630678999687,-6.2
1630678999703,-1.02
1630678999718,3.41
1630678999734,7.22
1630678999750,10.66
1630678999765,13.88
1630678999781,16.84
1630678999796,19.32
1630678999812,21.09
1630678999828,22.11
1630678999843,22.58
1630678999859,22.97
1630678999875,23.76
1630678999890,25.25
1630678999906,27.45
1630678999921,30.09
1630678999937,32.77
1630678999953,35.18
1630678999968,37.35
1630678999984,39.55
1630679000000,42.18
1630679000015,45.54
1630679000031,49.59
1630679000046,53.95
1630679000062,57.99
1630679000078,61.13
1630679000093,63.06
1630679000109,63.88
1630679000125,64.05
1630679000140,64.17
1630679000156,64.82
1630679000171,66.27
1630679000187,68.47
1630679000203,71.09
1630679000218,73.57
1630679000234,75.32
1630679000250,75.78
1630679000265,74.54
1630679000281,71.34
1630679000296,66.11
1630679000312,58.99
1630679000328,50.21
1630679000343,40.1
1630679000359,29.01
1630679000375,17.27
1630679000390,5.21
1630679000406,-6.77
1630679000421,-18.2
1630679000437,-28.55
1630679000453,-37.35
1630679000468,-44.25
1630679000484,-49.09
1630679000500,-51.94
1630679000515,-53.08
1630679000531,-52.95
1630679000546,-52.16
1630679000562,-51.38
1630679000578,-51.19
1630679000593,-51.95
1630679000609,-53.63
1630679000625,-55.8
1630679000640,-57.84
1630679000656,-59.16
1630679000671,-59.45
1630679000687,-58.82
1630679000703,-57.7
1630679000718,-56.61
1630679000734,-55.95
1630679000750,-55.89
1630679000765,-56.36
1630679000781,-57.12
1630679000796,-57.78
1630679000812,-57.82
1630679000828,-56.58
1630679000843,-53.4
1630679000859,-47.87
1630679000875,-40.11
1630679000890,-30.84
1630679000906,-21.25
1630679000921,-12.55
1630679000937,-5.56
1630679000953,-0.48
1630679000968,3.0
1630679000984,5.31
1630679001000,6.73
1630679001015,7.26
1630679001031,6.76
1630679001046,5.32
1630679001062,3.38
1630679001078,1.68
1630679001093,0.98
1630679001109,1.67
1630679001125,3.57
1630679001140,6.02
1630679001156,8.11
1630679001171,9.04
1630679001187,8.48
1630679001203,6.64
1630679001218,4.19
1630679001234,2.07
1630679001250,1.11
1630679001265,1.81
1630679001281,4.15
1630679001296,7.76
1630679001312,12.03
1630679001328,16.34
1630679001343,20.23
1630679001359,23.4
1630679001375,25.7
1630679001390,27.11
1630679001406,27.72
1630679001421,27.75
1630679001437,27.53
1630679001453,27.39
1630679001468,27.57
1630679001484,28.11
1630679001500,28.87
1630679001515,29.58
1630679001531,30.04
1630679001546,30.11
1630679001562,29.81
1630679001578,29.27
1630679001593,28.64
1630679001609,28.1
1630679001625,27.82
1630679001640,27.96
1630679001656,28.61
1630679001671,29.75
1630679001687,31.2
1630679001703,32.67
1630679001718,33.77
1630679001734,34.15
1630679001750,33.59
1630679001765,32.08
1630679001781,29.81
1630679001796,27.1
1630679001812,24.34
1630679001828,21.87
1630679001843,19.86
1630679001859,18.32
1630679001875,17.06
1630679001890,15.86
1630679001906,14.51
1630679001921,12.87
1630679001937,10.95
1630679001953,8.82
1630679001968,6.6
1630679001984,4.47
1630679002000,2.64
1630679002015,1.33
1630679002031,0.77
1630679002046,1.05
1630679002062,2.12
1630679002078,3.76
1630679002093,5.66
1630679002109,7.51
1630679002125,9.1
1630679002140,10.32
1630679002156,11.17
1630679002171,11.66
1630679002187,11.8
1630679002203,11.54
1630679002218,10.79
1630679002234,9.54
1630679002250,7.83
1630679002265,5.81
1630679002281,3.69
1630679002296,1.69
1630679002312,-0.01
1630679002328,-1.39
1630679002343,-2.54
1630679002359,-3.63
1630679002375,-4.84
1630679002390,-6.26
1630679002406,-7.91
1630679002421,-9.77
1630679002437,-11.81
1630679002453,-14.0
1630679002468,-16.33
1630679002484,-18.76
1630679002500,-21.25
1630679002515,-23.78
1630679002531,-26.34
1630679002546,-28.96
1630679002562,-31.62
1630679002578,-34.3
1630679002593,-36.95
1630679002609,-39.56
1630679002625,-42.23
1630679002640,-45.09
1630679002656,-48.26
1630679002671,-51.67
1630679002687,-55.02
1630679002703,-57.79
1630679002718,-59.43
1630679002734,-59.47
1630679002750,-57.78
1630679002765,-54.57
1630679002781,-50.28
1630679002796,-45.47
1630679002812,-40.6
1630679002828,-35.98
1630679002843,-31.73
1630679002859,-27.91
1630679002875,-24.55
1630679002890,-21.69
1630679002906,-19.33
1630679002921,-17.4
1630679002937,-15.7
1630679002953,-13.94
1630679002968,-11.78
1630679002984,-9.03
1630679003000,-5.7
1630679003015,-2.07
1630679003031,1.44
1630679003046,4.4
1630679003062,6.5
1630679003078,7.66
1630679003093,8.03
1630679003109,7.9
1630679003125,7.61
1630679003140,7.42
1630679003156,7.44
1630679003171,7.66
1630679003187,7.94
1630679003203,8.13
1630679003218,8.11
1630679003234,7.89
1630679003250,7.62
1630679003265,7.55
1630679003281,8.02
1630679003296,9.24
1630679003312,11.26
1630679003328,13.91
1630679003343,16.85
1630679003359,19.75
1630679003375,22.34
1630679003390,24.56
1630679003406,26.51
1630679003421,28.35
1630679003437,30.18
1630679003453,32.01
1630679003468,33.74
1630679003484,35.23
1630679003500,36.35
1630679003515,37.04
1630679003531,37.32
1630679003546,37.24
1630679003562,36.94
1630679003578,36.62
1630679003593,36.5
1630679003609,36.83
1630679003625,37.75
1630679003640,39.18
1630679003656,40.84
1630679003671,42.27
1630679003687,43.02
1630679003703,42.82
1630679003718,41.69
1630679003734,39.96
1630679003750,38.07
1630679003765,36.4
1630679003781,35.08
1630679003796,33.92
1630679003812,32.58
1630679003828,30.69
1630679003843,28.08
1630679003859,24.82
1630679003875,21.18
1630679003890,17.45
1630679003906,13.9
1630679003921,10.68
1630679003937,7.88
1630679003953,5.56
1630679003968,3.72
1630679003984,2.27
1630679004000,0.93
1630679004015,-0.67
1630679004031,-2.88
1630679004046,-5.83
1630679004062,-9.38
1630679004078,-13.11
1630679004093,-16.55
1630679004109,-19.38
1630679004125,-21.52
1630679004140,-23.16
1630679004156,-24.6
1630679004171,-26.11
1630679004187,-27.92
1630679004203,-30.23
1630679004218,-33.23
1630679004234,-37.14
1630679004250,-42.07
1630679004265,-47.88
1630679004281,-54.13
1630679004296,-60.17
1630679004312,-65.38
1630679004328,-69.36
1630679004343,-72.16
1630679004359,-74.24
1630679004375,-76.24
1630679004390,-78.78
1630679004406,-82.23
1630679004421,-86.57
1630679004437,-91.33
1630679004453,-95.57
1630679004468,-98.01
1630679004484,-97.3
1630679004500,-92.46
1630679004515,-83.34
1630679004531,-70.81
1630679004546,-56.63
1630679004562,-42.87
1630679004578,-31.22
1630679004593,-22.47
1630679004609,-16.35
1630679004625,-11.89
1630679004640,-7.89
1630679004656,-3.42
1630679004671,2.0
1630679004687,8.4
1630679004703,15.53
1630679004718,22.95
1630679004734,30.14
1630679004750,36.52
1630679004765,41.5
1630679004781,44.59
1630679004796,45.57
1630679004812,44.54
1630679004828,41.98
1630679004843,38.65
1630679004859,35.43
1630679004875,33.06
1630679004890,31.94
1630679004906,31.94
1630679004921,32.57
1630679004937,33.07
1630679004953,32.79
1630679004968,31.45
1630679004984,29.2
1630679005000,26.53
1630679005015,24.11
1630679005031,22.44
1630679005046,21.71
1630679005062,21.77
1630679005078,22.16
1630679005093,22.43
1630679005109,22.25
1630679005125,21.53
1630679005140,20.39
1630679005156,18.99
1630679005171,17.45
1630679005187,15.77
1630679005203,13.91
1630679005218,11.93
1630679005234,10.05
1630679005250,8.59
1630679005265,7.88
1630679005281,8.02
1630679005296,8.89
1630679005312,10.12
1630679005328,11.36
1630679005343,12.33
1630679005359,12.97
1630679005375,13.38
1630679005390,13.72
1630679005406,14.13
1630679005421,14.65
1630679005437,15.24
1630679005453,15.79
1630679005468,16.26
1630679005484,16.69
1630679005500,17.22
1630679005515,18.04
1630679005531,19.26
1630679005546,20.83
1630679005562,22.52
1630679005578,24.04
1630679005593,25.13
1630679005609,25.73
1630679005625,25.97
1630679005640,26.03
1630679005656,26.09
1630679005671,26.15
1630679005687,26.05
1630679005703,25.63
1630679005718,24.76
1630679005734,23.5
1630679005750,22.0
1630679005765,20.4
1630679005781,18.81
1630679005796,17.21
1630679005812,15.51
1630679005828,13.68
1630679005843,11.76
1630679005859,9.91
1630679005875,8.3
1630679005890,6.99
1630679005906,5.93
1630679005921,4.94
1630679005937,3.89
1630679005953,2.79
1630679005968,1.85
1630679005984,1.37
1630679006000,1.58
1630679006015,2.45
1630679006031,3.7
1630679006046,4.93
1630679006062,5.78
1630679006078,6.17
1630679006093,6.24
1630679006109,6.26
1630679006125,6.44
1630679006140,6.78
1630679006156,7.16
1630679006171,7.42
1630679006187,7.49
1630679006203,7.46
1630679006218,7.46
1630679006234,7.52
1630679006250,7.51
1630679006265,7.14
1630679006281,6.15
1630679006296,4.44
1630679006312,2.18
1630679006328,-0.23
1630679006343,-2.32
1630679006359,-3.71
1630679006375,-4.22
1630679006390,-3.9
1630679006406,-3.03
1630679006421,-2.03
1630679006437,-1.35
1630679006453,-1.4
1630679006468,-2.37
1630679006484,-4.2
1630679006500,-6.59
1630679006515,-9.05
1630679006531,-11.07
1630679006546,-12.21
1630679006562,-12.29
1630679006578,-11.36
1630679006593,-9.72
1630679006609,-7.82
1630679006625,-6.27
1630679006640,-5.72
1630679006656,-6.75
1630679006671,-9.68
1630679006687,-14.41
1630679006703,-20.32
1630679006718,-26.38
1630679006734,-31.46
1630679006750,-34.7
1630679006765,-35.86
1630679006781,-35.3
1630679006796,-33.85
1630679006812,-32.39
1630679006828,-31.51
1630679006843,-31.3
1630679006859,-31.44
1630679006875,-31.47
1630679006890,-31.06
1630679006906,-30.21
1630679006921,-29.19
1630679006937,-28.4
1630679006953,-28.14
1630679006968,-28.49
1630679006984,-29.3
1630679007000,-30.25
1630679007015,-31.05
1630679007031,-31.5
1630679007046,-31.56
1630679007062,-31.3
1630679007078,-30.87
1630679007093,-30.4
1630679007109,-29.97
1630679007125,-29.6
1630679007140,-29.22
1630679007156,-28.69
1630679007171,-27.78
1630679007187,-26.23
1630679007203,-23.83
1630679007218,-20.53
1630679007234,-16.52
1630679007250,-12.27
1630679007265,-8.39
1630679007281,-5.44
1630679007296,-3.65
1630679007312,-2.89
1630679007328,-2.7
1630679007343,-2.64
1630679007359,-2.49
1630679007375,-2.44
1630679007390,-2.96
1630679007406,-4.48
1630679007421,-7.06
1630679007437,-10.3
1630679007453,-13.47
1630679007468,-15.78
1630679007484,-16.75
1630679007500,-16.39
1630679007515,-15.14
1630679007531,-13.69
1630679007546,-12.69
1630679007562,-12.57
1630679007578,-13.37
1630679007593,-14.75
1630679007609,-16.07
1630679007625,-16.57
1630679007640,-15.58
1630679007656,-12.81
1630679007671,-8.36
1630679007687,-2.8
1630679007703,3.1
1630679007718,8.51
1630679007734,12.79
1630679007750,15.58
1630679007765,16.88
1630679007781,17.01
1630679007796,16.46
1630679007812,15.83
1630679007828,15.65
1630679007843,16.23
1630679007859,17.61
1630679007875,19.56
1630679007890,21.69
1630679007906,23.6
1630679007921,24.99
1630679007937,25.71
1630679007953,25.74
1630679007968,25.13
1630679007984,24.0
1630679008000,22.49
1630679008015,20.81
1630679008031,19.13
1630679008046,17.58
1630679008062,16.16
1630679008078,14.79
1630679008093,13.32
1630679008109,11.68
1630679008125,9.89
1630679008140,8.1
1630679008156,6.47
1630679008171,5.14
1630679008187,4.1
1630679008203,3.22
1630679008218,2.33
1630679008234,1.33
1630679008250,0.33
1630679008265,-0.44
1630679008281,-0.64
1630679008296,-0.06
1630679008312,1.33
1630679008328,3.26
1630679008343,5.3
1630679008359,6.99
1630679008375,8.03
1630679008390,8.37
1630679008406,8.21
1630679008421,7.85
1630679008437,7.55
1630679008453,7.43
1630679008468,7.51
1630679008484,7.71
1630679008500,7.99
1630679008515,8.29
1630679008531,8.56
1630679008546,8.74
1630679008562,8.76
1630679008578,8.6
1630679008593,8.3
1630679008609,7.97
1630679008625,7.72
1630679008640,7.58
1630679008656,7.48
1630679008671,7.32
1630679008687,7.0
1630679008703,6.51
1630679008718,5.9
1630679008734,5.27
1630679008750,4.67
1630679008765,4.15
1630679008781,3.7
1630679008796,3.33
1630679008812,3.09
1630679008828,2.99
1630679008843,3.01
1630679008859,3.07
1630679008875,3.07
1630679008890,2.93
1630679008906,2.65
1630679008921,2.29
1630679008937,1.95
1630679008953,1.69
1630679008968,1.51
1630679008984,1.3
1630679009000,0.94
1630679009015,0.36
1630679009031,-0.41
1630679009046,-1.2
1630679009062,-1.76
1630679009078,-1.88
1630679009093,-1.43
1630679009109,-0.47
1630679009125,0.81
1630679009140,2.21
1630679009156,3.52
1630679009171,4.68
1630679009187,5.69
1630679009203,6.62
1630679009218,7.47
1630679009234,8.19
1630679009250,8.74
1630679009265,9.07
1630679009281,9.25
1630679009296,9.38
1630679009312,9.64
1630679009328,10.14
1630679009343,10.94
1630679009359,12.01
1630679009375,13.29
1630679009390,14.67
1630679009406,16.1
1630679009421,17.49
1630679009437,18.74
1630679009453,19.73
1630679009468,20.31
1630679009484,20.35
1630679009500,19.85
1630679009515,18.94
1630679009531,17.91
1630679009546,17.04
1630679009562,16.56
1630679009578,16.55
1630679009593,16.9
1630679009609,17.38
1630679009625,17.77
1630679009640,17.91
1630679009656,17.79
1630679009671,17.51
1630679009687,17.18
1630679009703,16.94
1630679009718,16.78
1630679009734,16.66
1630679009750,16.48
1630679009765,16.14
1630679009781,15.65
1630679009796,15.11
1630679009812,14.66
1630679009828,14.49
1630679009843,14.68
1630679009859,15.23
1630679009875,15.98
1630679009890,16.73
1630679009906,17.21
1630679009921,17.23
1630679009937,16.66
1630679009953,15.46
1630679009968,13.74
1630679009984,11.64
1630679010000,9.37
1630679010015,7.1
1630679010031,4.97
1630679010046,3.0
1630679010062,1.21
1630679010078,-0.4
1630679010093,-1.8
1630679010109,-2.94
1630679010125,-3.83
1630679010140,-4.53
1630679010156,-5.2
1630679010171,-6.03
1630679010187,-7.13
1630679010203,-8.54
1630679010218,-10.24
1630679010234,-12.21
1630679010250,-14.5
1630679010265,-17.21
1630679010281,-20.37
1630679010296,-23.93
1630679010312,-27.7
1630679010328,-31.44
1630679010343,-35.0
1630679010359,-38.35
1630679010375,-41.63
1630679010390,-44.97
1630679010406,-48.47
1630679010421,-52.11
1630679010437,-55.82
1630679010453,-59.54
1630679010468,-63.21
1630679010484,-66.67
1630679010500,-69.6
1630679010515,-71.51
1630679010531,-71.86
1630679010546,-70.28
1630679010562,-66.8
1630679010578,-61.84
1630679010593,-56.05
1630679010609,-50.03
1630679010625,-44.14
1630679010640,-38.44
1630679010656,-32.88
1630679010671,-27.51
1630679010687,-22.54
1630679010703,-18.31
1630679010718,-15.04
1630679010734,-12.65
1630679010750,-10.72
1630679010765,-8.65
1630679010781,-5.87
1630679010796,-2.13
1630679010812,2.49
1630679010828,7.62
1630679010843,12.74
1630679010859,17.38
1630679010875,21.14
1630679010890,23.82
1630679010906,25.41
1630679010921,26.1
1630679010937,26.31
1630679010953,26.52
1630679010968,27.18
1630679010984,28.56
1630679011000,30.63
1630679011015,33.06
1630679011031,35.36
1630679011046,37.05
1630679011062,37.84
1630679011078,37.71
1630679011093,36.9
1630679011109,35.8
1630679011125,34.78
1630679011140,34.1
1630679011156,33.83
1630679011171,33.94
1630679011187,34.37
1630679011203,35.14
1630679011218,36.32
1630679011234,37.94
1630679011250,39.82
1630679011265,41.54
1630679011281,42.5
1630679011296,42.1
1630679011312,39.97
1630679011328,36.05
1630679011343,30.68
1630679011359,24.44
1630679011375,18.04
1630679011390,12.14
1630679011406,7.29
1630679011421,3.83
1630679011437,1.87
1630679011453,1.29
1630679011468,1.71
1630679011484,2.62
1630679011500,3.46
1630679011515,3.75
1630679011531,3.21
1630679011546,1.8
1630679011562,-0.31
1630679011578,-2.82
1630679011593,-5.43
1630679011609,-7.88
1630679011625,-10.02
1630679011640,-11.89
1630679011656,-13.61
1630679011671,-15.4
1630679011687,-17.49
1630679011703,-20.04
1630679011718,-23.06
1630679011734,-26.38
1630679011750,-29.72
1630679011765,-32.77
1630679011781,-35.4
1630679011796,-37.66
1630679011812,-39.78
1630679011828,-42.03
1630679011843,-44.57
1630679011859,-47.31
1630679011875,-49.92
1630679011890,-51.91
1630679011906,-52.76
1630679011921,-52.07
1630679011937,-49.61
1630679011953,-45.43
1630679011968,-39.82
1630679011984,-33.31
1630679012000,-26.57
1630679012015,-20.25
1630679012031,-14.88
1630679012046,-10.66
1630679012062,-7.52
1630679012078,-5.11
1630679012093,-3.06
1630679012109,-1.02
1630679012125,1.17
1630679012140,3.51
1630679012156,5.91
1630679012171,8.22
1630679012187,10.35
1630679012203,12.25
1630679012218,13.94
1630679012234,15.51
1630679012250,17.05
1630679012265,18.71
1630679012281,20.55
1630679012296,22.55
1630679012312,24.56
1630679012328,26.36
1630679012343,27.73
1630679012359,28.54
1630679012375,28.79
1630679012390,28.6
1630679012406,28.12
1630679012421,27.49
1630679012437,26.74
1630679012453,25.84
1630679012468,24.68
1630679012484,23.2
1630679012500,21.37
1630679012515,19.24
1630679012531,16.94
1630679012546,14.64
1630679012562,12.54
1630679012578,10.82
1630679012593,9.61
1630679012609,8.92
1630679012625,8.65
1630679012640,8.59
1630679012656,8.46
1630679012671,8.02
1630679012687,7.1
1630679012703,5.73
1630679012718,4.07
1630679012734,2.45
1630679012750,1.26
1630679012765,0.78
1630679012781,1.09
1630679012796,1.96
1630679012812,2.96
1630679012828,3.64
1630679012843,3.72
1630679012859,3.23
1630679012875,2.48
1630679012890,1.89
1630679012906,1.77
1630679012921,2.13
1630679012937,2.73
1630679012953,3.15
1630679012968,3.03
1630679012984,2.23
1630679013000,0.83
1630679013015,-0.96
1630679013031,-2.87
1630679013046,-4.78
1630679013062,-6.69
1630679013078,-8.66
1630679013093,-10.74
1630679013109,-12.87
1630679013125,-14.9
1630679013140,-16.68
1630679013156,-18.17
1630679013171,-19.46
1630679013187,-20.73
1630679013203,-22.08
1630679013218,-23.44
1630679013234,-24.55
1630679013250,-25.08
1630679013265,-24.79
1630679013281,-23.67
1630679013296,-21.99
1630679013312,-20.21
1630679013328,-18.75
1630679013343,-17.88
1630679013359,-17.55
1630679013375,-17.51
1630679013390,-17.42
1630679013406,-16.98
1630679013421,-16.08
1630679013437,-14.77
1630679013453,-13.22
1630679013468,-11.6
1630679013484,-10.06
1630679013500,-8.68
1630679013515,-7.52
1630679013531,-6.58
1630679013546,-5.85
1630679013562,-5.32
1630679013578,-4.96
1630679013593,-4.77
1630679013609,-4.71
1630679013625,-4.73
1630679013640,-4.8
1630679013656,-4.86
1630679013671,-4.9
1630679013687,-4.92
1630679013703,-5.0
1630679013718,-5.2
1630679013734,-5.6
1630679013750,-6.23
1630679013765,-7.04
1630679013781,-7.96
1630679013796,-8.89
1630679013812,-9.72
1630679013828,-10.41
1630679013843,-10.96
1630679013859,-11.42
1630679013875,-11.8
1630679013890,-12.05
1630679013906,-12.01
1630679013921,-11.49
1630679013937,-10.39
1630679013953,-8.74
1630679013968,-6.73
1630679013984,-4.62
1630679014000,-2.63
1630679014015,-0.83
1630679014031,0.79
1630679014046,2.26
1630679014062,3.53
1630679014078,4.53
1630679014093,5.15
1630679014109,5.45
1630679014125,5.56
1630679014140,5.7
1630679014156,6.02
1630679014171,6.54
1630679014187,7.17
1630679014203,7.8
1630679014218,8.37
1630679014234,8.91
1630679014250,9.47
1630679014265,10.11
1630679014281,10.76
1630679014296,11.34
1630679014312,11.71
1630679014328,11.79
1630679014343,11.57
1630679014359,11.05
1630679014375,10.29
1630679014390,9.33
1630679014406,8.3
1630679014421,7.37
1630679014437,6.72
1630679014453,6.49
1630679014468,6.65
1630679014484,7.03
1630679014500,7.33
1630679014515,7.27
1630679014531,6.68
1630679014546,5.6
1630679014562,4.28
1630679014578,3.05
1630679014593,2.22
1630679014609,1.93
1630679014625,2.19
1630679014640,2.85
1630679014656,3.73
1630679014671,4.66
1630679014687,5.51
1630679014703,6.23
1630679014718,6.79
1630679014734,7.18
1630679014750,7.37
1630679014765,7.32
1630679014781,7.01
1630679014796,6.46
1630679014812,5.73
1630679014828,4.94
1630679014843,4.18
1630679014859,3.57
1630679014875,3.14
1630679014890,2.91
1630679014906,2.86
1630679014921,2.95
1630679014937,3.13
1630679014953,3.33
1630679014968,3.48
1630679014984,3.53
1630679015000,3.46
1630679015015,3.28
1630679015031,3.02
1630679015046,2.73
1630679015062,2.43
1630679015078,2.13
1630679015093,1.84
1630679015109,1.59
1630679015125,1.41
1630679015140,1.3
1630679015156,1.2
1630679015171,1.04
1630679015187,0.73
1630679015203,0.22
1630679015218,-0.43
1630679015234,-1.13
1630679015250,-1.81
1630679015265,-2.43
1630679015281,-3.02
1630679015296,-3.63
1630679015312,-4.25
1630679015328,-4.8
1630679015343,-5.13
1630679015359,-5.12
1630679015375,-4.69
1630679015390,-3.88
1630679015406,-2.79
1630679015421,-1.57
1630679015437,-0.41
1630679015453,0.54
1630679015468,1.17
1630679015484,1.46
1630679015500,1.49
1630679015515,1.41
1630679015531,1.44
1630679015546,1.72
1630679015562,2.29
1630679015578,3.07
1630679015593,3.92
1630679015609,4.66
1630679015625,5.19
1630679015640,5.49
1630679015656,5.6
1630679015671,5.55
1630679015687,5.35
1630679015703,4.98
1630679015718,4.47
1630679015734,3.87
1630679015750,3.3
1630679015765,2.89
1630679015781,2.71
1630679015796,2.75
1630679015812,2.88
1630679015828,3.0
1630679015843,3.0
1630679015859,2.83
1630679015875,2.54
1630679015890,2.14
1630679015906,1.69
1630679015921,1.21
1630679015937,0.7
1630679015953,0.16
1630679015968,-0.44
1630679015984,-1.14
1630679016000,-1.97
1630679016015,-2.92
1630679016031,-3.89
1630679016046,-4.74
1630679016062,-5.34
1630679016078,-5.61
1630679016093,-5.61
1630679016109,-5.47
1630679016125,-5.33
1630679016140,-5.24
1630679016156,-5.12
1630679016171,-4.84
1630679016187,-4.25
1630679016203,-3.28
1630679016218,-1.99
1630679016234,-0.49
1630679016250,1.03
1630679016265,2.42
1630679016281,3.54
1630679016296,4.33
1630679016312,4.83
1630679016328,5.11
1630679016343,5.26
1630679016359,5.4
1630679016375,5.54
1630679016390,5.7
1630679016406,5.85
1630679016421,6.0
1630679016437,6.15
1630679016453,6.28
1630679016468,6.37
1630679016484,6.35
1630679016500,6.14
1630679016515,5.77
1630679016531,5.3
1630679016546,4.83
1630679016562,4.38
1630679016578,3.94
1630679016593,3.46
1630679016609,2.89
1630679016625,2.29
1630679016640,1.71
1630679016656,1.2
1630679016671,0.68
1630679016687,0.05
1630679016703,-0.81
1630679016718,-1.87
1630679016734,-2.98
1630679016750,-3.91
1630679016765,-4.46
1630679016781,-4.59
1630679016796,-4.41
1630679016812,-4.14
1630679016828,-3.99
1630679016843,-4.09
1630679016859,-4.42
1630679016875,-4.84
1630679016890,-5.15
1630679016906,-5.16
1630679016921,-4.76
1630679016937,-3.95
1630679016953,-2.88
1630679016968,-1.71
1630679016984,-0.63
1630679017000,0.24
1630679017015,0.88
1630679017031,1.36
1630679017046,1.7
1630679017062,1.93
1630679017078,2.02
1630679017093,1.98
1630679017109,1.85
1630679017125,1.75
1630679017140,1.79
1630679017156,2.02
1630679017171,2.39
1630679017187,2.77
1630679017203,3.01
1630679017218,3.07
1630679017234,2.94
1630679017250,2.72
1630679017265,2.47
1630679017281,2.2
1630679017296,1.88
1630679017312,1.49
1630679017328,1.04
1630679017343,0.57
1630679017359,0.11
1630679017375,-0.32
1630679017390,-0.73
1630679017406,-1.15
1630679017421,-1.59
1630679017437,-2.02
1630679017453,-2.39
1630679017468,-2.64
1630679017484,-2.69
1630679017500,-2.46
1630679017515,-1.86
1630679017531,-0.91
1630679017546,0.29
1630679017562,1.48
1630679017578,2.31
1630679017593,2.53
1630679017609,2.04
1630679017625,0.97
1630679017640,-0.36
1630679017656,-1.57
1630679017671,-2.36
1630679017687,-2.59
1630679017703,-2.29
1630679017718,-1.56
1630679017734,-0.57
1630679017750,0.57
1630679017765,1.73
1630679017781,2.86
1630679017796,3.92
1630679017812,4.85
1630679017828,5.65
1630679017843,6.29
1630679017859,6.78
1630679017875,7.14
1630679017890,7.37
1630679017906,7.46
1630679017921,7.4
1630679017937,7.18
1630679017953,6.82
1630679017968,6.35
1630679017984,5.86
1630679018000,5.43
1630679018015,5.14
1630679018031,5.0
1630679018046,4.97
1630679018062,4.95
1630679018078,4.87
1630679018093,4.69
1630679018109,4.43
1630679018125,4.13
1630679018140,3.81
1630679018156,3.48
1630679018171,3.11
1630679018187,2.68
1630679018203,2.2
1630679018218,1.69
1630679018234,1.18
1630679018250,0.67
1630679018265,0.18
1630679018281,-0.31
1630679018296,-0.81
1630679018312,-1.31
1630679018328,-1.81
1630679018343,-2.34
1630679018359,-2.92
1630679018375,-3.57
1630679018390,-4.27
1630679018406,-4.93
1630679018421,-5.46
1630679018437,-5.72
1630679018453,-5.61
1630679018468,-5.1
1630679018484,-4.24
1630679018500,-3.13
1630679018515,-1.94
1630679018531,-0.82
1630679018546,0.1
1630679018562,0.72
1630679018578,1.01
1630679018593,0.99
1630679018609,0.75
1630679018625,0.42
1630679018640,0.12
1630679018656,-0.02
1630679018671,0.04
1630679018687,0.28
1630679018703,0.61
1630679018718,0.93
1630679018734,1.19
1630679018750,1.35
1630679018765,1.46
1630679018781,1.53
1630679018796,1.59
1630679018812,1.62
1630679018828,1.59
1630679018843,1.48
1630679018859,1.29
1630679018875,1.04
1630679018890,0.75
1630679018906,0.43
1630679018921,0.1
1630679018937,-0.25
1630679018953,-0.58
1630679018968,-0.86
1630679018984,-1.09
1630679019000,-1.29
1630679019015,-1.55
1630679019031,-1.97
1630679019046,-2.64
1630679019062,-3.54
1630679019078,-4.53
1630679019093,-5.39
1630679019109,-5.91
1630679019125,-5.95
1630679019140,-5.51
1630679019156,-4.7
1630679019171,-3.67
1630679019187,-2.55
1630679019203,-1.41
1630679019218,-0.34
1630679019234,0.57
1630679019250,1.18
1630679019265,1.37
1630679019281,1.14
1630679019296,0.59
1630679019312,-0.07
1630679019328,-0.66
1630679019343,-1.07
1630679019359,-1.32
1630679019375,-1.48
1630679019390,-1.6
1630679019406,-1.64
1630679019421,-1.56
1630679019437,-1.31
1630679019453,-0.98
1630679019468,-0.7
1630679019484,-0.64
1630679019500,-0.87
1630679019515,-1.34
1630679019531,-1.93
1630679019546,-2.47
1630679019562,-2.87
1630679019578,-3.11
1630679019593,-3.26
1630679019609,-3.41
1630679019625,-3.68
1630679019640,-4.14
1630679019656,-4.87
1630679019671,-5.83
1630679019687,-6.93
1630679019703,-7.99
1630679019718,-8.82
1630679019734,-9.25
1630679019750,-9.23
1630679019765,-8.77
1630679019781,-7.98
1630679019796,-6.99
1630679019812,-5.88
1630679019828,-4.7
1630679019843,-3.53
1630679019859,-2.45
1630679019875,-1.55
1630679019890,-0.92
1630679019906,-0.58
1630679019921,-0.48
1630679019937,-0.51
1630679019953,-0.56
1630679019968,-0.56
1630679019984,-0.48
1630679020000,-0.35
1630679020015,-0.19
1630679020031,-0.05
1630679020046,0.04
1630679020062,0.08
1630679020078,0.06
1630679020093,-0.04
1630679020109,-0.24
1630679020125,-0.55
1630679020140,-0.93
1630679020156,-1.31
1630679020171,-1.63
1630679020187,-1.82
1630679020203,-1.91
1630679020218,-1.94
1630679020234,-2.02
1630679020250,-2.21
1630679020265,-2.5
1630679020281,-2.84
1630679020296,-3.2
1630679020312,-3.54
1630679020328,-3.92
1630679020343,-4.41
1630679020359,-5.03
1630679020375,-5.69
1630679020390,-6.23
1630679020406,-6.41
1630679020421,-6.1
1630679020437,-5.25
1630679020453,-3.99
1630679020468,-2.55
1630679020484,-1.16
1630679020500,0.01
1630679020515,0.95
1630679020531,1.73
1630679020546,2.4
1630679020562,2.96
1630679020578,3.33
1630679020593,3.42
1630679020609,3.24
1630679020625,2.89
1630679020640,2.54
1630679020656,2.35
1630679020671,2.37
1630679020687,2.55
1630679020703,2.75
1630679020718,2.88
1630679020734,2.91
1630679020750,2.88
1630679020765,2.8
1630679020781,2.62
1630679020796,2.23
1630679020812,1.51
1630679020828,0.46
1630679020843,-0.78
1630679020859,-1.91
1630679020875,-2.62
1630679020890,-2.69
1630679020906,-2.09
1630679020921,-1.02
1630679020937,0.2
1630679020953,1.27
1630679020968,1.98
1630679020984,2.27
1630679021000,2.21
1630679021015,1.89
1630679021031,1.46
1630679021046,1.07
1630679021062,0.86
1630679021078,1.0
1630679021093,1.54
1630679021109,2.48
1630679021125,3.66
1630679021140,4.9
1630679021156,6.05
1630679021171,7.05
1630679021187,7.93
1630679021203,8.81
1630679021218,9.76
1630679021234,10.8
1630679021250,11.9
1630679021265,12.99
1630679021281,13.99
1630679021296,14.79
1630679021312,15.27
1630679021328,15.32
1630679021343,14.93
1630679021359,14.17
1630679021375,13.18
1630679021390,12.11
1630679021406,11.01
1630679021421,9.86
1630679021437,8.61
1630679021453,7.23
1630679021468,5.78
1630679021484,4.3
1630679021500,2.84
1630679021515,1.31
1630679021531,-0.41
1630679021546,-2.43
1630679021562,-4.71
1630679021578,-7.08
1630679021593,-9.32
1630679021609,-11.22
1630679021625,-12.74
1630679021640,-13.93
1630679021656,-14.91
1630679021671,-15.72
1630679021687,-16.32
1630679021703,-16.62
1630679021718,-16.53
1630679021734,-16.04
1630679021750,-15.24
1630679021765,-14.26
1630679021781,-13.23
1630679021796,-12.22
1630679021812,-11.24
1630679021828,-10.28
1630679021843,-9.35
1630679021859,-8.47
1630679021875,-7.7
1630679021890,-7.04
1630679021906,-6.5
1630679021921,-5.99
1630679021937,-5.43
1630679021953,-4.75
1630679021968,-3.94
1630679021984,-3.05
1630679022000,-2.14
1630679022015,-1.24
1630679022031,-0.37
1630679022046,0.42
1630679022062,1.09
1630679022078,1.52
1630679022093,1.65
1630679022109,1.48
1630679022125,1.16
1630679022140,0.92
1630679022156,1.0
1630679022171,1.57
1630679022187,2.63
1630679022203,4.06
1630679022218,5.66
1630679022234,7.23
1630679022250,8.61
1630679022265,9.64
1630679022281,10.2
1630679022296,10.21
1630679022312,9.66
1630679022328,8.68
1630679022343,7.45
1630679022359,6.23
1630679022375,5.19
1630679022390,4.45
1630679022406,4.01
1630679022421,3.81
1630679022437,3.81
1630679022453,3.97
1630679022468,4.26
1630679022484,4.65
1630679022500,5.08
1630679022515,5.48
1630679022531,5.85
1630679022546,6.25
1630679022562,6.8
1630679022578,7.6
1630679022593,8.66
1630679022609,9.91
1630679022625,11.18
1630679022640,12.33
1630679022656,13.35
1630679022671,14.33
1630679022687,15.42
1630679022703,16.74
1630679022718,18.28
1630679022734,19.87
1630679022750,21.32
1630679022765,22.44
1630679022781,23.16
1630679022796,23.51
1630679022812,23.6
1630679022828,23.51
1630679022843,23.25
1630679022859,22.79
1630679022875,22.08
1630679022890,21.14
1630679022906,20.04
1630679022921,18.87
1630679022937,17.72
1630679022953,16.66
1630679022968,15.65
1630679022984,14.63
1630679023000,13.56
1630679023015,12.42
1630679023031,11.22
1630679023046,9.94
1630679023062,8.59
1630679023078,7.13
1630679023093,5.58
1630679023109,3.99
1630679023125,2.49
1630679023140,1.23
1630679023156,0.28
1630679023171,-0.39
1630679023187,-0.91
1630679023203,-1.42
1630679023218,-2.03
1630679023234,-2.75
1630679023250,-3.51
1630679023265,-4.2
1630679023281,-4.76
1630679023296,-5.13
1630679023312,-5.35
1630679023328,-5.48
1630679023343,-5.58
1630679023359,-5.68
1630679023375,-5.79
1630679023390,-5.87
1630679023406,-5.91
1630679023421,-5.92
1630679023437,-5.96
1630679023453,-6.11
1630679023468,-6.4
1630679023484,-6.76
1630679023500,-7.05
1630679023515,-7.1
1630679023531,-6.84
1630679023546,-6.35
1630679023562,-5.83
1630679023578,-5.56
1630679023593,-5.76
1630679023609,-6.48
1630679023625,-7.62
1630679023640,-8.96
1630679023656,-10.28
1630679023671,-11.47
1630679023687,-12.58
1630679023703,-13.79
1630679023718,-15.38
1630679023734,-17.64
1630679023750,-20.78
1630679023765,-24.86
1630679023781,-29.73
1630679023796,-34.97
1630679023812,-39.95
1630679023828,-43.92
1630679023843,-46.21
1630679023859,-46.46
1630679023875,-44.75
1630679023890,-41.58
1630679023906,-37.69
1630679023921,-33.77
1630679023937,-30.23
1630679023953,-27.15
1630679023968,-24.34
1630679023984,-21.6
1630679024000,-18.82
1630679024015,-16.07
1630679024031,-13.45
1630679024046,-11.03
1630679024062,-8.77
1630679024078,-6.54
1630679024093,-4.27
1630679024109,-1.92
1630679024125,0.39
1630679024140,2.54
1630679024156,4.44
1630679024171,6.08
1630679024187,7.54
1630679024203,8.97
1630679024218,10.5
1630679024234,12.19
1630679024250,14.03
1630679024265,15.92
1630679024281,17.75
1630679024296,19.44
1630679024312,21.0
1630679024328,22.54
1630679024343,24.22
1630679024359,26.2
1630679024375,28.58
1630679024390,31.32
1630679024406,34.25
1630679024421,37.11
1630679024437,39.65
1630679024453,41.65
1630679024468,42.95
1630679024484,43.5
1630679024500,43.29
1630679024515,42.35
1630679024531,40.78
1630679024546,38.69
1630679024562,36.18
1630679024578,33.36
1630679024593,30.31
1630679024609,27.13
1630679024625,23.92
1630679024640,20.85
1630679024656,18.09
1630679024671,15.83
1630679024687,14.13
1630679024703,12.9
1630679024718,11.93
1630679024734,10.99
1630679024750,9.91
1630679024765,8.69
1630679024781,7.51
1630679024796,6.64
1630679024812,6.28
1630679024828,6.49
1630679024843,7.1
1630679024859,7.73
1630679024875,7.88
1630679024890,7.07
1630679024906,4.95
1630679024921,1.49
1630679024937,-3.0
1630679024953,-7.9
1630679024968,-12.38
1630679024984,-15.72
1630679025000,-17.43
1630679025015,-17.43
1630679025031,-16.01
1630679025046,-13.68
1630679025062,-10.96
1630679025078,-8.26
1630679025093,-5.82
1630679025109,-3.76
1630679025125,-2.2
1630679025140,-1.31
1630679025156,-1.27
1630679025171,-2.25
1630679025187,-4.32
1630679025203,-7.46
1630679025218,-11.51
1630679025234,-16.24
1630679025250,-21.37
1630679025265,-26.56
1630679025281,-31.44
1630679025296,-35.67
1630679025312,-38.98
1630679025328,-41.31
1630679025343,-42.77
1630679025359,-43.65
1630679025375,-44.32
1630679025390,-45.05
1630679025406,-46.0
1630679025421,-47.15
1630679025437,-48.36
1630679025453,-49.36
1630679025468,-49.83
1630679025484,-49.4
1630679025500,-47.77
1630679025515,-44.85
1630679025531,-40.81
1630679025546,-36.12
1630679025562,-31.42
1630679025578,-27.3
1630679025593,-24.07
1630679025609,-21.75
1630679025625,-20.07
1630679025640,-18.68
1630679025656,-17.35
1630679025671,-16.03
1630679025687,-14.86
1630679025703,-13.98
1630679025718,-13.44
1630679025734,-13.06
1630679025750,-12.48
1630679025765,-11.33
1630679025781,-9.38
1630679025796,-6.64
1630679025812,-3.38
1630679025828,-0.01
1630679025843,3.13
1630679025859,5.83
1630679025875,8.05
1630679025890,9.83
1630679025906,11.25
1630679025921,12.37
1630679025937,13.24
1630679025953,13.89
1630679025968,14.38
1630679025984,14.76
1630679026000,15.08
1630679026015,15.31
1630679026031,15.43
1630679026046,15.39
1630679026062,15.17
1630679026078,14.76
1630679026093,14.15
1630679026109,13.42
1630679026125,12.65
1630679026140,11.98
1630679026156,11.5
1630679026171,11.2
1630679026187,10.99
1630679026203,10.72
1630679026218,10.28
1630679026234,9.69
1630679026250,9.05
1630679026265,8.51
1630679026281,8.16
1630679026296,7.97
1630679026312,7.8
1630679026328,7.52
1630679026343,7.05
1630679026359,6.38
1630679026375,5.58
1630679026390,4.69
1630679026406,3.74
1630679026421,2.72
1630679026437,1.62
1630679026453,0.49
1630679026468,-0.63
1630679026484,-1.69
1630679026500,-2.7
1630679026515,-3.72
1630679026531,-4.76
1630679026546,-5.76
1630679026562,-6.53
1630679026578,-6.86
1630679026593,-6.53
1630679026609,-5.48
1630679026625,-3.81
1630679026640,-1.79
1630679026656,0.26
1630679026671,2.02
1630679026687,3.34
1630679026703,4.16
1630679026718,4.52
1630679026734,4.5
1630679026750,4.22
1630679026765,3.76
1630679026781,3.27
1630679026796,2.86
1630679026812,2.67
1630679026828,2.76
1630679026843,3.09
1630679026859,3.53
1630679026875,3.88
1630679026890,3.97
1630679026906,3.73
1630679026921,3.21
1630679026937,2.54
1630679026953,1.95
1630679026968,1.63
1630679026984,1.7
1630679027000,2.16
1630679027015,2.86
1630679027031,3.56
1630679027046,4.02
1630679027062,4.06
1630679027078,3.62
1630679027093,2.83
1630679027109,1.9
1630679027125,1.06
1630679027140,0.46
1630679027156,0.11
1630679027171,-0.07
1630679027187,-0.21
1630679027203,-0.38
1630679027218,-0.63
1630679027234,-0.97
1630679027250,-1.4
1630679027265,-1.93
1630679027281,-2.49
1630679027296,-3.02
1630679027312,-3.37
1630679027328,-3.41
1630679027343,-3.1
1630679027359,-2.48
1630679027375,-1.71
1630679027390,-0.99
1630679027406,-0.46
1630679027421,-0.15
1630679027437,0.01
1630679027453,0.18
1630679027468,0.56
1630679027484,1.3
1630679027500,2.43
1630679027515,3.83
1630679027531,5.24
1630679027546,6.37
1630679027562,7.0
1630679027578,7.07
1630679027593,6.75
1630679027609,6.29
1630679027625,5.97
1630679027640,5.89
1630679027656,5.99
1630679027671,6.11
1630679027687,6.05
1630679027703,5.7
1630679027718,5.06
1630679027734,4.21
1630679027750,3.29
1630679027765,2.4
1630679027781,1.64
1630679027796,1.09
1630679027812,0.75
1630679027828,0.57
1630679027843,0.45
1630679027859,0.28
1630679027875,0.01
1630679027890,-0.33
1630679027906,-0.63
1630679027921,-0.8
1630679027937,-0.79
1630679027953,-0.65
1630679027968,-0.54
1630679027984,-0.63
1630679028000,-1.03
1630679028015,-1.7
1630679028031,-2.48
1630679028046,-3.09
1630679028062,-3.26
1630679028078,-2.81
1630679028093,-1.77
1630679028109,-0.3
1630679028125,1.32
1630679028140,2.83
1630679028156,4.11
1630679028171,5.2
1630679028187,6.22
1630679028203,7.33
1630679028218,8.63
1630679028234,10.13
1630679028250,11.74
1630679028265,13.32
1630679028281,14.72
1630679028296,15.87
1630679028312,16.75
1630679028328,17.43
1630679028343,18.05
1630679028359,18.76
1630679028375,19.64
1630679028390,20.75
1630679028406,22.04
1630679028421,23.46
1630679028437,24.97
1630679028453,26.57
1630679028468,28.28
1630679028484,30.08
1630679028500,31.86
1630679028515,33.44
1630679028531,34.6
1630679028546,35.15
1630679028562,34.98
1630679028578,34.1
1630679028593,32.64
1630679028609,30.82
1630679028625,28.87
1630679028640,26.99
1630679028656,25.29
1630679028671,23.73
1630679028687,22.18
1630679028703,20.35
1630679028718,17.93
1630679028734,14.62
1630679028750,10.27
1630679028765,4.98
1630679028781,-0.82
1630679028796,-6.45
1630679028812,-11.09
1630679028828,-14.07
1630679028843,-15.05
1630679028859,-14.12
1630679028875,-11.78
1630679028890,-8.7
1630679028906,-5.51
1630679028921,-2.67
1630679028937,-0.37
1630679028953,1.34
1630679028968,2.43
1630679028984,2.83
1630679029000,2.43
1630679029015,1.13
1630679029031,-1.04
1630679029046,-3.89
1630679029062,-7.09
1630679029078,-10.35
1630679029093,-13.5
1630679029109,-16.59
1630679029125,-19.8
1630679029140,-23.39
1630679029156,-27.48
1630679029171,-32.05
1630679029187,-36.94
1630679029203,-41.9
1630679029218,-46.76
1630679029234,-51.38
1630679029250,-55.72
1630679029265,-59.71
1630679029281,-63.32
1630679029296,-66.45
1630679029312,-68.98
1630679029328,-70.74
1630679029343,-71.52
1630679029359,-71.05
1630679029375,-69.09
1630679029390,-65.58
1630679029406,-60.69
1630679029421,-54.85
1630679029437,-48.6
1630679029453,-42.38
1630679029468,-36.32
1630679029484,-30.3
1630679029500,-24.03
1630679029515,-17.37
1630679029531,-10.47
1630679029546,-3.78
1630679029562,2.11
1630679029578,6.74
1630679029593,10.03
1630679029609,12.21
1630679029625,13.75
1630679029640,15.09
1630679029656,16.47
1630679029671,17.81
1630679029687,18.88
1630679029703,19.4
1630679029718,19.24
1630679029734,18.48
1630679029750,17.39
1630679029765,16.26
1630679029781,15.32
1630679029796,14.61
1630679029812,14.02
1630679029828,13.34
1630679029843,12.47
1630679029859,11.41
1630679029875,10.28
1630679029890,9.28
1630679029906,8.47
1630679029921,7.85
1630679029937,7.27
1630679029953,6.6
1630679029968,5.75
1630679029984,4.71
1630679030000,3.55
1630679030015,2.39
1630679030031,1.31
1630679030046,0.38
1630679030062,-0.37
1630679030078,-0.93
1630679030093,-1.29
1630679030109,-1.4
1630679030125,-1.26
1630679030140,-0.84
1630679030156,-0.22
1630679030171,0.52
1630679030187,1.26
1630679030203,1.94
1630679030218,2.53
1630679030234,3.13
1630679030250,3.82
1630679030265,4.69
1630679030281,5.72
1630679030296,6.84
1630679030312,7.93
1630679030328,8.91
1630679030343,9.75
1630679030359,10.49
1630679030375,11.23
1630679030390,12.02
1630679030406,12.94
1630679030421,14.02
1630679030437,15.37
1630679030453,17.11
1630679030468,19.35
1630679030484,22.1
1630679030500,25.17
1630679030515,28.2
1630679030531,30.78
1630679030546,32.61
1630679030562,33.61
1630679030578,33.93
1630679030593,33.84
1630679030609,33.59
1630679030625,33.28
1630679030640,32.85
1630679030656,32.16
1630679030671,31.07
1630679030687,29.48
1630679030703,27.38
1630679030718,24.84
1630679030734,21.99
1630679030750,19.08
1630679030765,16.44
1630679030781,14.4
1630679030796,13.22
1630679030812,12.9
1630679030828,13.14
1630679030843,13.46
1630679030859,13.27
1630679030875,12.2
1630679030890,10.14
1630679030906,7.38
1630679030921,4.43
1630679030937,1.84
1630679030953,-0.01
1630679030968,-1.11
1630679030984,-1.81
1630679031000,-2.73
1630679031015,-4.46
1630679031031,-7.36
1630679031046,-11.44
1630679031062,-16.36
1630679031078,-21.69
1630679031093,-27.11
1630679031109,-32.54
1630679031125,-38.08
1630679031140,-43.9
1630679031156,-50.06
1630679031171,-56.43
1630679031187,-62.7
1630679031203,-68.43
1630679031218,-73.14
1630679031234,-76.22
1630679031250,-77.07
1630679031265,-75.14
1630679031281,-70.24
1630679031296,-62.74
1630679031312,-53.63
1630679031328,-44.3
1630679031343,-36.06
1630679031359,-29.7
1630679031375,-25.29
1630679031390,-22.21
1630679031406,-19.62
1630679031421,-16.8
1630679031437,-13.46
1630679031453,-9.69
1630679031468,-5.76
1630679031484,-1.88
1630679031500,1.88
1630679031515,5.49
1630679031531,8.91
1630679031546,11.96
1630679031562,14.35
1630679031578,15.87
1630679031593,16.49
1630679031609,16.38
1630679031625,15.88
1630679031640,15.36
1630679031656,15.12
1630679031671,15.25
1630679031687,15.69
1630679031703,16.26
1630679031718,16.73
1630679031734,16.95
1630679031750,16.88
1630679031765,16.64
1630679031781,16.42
1630679031796,16.41
1630679031812,16.68
1630679031828,17.14
1630679031843,17.59
1630679031859,17.78
1630679031875,17.57
1630679031890,17.0
1630679031906,16.26
1630679031921,15.6
1630679031937,15.25
1630679031953,15.31
1630679031968,15.67
1630679031984,16.17
1630679032000,16.62
1630679032015,16.96
1630679032031,17.27
1630679032046,17.79
1630679032062,18.74
1630679032078,20.33
1630679032093,22.61
1630679032109,25.48
1630679032125,28.72
1630679032140,32.06
1630679032156,35.21
1630679032171,37.93
1630679032187,40.01
1630679032203,41.32
1630679032218,41.76
1630679032234,41.36
1630679032250,40.21
1630679032265,38.51
1630679032281,36.47
1630679032296,34.31
1630679032312,32.17
1630679032328,30.1
1630679032343,28.11
1630679032359,26.17
1630679032375,24.3
1630679032390,22.52
1630679032406,20.87
1630679032421,19.38
1630679032437,18.01
1630679032453,16.66
1630679032468,15.15
1630679032484,13.3
1630679032500,10.95
1630679032515,8.0
1630679032531,4.45
1630679032546,0.41
1630679032562,-3.87
1630679032578,-8.08
1630679032593,-11.91
1630679032609,-15.1
1630679032625,-17.56
1630679032640,-19.39
1630679032656,-20.82
1630679032671,-22.21
1630679032687,-23.91
1630679032703,-26.2
1630679032718,-29.26
1630679032734,-33.12
1630679032750,-37.67
1630679032765,-42.64
1630679032781,-47.71
1630679032796,-52.47
1630679032812,-56.55
1630679032828,-59.64
1630679032843,-61.59
1630679032859,-62.47
1630679032875,-62.55
1630679032890,-62.19
1630679032906,-61.7
1630679032921,-61.1
1630679032937,-59.96
1630679032953,-57.59
1630679032968,-53.29
1630679032984,-46.79
1630679033000,-38.52
1630679033015,-29.56
1630679033031,-21.19
1630679033046,-14.35
1630679033062,-9.28
1630679033078,-5.52
1630679033093,-2.25
1630679033109,1.14
1630679033125,4.79
1630679033140,8.31
1630679033156,11.18
1630679033171,13.11
1630679033187,14.23
1630679033203,14.97
1630679033218,15.79
1630679033234,16.87
1630679033250,18.02
1630679033265,18.85
1630679033281,18.99
1630679033296,18.31
1630679033312,16.92
1630679033328,15.12
1630679033343,13.22
1630679033359,11.41
1630679033375,9.79
1630679033390,8.38
1630679033406,7.14
1630679033421,6.01
1630679033437,4.94
1630679033453,3.84
1630679033468,2.63
1630679033484,1.35
1630679033500,0.06
1630679033515,-1.05
1630679033531,-1.86
1630679033546,-2.28
1630679033562,-2.38
1630679033578,-2.26
1630679033593,-2.01
1630679033609,-1.65
1630679033625,-1.16
1630679033640,-0.49
1630679033656,0.29
1630679033671,1.08
1630679033687,1.69
1630679033703,2.03
1630679033718,2.13
1630679033734,2.16
1630679033750,2.35
1630679033765,2.85
1630679033781,3.68
1630679033796,4.72
1630679033812,5.79
1630679033828,6.77
1630679033843,7.61
1630679033859,8.32
1630679033875,8.92
1630679033890,9.41
1630679033906,9.75
1630679033921,9.91
1630679033937,9.91
1630679033953,9.78
1630679033968,9.59
1630679033984,9.33
1630679034000,9.0
1630679034015,8.58
1630679034031,8.08
1630679034046,7.55
1630679034062,7.07
1630679034078,6.65
1630679034093,6.26
1630679034109,5.81
1630679034125,5.26
1630679034140,4.63
1630679034156,4.02
1630679034171,3.57
1630679034187,3.37
1630679034203,3.44
1630679034218,3.72
1630679034234,4.12
1630679034250,4.56
1630679034265,5.03
1630679034281,5.53
1630679034296,6.12
1630679034312,6.89
1630679034328,7.93
1630679034343,9.36
1630679034359,11.2
1630679034375,13.38
1630679034390,15.72
1630679034406,17.97
1630679034421,19.91
1630679034437,21.39
1630679034453,22.4
1630679034468,22.95
1630679034484,23.07
1630679034500,22.76
1630679034515,22.0
1630679034531,20.86
1630679034546,19.47
1630679034562,18.02
1630679034578,16.67
1630679034593,15.45
1630679034609,14.27
1630679034625,12.97
1630679034640,11.47
1630679034656,9.78
1630679034671,8.04
1630679034687,6.41
1630679034703,5.01
1630679034718,3.82
1630679034734,2.72
1630679034750,1.57
1630679034765,0.29
1630679034781,-1.16
1630679034796,-2.77
1630679034812,-4.49
1630679034828,-6.27
1630679034843,-8.02
1630679034859,-9.62
1630679034875,-10.92
1630679034890,-11.82
1630679034906,-12.34
1630679034921,-12.63
1630679034937,-12.92
1630679034953,-13.41
1630679034968,-14.21
1630679034984,-15.31
1630679035000,-16.55
1630679035015,-17.76
1630679035031,-18.75
1630679035046,-19.39
1630679035062,-19.59
1630679035078,-19.31
1630679035093,-18.58
1630679035109,-17.47
1630679035125,-16.11
1630679035140,-14.67
1630679035156,-13.32
1630679035171,-12.16
1630679035187,-11.21
1630679035203,-10.43
1630679035218,-9.71
1630679035234,-9.02
1630679035250,-8.35
1630679035265,-7.82
1630679035281,-7.54
1630679035296,-7.63
1630679035312,-8.1
1630679035328,-8.85
1630679035343,-9.68
1630679035359,-10.35
1630679035375,-10.65
1630679035390,-10.47
1630679035406,-9.79
1630679035421,-8.67
1630679035437,-7.21
1630679035453,-5.52
1630679035468,-3.72
1630679035484,-1.93
1630679035500,-0.36
1630679035515,0.82
1630679035531,1.44
1630679035546,1.47
1630679035562,1.02
1630679035578,0.35
1630679035593,-0.23
1630679035609,-0.46
1630679035625,-0.29
1630679035640,0.18
1630679035656,0.67
1630679035671,0.91
1630679035687,0.77
1630679035703,0.32
1630679035718,-0.17
1630679035734,-0.35
1630679035750,0.05
1630679035765,1.18
1630679035781,2.95
1630679035796,5.22
1630679035812,7.74
1630679035828,10.33
1630679035843,12.83
1630679035859,15.15
1630679035875,17.16
1630679035890,18.79
1630679035906,19.95
1630679035921,20.63
1630679035937,20.85
1630679035953,20.75
1630679035968,20.46
1630679035984,20.15
1630679036000,19.91
1630679036015,19.76
1630679036031,19.67
1630679036046,19.58
1630679036062,19.42
1630679036078,19.14
1630679036093,18.77
1630679036109,18.32
1630679036125,17.87
1630679036140,17.49
1630679036156,17.19
1630679036171,16.93
1630679036187,16.6
1630679036203,16.07
1630679036218,15.2
1630679036234,13.93
1630679036250,12.21
1630679036265,10.11
1630679036281,7.69
1630679036296,5.09
1630679036312,2.45
1630679036328,-0.1
1630679036343,-2.45
1630679036359,-4.56
1630679036375,-6.44
1630679036390,-8.15
1630679036406,-9.72
1630679036421,-11.15
1630679036437,-12.35
1630679036453,-13.26
1630679036468,-13.83
1630679036484,-14.14
1630679036500,-14.35
1630679036515,-14.73
1630679036531,-15.56
1630679036546,-17.09
1630679036562,-19.48
1630679036578,-22.68
1630679036593,-26.39
1630679036609,-30.14
1630679036625,-33.38
1630679036640,-35.64
1630679036656,-36.72
1630679036671,-36.61
1630679036687,-35.52
1630679036703,-33.67
1630679036718,-31.29
1630679036734,-28.5
1630679036750,-25.4
1630679036765,-22.06
1630679036781,-18.51
1630679036796,-14.81
1630679036812,-11.0
1630679036828,-7.17
1630679036843,-3.48
1630679036859,-0.16
1630679036875,2.54
1630679036890,4.46
1630679036906,5.57
1630679036921,5.91
1630679036937,5.61
1630679036953,4.77
1630679036968,3.44
1630679036984,1.7
1630679037000,-0.32
1630679037015,-2.38
1630679037031,-4.14
1630679037046,-5.23
1630679037062,-5.35
1630679037078,-4.37
1630679037093,-2.33
1630679037109,0.54
1630679037125,3.85
1630679037140,7.19
1630679037156,10.18
1630679037171,12.63
1630679037187,14.5
1630679037203,15.85
1630679037218,16.84
1630679037234,17.6
1630679037250,18.23
1630679037265,18.78
1630679037281,19.28
1630679037296,19.74
1630679037312,20.13
1630679037328,20.46
1630679037343,20.78
1630679037359,21.23
1630679037375,21.94
1630679037390,22.99
1630679037406,24.36
1630679037421,25.85
1630679037437,27.24
1630679037453,28.34
1630679037468,29.13
1630679037484,29.78
1630679037500,30.59
1630679037515,31.87
1630679037531,33.78
1630679037546,36.26
1630679037562,38.97
1630679037578,41.24
1630679037593,42.19
1630679037609,40.96
1630679037625,36.92
1630679037640,29.9
1630679037656,20.29
1630679037671,8.98
1630679037687,-2.99
1630679037703,-14.61
1630679037718,-25.21
1630679037734,-34.53
1630679037750,-42.71
1630679037765,-50.09
1630679037781,-57.11
1630679037796,-64.01
1630679037812,-70.79
1630679037828,-76.97
1630679037843,-81.68
1630679037859,-83.81
1630679037875,-82.31
1630679037890,-76.67
1630679037906,-67.18
1630679037921,-55.01
1630679037937,-41.86
1630679037953,-29.49
1630679037968,-19.14
1630679037984,-11.29
1630679038000,-5.76
1630679038015,-1.98
1630679038031,0.61
1630679038046,2.36
1630679038062,3.4
1630679038078,3.79
1630679038093,3.71
1630679038109,3.42
1630679038125,3.21
1630679038140,3.25
1630679038156,3.54
1630679038171,3.9
1630679038187,4.09
1630679038203,3.95
1630679038218,3.42
1630679038234,2.58
1630679038250,1.62
1630679038265,0.74
1630679038281,0.1
1630679038296,-0.21
1630679038312,-0.2
1630679038328,0.04
1630679038343,0.45
1630679038359,1.0
1630679038375,1.67
1630679038390,2.49
1630679038406,3.46
1630679038421,4.55
1630679038437,5.68
1630679038453,6.77
1630679038468,7.68
1630679038484,8.33
1630679038500,8.67
1630679038515,8.74
1630679038531,8.64
1630679038546,8.52
1630679038562,8.47
1630679038578,8.49
1630679038593,8.52
1630679038609,8.45
1630679038625,8.22
1630679038640,7.85
1630679038656,7.41
1630679038671,6.97
1630679038687,6.53
1630679038703,6.04
1630679038718,5.42
1630679038734,4.66
1630679038750,3.84
1630679038765,3.06
1630679038781,2.43
1630679038796,1.95
1630679038812,1.57
1630679038828,1.17
1630679038843,0.67
1630679038859,0.02
1630679038875,-0.79
1630679038890,-1.72
1630679038906,-2.71
1630679038921,-3.63
1630679038937,-4.31
1630679038953,-4.55
1630679038968,-4.21
1630679038984,-3.3
1630679039000,-1.96
1630679039015,-0.45
1630679039031,0.97
1630679039046,2.11
1630679039062,2.93
1630679039078,3.53
1630679039093,4.03
1630679039109,4.53
1630679039125,5.04
1630679039140,5.49
1630679039156,5.77
1630679039171,5.81
1630679039187,5.63
1630679039203,5.32
1630679039218,5.0
1630679039234,4.78
1630679039250,4.71
1630679039265,4.78
1630679039281,4.91
1630679039296,5.06
1630679039312,5.19
1630679039328,5.3
1630679039343,5.36
1630679039359,5.32
1630679039375,5.11
1630679039390,4.67
1630679039406,3.98
1630679039421,3.1
1630679039437,2.16
1630679039453,1.28
1630679039468,0.61
1630679039484,0.18
1630679039500,-0.1
1630679039515,-0.39
1630679039531,-0.92
1630679039546,-1.82
1630679039562,-3.12
1630679039578,-4.63
1630679039593,-6.04
1630679039609,-6.98
1630679039625,-7.19
1630679039640,-6.64
1630679039656,-5.54
1630679039671,-4.18
1630679039687,-2.87
1630679039703,-1.75
1630679039718,-0.83
1630679039734,0.01
1630679039750,0.81
1630679039765,1.56
1630679039781,2.19
1630679039796,2.61
1630679039812,2.84
1630679039828,2.95
1630679039843,3.09
1630679039859,3.32
1630679039875,3.62
1630679039890,3.9
1630679039906,4.05
1630679039921,4.02
1630679039937,3.87
1630679039953,3.7
1630679039968,3.55
1630679039984,3.45
1630679040000,3.35
1630679040015,3.2
1630679040031,2.98
1630679040046,2.7
1630679040062,2.41
1630679040078,2.14
1630679040093,1.89
1630679040109,1.66
1630679040125,1.41
1630679040140,1.14
1630679040156,0.85
1630679040171,0.57
1630679040187,0.25
1630679040203,-0.16
1630679040218,-0.74
1630679040234,-1.55
1630679040250,-2.59
1630679040265,-3.76
1630679040281,-4.92
1630679040296,-5.87
1630679040312,-6.46
1630679040328,-6.53
1630679040343,-6.01
1630679040359,-4.97
1630679040375,-3.52
1630679040390,-1.89
1630679040406,-0.29
1630679040421,1.12
1630679040437,2.3
1630679040453,3.26
1630679040468,4.03
1630679040484,4.6
1630679040500,4.9
1630679040515,4.86
1630679040531,4.52
1630679040546,4.03
1630679040562,3.56
1630679040578,3.28
1630679040593,3.22
1630679040609,3.31
1630679040625,3.47
1630679040640,3.61
1630679040656,3.74
1630679040671,3.83
1630679040687,3.89
1630679040703,3.87
1630679040718,3.69
1630679040734,3.33
1630679040750,2.83
1630679040765,2.25
1630679040781,1.68
1630679040796,1.17
1630679040812,0.72
1630679040828,0.29
1630679040843,-0.13
1630679040859,-0.59
1630679040875,-1.11
1630679040890,-1.73
1630679040906,-2.48
1630679040921,-3.39
1630679040937,-4.42
1630679040953,-5.51
1630679040968,-6.52
1630679040984,-7.25
1630679041000,-7.53
1630679041015,-7.23
1630679041031,-6.35
1630679041046,-5.03
1630679041062,-3.53
1630679041078,-2.09
1630679041093,-0.91
1630679041109,-0.02
1630679041125,0.69
1630679041140,1.37
1630679041156,2.11
1630679041171,2.91
1630679041187,3.63
1630679041203,4.12
1630679041218,4.29
1630679041234,4.18
1630679041250,3.94
1630679041265,3.75
1630679041281,3.7
1630679041296,3.79
1630679041312,3.95
1630679041328,4.09
1630679041343,4.19
1630679041359,4.26
1630679041375,4.35
1630679041390,4.45
1630679041406,4.47
1630679041421,4.29
1630679041437,3.82
1630679041453,3.1
1630679041468,2.29
1630679041484,1.58
1630679041500,1.14
1630679041515,0.99
1630679041531,0.99
1630679041546,0.94
1630679041562,0.64
1630679041578,0.03
1630679041593,-0.86
1630679041609,-1.91
1630679041625,-3.02
1630679041640,-4.12
1630679041656,-5.26
1630679041671,-6.43
1630679041687,-7.58
1630679041703,-8.56
1630679041718,-9.17
1630679041734,-9.26
1630679041750,-8.79
1630679041765,-7.85
1630679041781,-6.59
1630679041796,-5.23
1630679041812,-3.89
1630679041828,-2.65
1630679041843,-1.52
1630679041859,-0.5
1630679041875,0.41
1630679041890,1.19
1630679041906,1.83
1630679041921,2.34
1630679041937,2.73
1630679041953,3.04
1630679041968,3.27
1630679041984,3.45
1630679042000,3.6
1630679042015,3.76
1630679042031,3.95
1630679042046,4.17
1630679042062,4.4
1630679042078,4.58
1630679042093,4.68
1630679042109,4.65
1630679042125,4.5
1630679042140,4.24
1630679042156,3.84
1630679042171,3.31
1630679042187,2.67
1630679042203,1.98
1630679042218,1.33
1630679042234,0.81
1630679042250,0.43
1630679042265,0.15
1630679042281,-0.12
1630679042296,-0.45
1630679042312,-0.83
1630679042328,-1.22
1630679042343,-1.55
1630679042359,-1.84
1630679042375,-2.14
1630679042390,-2.54
1630679042406,-3.14
1630679042421,-3.97
1630679042437,-5.0
1630679042453,-6.14
1630679042468,-7.24
1630679042484,-8.12
1630679042500,-8.55
1630679042515,-8.4
1630679042531,-7.62
1630679042546,-6.37
1630679042562,-4.86
1630679042578,-3.37
1630679042593,-2.07
1630679042609,-1.02
1630679042625,-0.14
1630679042640,0.65
1630679042656,1.4
1630679042671,2.09
1630679042687,2.67
1630679042703,3.11
1630679042718,3.45
1630679042734,3.71
1630679042750,3.93
1630679042765,4.07
1630679042781,4.1
1630679042796,4.01
1630679042812,3.85
1630679042828,3.7
1630679042843,3.63
1630679042859,3.67
1630679042875,3.76
1630679042890,3.82
1630679042906,3.8
1630679042921,3.67
1630679042937,3.48
1630679042953,3.24
1630679042968,2.94
1630679042984,2.55
1630679043000,2.07
1630679043015,1.52
1630679043031,0.97
1630679043046,0.5
1630679043062,0.15
1630679043078,-0.09
1630679043093,-0.3
1630679043109,-0.55
1630679043125,-0.91
1630679043140,-1.38
1630679043156,-1.95
1630679043171,-2.55
1630679043187,-3.16
1630679043203,-3.76
1630679043218,-4.37
1630679043234,-5.03
1630679043250,-5.76
1630679043265,-6.52
1630679043281,-7.18
1630679043296,-7.58
1630679043312,-7.54
1630679043328,-6.97
1630679043343,-5.9
1630679043359,-4.48
1630679043375,-2.93
1630679043390,-1.46
1630679043406,-0.2
1630679043421,0.82
1630679043437,1.62
1630679043453,2.22
1630679043468,2.62
1630679043484,2.79
1630679043500,2.71
1630679043515,2.42
1630679043531,2.04
1630679043546,1.69
1630679043562,1.47
1630679043578,1.39
1630679043593,1.41
1630679043609,1.42
1630679043625,1.41
1630679043640,1.4
1630679043656,1.46
1630679043671,1.61
1630679043687,1.85
1630679043703,2.09
1630679043718,2.25
1630679043734,2.29
1630679043750,2.19
1630679043765,1.98
1630679043781,1.68
1630679043796,1.28
1630679043812,0.77
1630679043828,0.18
1630679043843,-0.45
1630679043859,-1.05
1630679043875,-1.57
1630679043890,-1.99
1630679043906,-2.38
1630679043921,-2.83
1630679043937,-3.43
1630679043953,-4.23
1630679043968,-5.2
1630679043984,-6.17
1630679044000,-6.95
1630679044015,-7.31
1630679044031,-7.11
1630679044046,-6.35
1630679044062,-5.18
1630679044078,-3.81
1630679044093,-2.44
1630679044109,-1.18
1630679044125,-0.04
1630679044140,1.02
1630679044156,2.0
1630679044171,2.86
1630679044187,3.47
1630679044203,3.74
1630679044218,3.64
1630679044234,3.23
1630679044250,2.68
1630679044265,2.16
1630679044281,1.84
1630679044296,1.78
1630679044312,1.98
1630679044328,2.36
1630679044343,2.78
1630679044359,3.13
1630679044375,3.31
1630679044390,3.31
1630679044406,3.16
1630679044421,2.91
1630679044437,2.63
1630679044453,2.31
1630679044468,1.95
1630679044484,1.55
1630679044500,1.11
1630679044515,0.68
1630679044531,0.3
1630679044546,-0.0
1630679044562,-0.26
1630679044578,-0.53
1630679044593,-0.91
1630679044609,-1.46
1630679044625,-2.22
1630679044640,-3.19
1630679044656,-4.29
1630679044671,-5.41
1630679044687,-6.44
1630679044703,-7.21
1630679044718,-7.62
1630679044734,-7.59
1630679044750,-7.1
1630679044765,-6.2
1630679044781,-4.95
1630679044796,-3.5
1630679044812,-1.99
1630679044828,-0.59
1630679044843,0.58
1630679044859,1.42
1630679044875,1.9
1630679044890,2.07
1630679044906,2.06
1630679044921,2.0
1630679044937,2.0
1630679044953,2.13
1630679044968,2.4
1630679044984,2.78
1630679045000,3.25
1630679045015,3.75
1630679045031,4.26
1630679045046,4.71
1630679045062,5.06
1630679045078,5.28
1630679045093,5.34
1630679045109,5.26
1630679045125,5.1
1630679045140,4.92
1630679045156,4.81
1630679045171,4.78
1630679045187,4.73
1630679045203,4.5
1630679045218,3.92
1630679045234,2.87
1630679045250,1.36
1630679045265,-0.42
1630679045281,-2.24
1630679045296,-3.86
1630679045312,-5.16
1630679045328,-6.14
1630679045343,-6.94
1630679045359,-7.67
1630679045375,-8.43
1630679045390,-9.22
1630679045406,-10.02
1630679045421,-10.73
1630679045437,-11.28
1630679045453,-11.53
1630679045468,-11.32
1630679045484,-10.51
1630679045500,-9.05
1630679045515,-7.08
1630679045531,-4.85
1630679045546,-2.73
1630679045562,-1.01
1630679045578,0.2
1630679045593,1.03
1630679045609,1.67
1630679045625,2.35
1630679045640,3.13
1630679045656,3.96
1630679045671,4.7
1630679045687,5.27
1630679045703,5.66
1630679045718,5.93
1630679045734,6.16
1630679045750,6.34
1630679045765,6.42
1630679045781,6.35
1630679045796,6.09
1630679045812,5.65
1630679045828,5.13
1630679045843,4.63
1630679045859,4.24
1630679045875,3.99
1630679045890,3.85
1630679045906,3.75
1630679045921,3.62
1630679045937,3.36
1630679045953,2.94
1630679045968,2.33
1630679045984,1.58
1630679046000,0.74
1630679046015,-0.12
1630679046031,-0.92
1630679046046,-1.62
1630679046062,-2.19
1630679046078,-2.6
1630679046093,-2.9
1630679046109,-3.18
1630679046125,-3.55
1630679046140,-4.12
1630679046156,-4.94
1630679046171,-6.0
1630679046187,-7.16
1630679046203,-8.22
1630679046218,-8.96
1630679046234,-9.16
1630679046250,-8.76
1630679046265,-7.79
1630679046281,-6.44
1630679046296,-4.91
1630679046312,-3.39
1630679046328,-2.03
1630679046343,-0.89
1630679046359,0.02
1630679046375,0.71
1630679046390,1.26
1630679046406,1.72
1630679046421,2.11
1630679046437,2.44
1630679046453,2.64
1630679046468,2.66
1630679046484,2.52
1630679046500,2.27
1630679046515,2.05
1630679046531,2.02
1630679046546,2.24
1630679046562,2.67
1630679046578,3.21
1630679046593,3.74
1630679046609,4.18
1630679046625,4.5
1630679046640,4.73
1630679046656,4.84
1630679046671,4.81
1630679046687,4.59
1630679046703,4.18
1630679046718,3.59
1630679046734,2.9
1630679046750,2.18
1630679046765,1.49
1630679046781,0.85
1630679046796,0.26
1630679046812,-0.29
1630679046828,-0.78
1630679046843,-1.2
1630679046859,-1.56
1630679046875,-1.91
1630679046890,-2.34
1630679046906,-2.96
1630679046921,-3.82
1630679046937,-4.87
1630679046953,-5.91
1630679046968,-6.69
1630679046984,-6.99
1630679047000,-6.68
1630679047015,-5.83
1630679047031,-4.59
1630679047046,-3.18
1630679047062,-1.73
1630679047078,-0.32
1630679047093,1.05
1630679047109,2.37
1630679047125,3.55
1630679047140,4.43
1630679047156,4.88
1630679047171,4.85
1630679047187,4.51
1630679047203,4.08
1630679047218,3.83
1630679047234,3.89
1630679047250,4.19
1630679047265,4.57
1630679047281,4.82
1630679047296,4.84
1630679047312,4.68
1630679047328,4.47
1630679047343,4.35
1630679047359,4.36
1630679047375,4.42
1630679047390,4.44
1630679047406,4.32
1630679047421,4.05
1630679047437,3.62
1630679047453,3.06
1630679047468,2.37
1630679047484,1.59
1630679047500,0.8
1630679047515,0.1
1630679047531,-0.42
1630679047546,-0.75
1630679047562,-0.98
1630679047578,-1.21
1630679047593,-1.57
1630679047609,-2.09
1630679047625,-2.77
1630679047640,-3.56
1630679047656,-4.44
1630679047671,-5.39
1630679047687,-6.34
1630679047703,-7.15
1630679047718,-7.63
1630679047734,-7.59
1630679047750,-6.9
1630679047765,-5.6
1630679047781,-3.89
1630679047796,-2.04
1630679047812,-0.35
1630679047828,1.0
1630679047843,1.91
1630679047859,2.38
1630679047875,2.52
1630679047890,2.45
1630679047906,2.31
1630679047921,2.25
1630679047937,2.32
1630679047953,2.56
1630679047968,2.94
1630679047984,3.36
1630679048000,3.75
1630679048015,4.03
1630679048031,4.17
1630679048046,4.17
1630679048062,4.07
1630679048078,3.93
1630679048093,3.8
1630679048109,3.68
1630679048125,3.58
1630679048140,3.45
1630679048156,3.26
1630679048171,2.99
1630679048187,2.65
1630679048203,2.27
1630679048218,1.88
1630679048234,1.5
1630679048250,1.13
1630679048265,0.74
1630679048281,0.28
1630679048296,-0.29
1630679048312,-0.95
1630679048328,-1.65
1630679048343,-2.34
1630679048359,-2.95
1630679048375,-3.5
1630679048390,-4.03
1630679048406,-4.65
1630679048421,-5.42
1630679048437,-6.36
1630679048453,-7.39
1630679048468,-8.32
1630679048484,-8.92
1630679048500,-8.98
1630679048515,-8.42
1630679048531,-7.27
1630679048546,-5.69
1630679048562,-3.9
1630679048578,-2.13
1630679048593,-0.53
1630679048609,0.83
1630679048625,1.93
1630679048640,2.8
1630679048656,3.41
1630679048671,3.78
1630679048687,3.91
1630679048703,3.91
1630679048718,3.89
1630679048734,4.01
1630679048750,4.36
1630679048765,4.89
1630679048781,5.48
1630679048796,5.95
1630679048812,6.15
1630679048828,6.07
1630679048843,5.77
1630679048859,5.4
1630679048875,5.08
1630679048890,4.86
1630679048906,4.72
1630679048921,4.58
1630679048937,4.34
1630679048953,3.97
1630679048968,3.48
1630679048984,2.9
1630679049000,2.28
1630679049015,1.65
1630679049031,1.0
1630679049046,0.34
1630679049062,-0.3
1630679049078,-0.88
1630679049093,-1.38
1630679049109,-1.78
1630679049125,-2.13
1630679049140,-2.48
1630679049156,-2.9
1630679049171,-3.45
1630679049187,-4.17
1630679049203,-5.04
1630679049218,-6.02
1630679049234,-7.0
1630679049250,-7.88
1630679049265,-8.5
1630679049281,-8.76
1630679049296,-8.61
1630679049312,-8.1
1630679049328,-7.33
1630679049343,-6.38
1630679049359,-5.33
1630679049375,-4.19
1630679049390,-2.97
1630679049406,-1.72
1630679049421,-0.51
1630679049437,0.55
1630679049453,1.38
1630679049468,1.95
1630679049484,2.28
1630679049500,2.48
1630679049515,2.65
1630679049531,2.86
1630679049546,3.14
1630679049562,3.44
1630679049578,3.69
1630679049593,3.83
1630679049609,3.87
1630679049625,3.82
1630679049640,3.74
1630679049656,3.69
1630679049671,3.67
1630679049687,3.71
1630679049703,3.8
1630679049718,3.93
1630679049734,4.09
1630679049750,4.27
1630679049765,4.4
1630679049781,4.4
1630679049796,4.23
1630679049812,3.86
1630679049828,3.33
1630679049843,2.72
1630679049859,2.11
1630679049875,1.54
1630679049890,1.01
1630679049906,0.49
1630679049921,-0.08
1630679049937,-0.72
1630679049953,-1.42
1630679049968,-2.1
1630679049984,-2.71
1630679050000,-3.21
1630679050015,-3.64
1630679050031,-4.11
1630679050046,-4.74
1630679050062,-5.62
1630679050078,-6.68
1630679050093,-7.72
1630679050109,-8.5
1630679050125,-8.79
1630679050140,-8.46
1630679050156,-7.57
1630679050171,-6.25
1630679050187,-4.7
1630679050203,-3.09
1630679050218,-1.52
1630679050234,-0.05
1630679050250,1.24
1630679050265,2.27
1630679050281,2.96
1630679050296,3.26
1630679050312,3.23
1630679050328,2.98
1630679050343,2.67
1630679050359,2.44
1630679050375,2.36
1630679050390,2.4
1630679050406,2.5
1630679050421,2.58
1630679050437,2.63
1630679050453,2.7
1630679050468,2.86
1630679050484,3.15
1630679050500,3.56
1630679050515,3.98
1630679050531,4.28
1630679050546,4.3
1630679050562,4.01
1630679050578,3.46
1630679050593,2.79
1630679050609,2.16
1630679050625,1.66
1630679050640,1.29
1630679050656,0.98
1630679050671,0.65
1630679050687,0.28
1630679050703,-0.13
1630679050718,-0.55
1630679050734,-0.99
1630679050750,-1.48
1630679050765,-2.05
1630679050781,-2.71
1630679050796,-3.42
1630679050812,-4.13
1630679050828,-4.81
1630679050843,-5.47
1630679050859,-6.15
1630679050875,-6.8
1630679050890,-7.33
1630679050906,-7.59
1630679050921,-7.43
1630679050937,-6.8
1630679050953,-5.75
1630679050968,-4.41
1630679050984,-2.93
1630679051000,-1.46
1630679051015,-0.07
1630679051031,1.16
1630679051046,2.21
1630679051062,3.08
1630679051078,3.73
1630679051093,4.16
1630679051109,4.37
1630679051125,4.38
1630679051140,4.24
1630679051156,4.01
1630679051171,3.77
1630679051187,3.6
1630679051203,3.56
1630679051218,3.69
1630679051234,3.96
1630679051250,4.31
1630679051265,4.62
1630679051281,4.75
1630679051296,4.61
1630679051312,4.16
1630679051328,3.48
1630679051343,2.72
1630679051359,2.03
1630679051375,1.53
1630679051390,1.25
1630679051406,1.1
1630679051421,0.95
1630679051437,0.7
1630679051453,0.31
1630679051468,-0.23
1630679051484,-0.85
1630679051500,-1.54
1630679051515,-2.25
1630679051531,-2.96
1630679051546,-3.64
1630679051562,-4.26
1630679051578,-4.8
1630679051593,-5.31
1630679051609,-5.89
1630679051625,-6.62
1630679051640,-7.51
1630679051656,-8.46
1630679051671,-9.23
1630679051687,-9.53
1630679051703,-9.16
1630679051718,-8.06
1630679051734,-6.38
1630679051750,-4.42
1630679051765,-2.51
1630679051781,-0.9
1630679051796,0.29
1630679051812,1.1
1630679051828,1.67
1630679051843,2.12
1630679051859,2.51
1630679051875,2.85
1630679051890,3.09
1630679051906,3.23
1630679051921,3.32
1630679051937,3.43
1630679051953,3.63
1630679051968,3.9
1630679051984,4.13
1630679052000,4.21
1630679052015,4.1
1630679052031,3.85
1630679052046,3.58
1630679052062,3.43
1630679052078,3.43
1630679052093,3.53
1630679052109,3.62
1630679052125,3.61
1630679052140,3.49
1630679052156,3.26
1630679052171,2.96
1630679052187,2.56
1630679052203,2.02
1630679052218,1.31
1630679052234,0.49
1630679052250,-0.36
1630679052265,-1.14
1630679052281,-1.77
1630679052296,-2.23
1630679052312,-2.56
1630679052328,-2.8
1630679052343,-3.04
1630679052359,-3.36
1630679052375,-3.87
1630679052390,-4.67
1630679052406,-5.8
1630679052421,-7.18
1630679052437,-8.62
1630679052453,-9.87
1630679052468,-10.66
1630679052484,-10.79
1630679052500,-10.19
1630679052515,-8.93
1630679052531,-7.2
1630679052546,-5.26
1630679052562,-3.37
1630679052578,-1.77
1630679052593,-0.57
1630679052609,0.25
1630679052625,0.83
1630679052640,1.34
1630679052656,1.92
1630679052671,2.6
1630679052687,3.31
1630679052703,3.93
1630679052718,4.37
1630679052734,4.63
1630679052750,4.76
1630679052765,4.85
1630679052781,4.96
1630679052796,5.09
1630679052812,5.17
1630679052828,5.18
1630679052843,5.12
1630679052859,5.02
1630679052875,4.93
1630679052890,4.87
1630679052906,4.83
1630679052921,4.78
1630679052937,4.68
1630679052953,4.51
1630679052968,4.28
1630679052984,4.0
1630679053000,3.68
1630679053015,3.33
1630679053031,2.93
1630679053046,2.49
1630679053062,1.98
1630679053078,1.4
1630679053093,0.75
1630679053109,0.05
1630679053125,-0.67
1630679053140,-1.4
1630679053156,-2.11
1630679053171,-2.82
1630679053187,-3.53
1630679053203,-4.25
1630679053218,-4.98
1630679053234,-5.72
1630679053250,-6.48
1630679053265,-7.3
1630679053281,-8.16
1630679053296,-9.0
1630679053312,-9.67
1630679053328,-9.98
1630679053343,-9.76
1630679053359,-8.92
1630679053375,-7.56
1630679053390,-5.85
1630679053406,-4.03
1630679053421,-2.31
1630679053437,-0.77
1630679053453,0.55
1630679053468,1.67
1630679053484,2.57
1630679053500,3.25
1630679053515,3.67
1630679053531,3.86
1630679053546,3.9
1630679053562,3.85
1630679053578,3.79
1630679053593,3.73
1630679053609,3.69
1630679053625,3.68
1630679053640,3.76
1630679053656,3.95
1630679053671,4.25
1630679053687,4.61
1630679053703,4.95
1630679053718,5.18
1630679053734,5.24
1630679053750,5.1
1630679053765,4.8
1630679053781,4.39
1630679053796,3.94
1630679053812,3.55
1630679053828,3.29
1630679053843,3.16
1630679053859,3.07
1630679053875,2.9
1630679053890,2.52
1630679053906,1.89
1630679053921,1.07
1630679053937,0.21
1630679053953,-0.57
1630679053968,-1.19
1630679053984,-1.67
1630679054000,-2.07
1630679054015,-2.47
1630679054031,-2.93
1630679054046,-3.51
1630679054062,-4.25
1630679054078,-5.17
1630679054093,-6.24
1630679054109,-7.27
1630679054125,-8.03
1630679054140,-8.24
1630679054156,-7.74
1630679054171,-6.54
1630679054187,-4.84
1630679054203,-2.92
1630679054218,-1.08
1630679054234,0.48
1630679054250,1.69
1630679054265,2.57
1630679054281,3.22
1630679054296,3.73
1630679054312,4.15
1630679054328,4.47
1630679054343,4.61
1630679054359,4.52
1630679054375,4.17
1630679054390,3.66
1630679054406,3.2
1630679054421,3.03
1630679054437,3.31
1630679054453,3.99
1630679054468,4.88
1630679054484,5.68
1630679054500,6.13
1630679054515,6.11
1630679054531,5.69
1630679054546,5.01
1630679054562,4.26
1630679054578,3.54
1630679054593,2.93
1630679054609,2.46
1630679054625,2.11
1630679054640,1.83
1630679054656,1.56
1630679054671,1.18
1630679054687,0.62
1630679054703,-0.12
1630679054718,-0.98
1630679054734,-1.84
1630679054750,-2.62
1630679054765,-3.28
1630679054781,-3.9
1630679054796,-4.57
1630679054812,-5.4
1630679054828,-6.42
1630679054843,-7.55
1630679054859,-8.63
1630679054875,-9.41
1630679054890,-9.66
1630679054906,-9.26
1630679054921,-8.2
1630679054937,-6.67
1630679054953,-4.9
1630679054968,-3.14
1630679054984,-1.52
1630679055000,-0.12
1630679055015,1.1
1630679055031,2.14
1630679055046,2.99
1630679055062,3.64
1630679055078,4.05
1630679055093,4.26
1630679055109,4.31
1630679055125,4.27
1630679055140,4.19
1630679055156,4.09
1630679055171,4.01
1630679055187,3.99
1630679055203,4.08
1630679055218,4.28
1630679055234,4.54
1630679055250,4.77
1630679055265,4.9
1630679055281,4.89
1630679055296,4.75
1630679055312,4.52
1630679055328,4.23
1630679055343,3.9
1630679055359,3.5
1630679055375,3.03
1630679055390,2.48
1630679055406,1.87
1630679055421,1.23
1630679055437,0.57
1630679055453,-0.13
1630679055468,-0.88
1630679055484,-1.67
1630679055500,-2.48
1630679055515,-3.25
1630679055531,-3.98
1630679055546,-4.68
1630679055562,-5.41
1630679055578,-6.21
1630679055593,-7.11
1630679055609,-8.02
1630679055625,-8.84
1630679055640,-9.4
1630679055656,-9.58
1630679055671,-9.33
1630679055687,-8.66
1630679055703,-7.61
1630679055718,-6.27
1630679055734,-4.74
1630679055750,-3.13
1630679055765,-1.56
1630679055781,-0.16
1630679055796,1.01
1630679055812,1.93
1630679055828,2.65
1630679055843,3.25
1630679055859,3.76
1630679055875,4.22
1630679055890,4.56
1630679055906,4.75
1630679055921,4.81
1630679055937,4.8
1630679055953,4.8
1630679055968,4.91
1630679055984,5.13
1630679056000,5.41
1630679056015,5.68
1630679056031,5.86
1630679056046,5.91
1630679056062,5.83
1630679056078,5.59
1630679056093,5.22
1630679056109,4.74
1630679056125,4.23
1630679056140,3.77
1630679056156,3.41
1630679056171,3.15
1630679056187,2.93
1630679056203,2.65
1630679056218,2.22
1630679056234,1.62
1630679056250,0.9
1630679056265,0.1
1630679056281,-0.72
1630679056296,-1.56
1630679056312,-2.4
1630679056328,-3.2
1630679056343,-3.91
1630679056359,-4.45
1630679056375,-4.82
1630679056390,-5.08
1630679056406,-5.4
1630679056421,-5.93
1630679056437,-6.74
1630679056453,-7.75
1630679056468,-8.7
1630679056484,-9.25
1630679056500,-9.12
1630679056515,-8.15
1630679056531,-6.47
1630679056546,-4.35
1630679056562,-2.21
1630679056578,-0.38
1630679056593,0.92
1630679056609,1.73
1630679056625,2.21
1630679056640,2.56
1630679056656,2.97
1630679056671,3.47
1630679056687,4.03
1630679056703,4.54
1630679056718,4.93
1630679056734,5.15
1630679056750,5.25
1630679056765,5.27
1630679056781,5.23
1630679056796,5.17
1630679056812,5.09
1630679056828,5.01
1630679056843,4.99
1630679056859,5.07
1630679056875,5.24
1630679056890,5.43
1630679056906,5.48
1630679056921,5.25
1630679056937,4.7
1630679056953,3.94
1630679056968,3.14
1630679056984,2.47
1630679057000,2.03
1630679057015,1.75
1630679057031,1.5
1630679057046,1.12
1630679057062,0.54
1630679057078,-0.21
1630679057093,-1.02
1630679057109,-1.8
1630679057125,-2.48
1630679057140,-3.06
1630679057156,-3.55
1630679057171,-3.97
1630679057187,-4.32
1630679057203,-4.63
1630679057218,-4.96
1630679057234,-5.37
1630679057250,-5.92
1630679057265,-6.6
1630679057281,-7.29
1630679057296,-7.82
1630679057312,-7.96
1630679057328,-7.58
1630679057343,-6.65
1630679057359,-5.26
1630679057375,-3.6
1630679057390,-1.87
1630679057406,-0.26
1630679057421,1.1
1630679057437,2.13
1630679057453,2.85
1630679057468,3.31
1630679057484,3.62
1630679057500,3.89
1630679057515,4.2
1630679057531,4.57
1630679057546,4.92
1630679057562,5.18
1630679057578,5.25
1630679057593,5.08
1630679057609,4.74
1630679057625,4.34
1630679057640,4.04
1630679057656,3.96
1630679057671,4.15
1630679057687,4.53
1630679057703,4.96
1630679057718,5.26
1630679057734,5.3
1630679057750,5.05
1630679057765,4.59
1630679057781,4.03
1630679057796,3.5
1630679057812,3.06
1630679057828,2.68
1630679057843,2.29
1630679057859,1.8
1630679057875,1.16
1630679057890,0.39
1630679057906,-0.43
1630679057921,-1.23
1630679057937,-1.98
1630679057953,-2.71
1630679057968,-3.46
1630679057984,-4.28
1630679058000,-5.14
1630679058015,-5.95
1630679058031,-6.6
1630679058046,-7.04
1630679058062,-7.25
1630679058078,-7.25
1630679058093,-7.03
1630679058109,-6.51
1630679058125,-5.62
1630679058140,-4.32
1630679058156,-2.71
1630679058171,-1.01
1630679058187,0.53
1630679058203,1.73
1630679058218,2.54
1630679058234,3.01
1630679058250,3.27
1630679058265,3.44
1630679058281,3.55
1630679058296,3.64
1630679058312,3.72
1630679058328,3.81
1630679058343,3.93
1630679058359,4.07
1630679058375,4.22
1630679058390,4.34
1630679058406,4.45
1630679058421,4.55
1630679058437,4.66
1630679058453,4.79
1630679058468,4.89
1630679058484,4.94
1630679058500,4.9
1630679058515,4.73
1630679058531,4.43
1630679058546,4.01
1630679058562,3.51
1630679058578,2.99
1630679058593,2.55
1630679058609,2.26
1630679058625,2.11
1630679058640,2.03
1630679058656,1.87
1630679058671,1.48
1630679058687,0.79
1630679058703,-0.16
1630679058718,-1.21
1630679058734,-2.14
1630679058750,-2.81
1630679058765,-3.2
1630679058781,-3.43
1630679058796,-3.73
1630679058812,-4.3
1630679058828,-5.25
1630679058843,-6.5
1630679058859,-7.78
1630679058875,-8.79
1630679058890,-9.24
1630679058906,-8.98
1630679058921,-8.07
1630679058937,-6.7
1630679058953,-5.11
1630679058968,-3.54
1630679058984,-2.11
1630679059000,-0.9
1630679059015,0.09
1630679059031,0.85
1630679059046,1.36
1630679059062,1.62
1630679059078,1.66
1630679059093,1.54
1630679059109,1.35
1630679059125,1.22
1630679059140,1.2
1630679059156,1.31
1630679059171,1.51
1630679059187,1.72
1630679059203,1.87
1630679059218,1.92
1630679059234,1.91
1630679059250,1.91
1630679059265,1.99
1630679059281,2.18
1630679059296,2.44
1630679059312,2.66
1630679059328,2.72
1630679059343,2.53
1630679059359,2.08
1630679059375,1.45
1630679059390,0.8
1630679059406,0.28
1630679059421,-0.01
1630679059437,-0.05
1630679059453,0.07
1630679059468,0.2
1630679059484,0.2
1630679059500,-0.04
1630679059515,-0.53
1630679059531,-1.22
1630679059546,-2.01
1630679059562,-2.82
1630679059578,-3.58
1630679059593,-4.28
1630679059609,-4.89
1630679059625,-5.4
1630679059640,-5.83
1630679059656,-6.21
1630679059671,-6.61
1630679059687,-7.08
1630679059703,-7.63
1630679059718,-8.14
1630679059734,-8.4
1630679059750,-8.17
1630679059765,-7.3
1630679059781,-5.84
1630679059796,-4.01
1630679059812,-2.15
1630679059828,-0.56
1630679059843,0.61
1630679059859,1.36
1630679059875,1.87
1630679059890,2.27
1630679059906,2.67
1630679059921,3.05
1630679059937,3.35
1630679059953,3.52
1630679059968,3.57
1630679059984,3.57
1630679060000,3.59
1630679060015,3.66
1630679060031,3.73
1630679060046,3.71
1630679060062,3.54
1630679060078,3.22
1630679060093,2.84
1630679060109,2.54
1630679060125,2.4
1630679060140,2.41
1630679060156,2.43
1630679060171,2.3
1630679060187,1.9
1630679060203,1.23
1630679060218,0.38
1630679060234,-0.47
1630679060250,-1.14
1630679060265,-1.55
1630679060281,-1.63
1630679060296,-1.44
1630679060312,-1.06
1630679060328,-0.61
1630679060343,-0.25
1630679060359,-0.1
1630679060375,-0.22
1630679060390,-0.58
1630679060406,-1.08
1630679060421,-1.6
1630679060437,-2.08
1630679060453,-2.51
1630679060468,-2.98
1630679060484,-3.57
1630679060500,-4.31
1630679060515,-5.18
1630679060531,-6.09
1630679060546,-6.98
1630679060562,-7.75
1630679060578,-8.35
1630679060593,-8.64
1630679060609,-8.49
1630679060625,-7.77
1630679060640,-6.48
1630679060656,-4.76
1630679060671,-2.88
1630679060687,-1.14
1630679060703,0.24
1630679060718,1.18
1630679060734,1.74
1630679060750,2.02
1630679060765,2.13
1630679060781,2.11
1630679060796,1.99
1630679060812,1.84
1630679060828,1.73
1630679060843,1.79
1630679060859,2.04
1630679060875,2.44
1630679060890,2.91
1630679060906,3.33
1630679060921,3.67
1630679060937,3.93
1630679060953,4.15
1630679060968,4.3
1630679060984,4.37
1630679061000,4.32
1630679061015,4.11
1630679061031,3.79
1630679061046,3.41
1630679061062,3.05
1630679061078,2.75
1630679061093,2.52
1630679061109,2.33
1630679061125,2.13
1630679061140,1.83
1630679061156,1.39
1630679061171,0.77
1630679061187,0.02
1630679061203,-0.77
1630679061218,-1.49
1630679061234,-2.03
1630679061250,-2.33
1630679061265,-2.45
1630679061281,-2.51
1630679061296,-2.67
1630679061312,-3.1
1630679061328,-3.89
1630679061343,-5.01
1630679061359,-6.26
1630679061375,-7.38
1630679061390,-8.05
1630679061406,-8.1
1630679061421,-7.49
1630679061437,-6.34
1630679061453,-4.85
1630679061468,-3.23
1630679061484,-1.63
1630679061500,-0.14
1630679061515,1.17
1630679061531,2.26
1630679061546,3.07
1630679061562,3.62
1630679061578,3.93
1630679061593,4.1
1630679061609,4.18
1630679061625,4.18
1630679061640,4.06
1630679061656,3.78
1630679061671,3.39
1630679061687,2.96
1630679061703,2.67
1630679061718,2.63
1630679061734,2.89
1630679061750,3.39
1630679061765,3.96
1630679061781,4.47
1630679061796,4.8
1630679061812,4.9
1630679061828,4.81
1630679061843,4.55
1630679061859,4.18
