timestamp,bvp
1629880721625,-525.98
1629880721640,-488.04
1629880721656,-445.81
1629880721671,-407.8
1629880721687,-381.2
1629880721703,-369.85
1629880721718,-369.77
1629880721734,-372.6
1629880721750,-367.76
1629880721765,-345.55
1629880721781,-300.56
1629880721796,-233.61
1629880721812,-152.0
1629880721828,-68.14
1629880721843,3.28
1629880721859,51.54
1629880721875,71.62
1629880721890,65.5
1629880721906,40.68
1629880721921,6.43
1629880721937,-29.75
1629880721953,-64.11
1629880721968,-95.7
1629880721984,-126.56
1629880722000,-159.14
1629880722015,-195.27
1629880722031,-235.79
1629880722046,-281.07
1629880722062,-331.4
1629880722078,-386.13
1629880722093,-441.75
1629880722109,-491.08
1629880722125,-524.79
1629880722140,-534.15
1629880722156,-514.77
1629880722171,-469.0
1629880722187,-405.66
1629880722203,-336.7
1629880722218,-272.8
1629880722234,-219.75
1629880722250,-177.93
1629880722265,-144.07
1629880722281,-113.71
1629880722296,-82.01
1629880722312,-44.59
1629880722328,2.08
1629880722343,59.59
1629880722359,126.21
1629880722375,196.31
1629880722390,260.92
1629880722406,310.05
1629880722421,332.45
1629880722437,321.96
1629880722453,282.02
1629880722468,226.03
1629880722484,170.71
1629880722500,127.87
1629880722515,100.86
1629880722531,86.35
1629880722546,78.8
1629880722562,73.92
1629880722578,69.9
1629880722593,65.5
1629880722609,58.85
1629880722625,46.94
1629880722640,27.52
1629880722656,1.77
1629880722671,-24.75
1629880722687,-43.93
1629880722703,-48.39
1629880722718,-32.69
1629880722734,-0.18
1629880722750,39.01
1629880722765,72.54
1629880722781,91.44
1629880722796,93.77
1629880722812,84.18
1629880722828,70.45
1629880722843,59.72
1629880722859,56.36
1629880722875,61.95
1629880722890,76.2
1629880722906,97.5
1629880722921,122.6
1629880722937,146.45
1629880722953,162.9
1629880722968,166.46
1629880722984,154.82
1629880723000,129.85
1629880723015,96.04
1629880723031,62.85
1629880723046,38.88
1629880723062,28.02
1629880723078,28.93
1629880723093,37.21
1629880723109,47.18
1629880723125,56.34
1629880723140,63.7
1629880723156,68.61
1629880723171,70.28
1629880723187,67.76
1629880723203,60.65
1629880723218,49.82
1629880723234,37.12
1629880723250,24.2
1629880723265,11.71
1629880723281,-2.0
1629880723296,-17.78
1629880723312,-37.5
1629880723328,-62.65
1629880723343,-93.36
1629880723359,-128.28
1629880723375,-165.01
1629880723390,-201.22
1629880723406,-235.46
1629880723421,-267.73
1629880723437,-299.21
1629880723453,-332.08
1629880723468,-368.92
1629880723484,-411.85
1629880723500,-461.28
1629880723515,-514.65
1629880723531,-565.87
1629880723546,-606.24
1629880723562,-627.08
1629880723578,-622.75
1629880723593,-593.19
1629880723609,-543.95
1629880723625,-484.01
1629880723640,-422.47
1629880723656,-365.54
1629880723671,-315.6
1629880723687,-271.97
1629880723703,-232.93
1629880723718,-197.18
1629880723734,-164.41
1629880723750,-134.59
1629880723765,-107.24
1629880723781,-81.3
1629880723796,-55.61
1629880723812,-29.74
1629880723828,-4.2
1629880723843,19.88
1629880723859,41.31
1629880723875,59.67
1629880723890,75.51
1629880723906,90.11
1629880723921,104.77
1629880723937,120.21
1629880723953,136.33
1629880723968,152.41
1629880723984,167.62
1629880724000,181.53
1629880724015,194.43
1629880724031,207.39
1629880724046,222.1
1629880724062,240.48
1629880724078,263.79
1629880724093,291.71
1629880724109,321.43
1629880724125,347.8
1629880724140,364.59
1629880724156,366.78
1629880724171,352.69
1629880724187,324.88
1629880724203,289.25
1629880724218,252.72
1629880724234,220.7
1629880724250,195.58
1629880724265,176.98
1629880724281,163.25
1629880724296,153.12
1629880724312,146.68
1629880724328,144.89
1629880724343,148.63
1629880724359,157.55
1629880724375,169.78
1629880724390,182.39
1629880724406,192.3
1629880724421,197.1
1629880724437,195.59
1629880724453,187.85
1629880724468,174.83
1629880724484,157.93
1629880724500,138.52
1629880724515,117.76
1629880724531,96.68
1629880724546,76.36
1629880724562,58.06
1629880724578,43.09
1629880724593,32.53
1629880724609,26.74
1629880724625,25.17
1629880724640,26.38
1629880724656,28.58
1629880724671,30.21
1629880724687,30.48
1629880724703,29.57
1629880724718,28.35
1629880724734,27.75
1629880724750,28.22
1629880724765,29.33
1629880724781,30.0
1629880724796,28.95
1629880724812,25.37
1629880724828,19.26
1629880724843,11.46
1629880724859,3.17
1629880724875,-4.54
1629880724890,-11.16
1629880724906,-16.69
1629880724921,-21.37
1629880724937,-25.3
1629880724953,-28.25
1629880724968,-29.74
1629880724984,-29.39
1629880725000,-27.18
1629880725015,-23.56
1629880725031,-19.3
1629880725046,-15.19
1629880725062,-11.79
1629880725078,-9.32
1629880725093,-7.62
1629880725109,-6.38
1629880725125,-5.28
1629880725140,-4.16
1629880725156,-3.08
1629880725171,-2.32
1629880725187,-2.11
1629880725203,-2.47
1629880725218,-3.15
1629880725234,-3.67
1629880725250,-3.72
1629880725265,-3.39
1629880725281,-3.15
1629880725296,-3.65
1629880725312,-5.21
1629880725328,-7.57
1629880725343,-9.92
1629880725359,-11.35
1629880725375,-11.27
1629880725390,-9.77
1629880725406,-7.45
1629880725421,-5.1
1629880725437,-3.23
1629880725453,-1.88
1629880725468,-0.72
1629880725484,0.63
1629880725500,2.33
1629880725515,4.34
1629880725531,6.45
1629880725546,8.57
1629880725562,10.73
1629880725578,12.93
1629880725593,14.9
1629880725609,15.89
1629880725625,14.87
1629880725640,11.0
1629880725656,4.21
1629880725671,-4.55
1629880725687,-13.57
1629880725703,-21.04
1629880725718,-25.89
1629880725734,-28.14
1629880725750,-28.63
1629880725765,-28.38
1629880725781,-27.89
1629880725796,-26.92
1629880725812,-24.84
1629880725828,-21.19
1629880725843,-16.19
1629880725859,-10.72
1629880725875,-5.92
1629880725890,-2.69
1629880725906,-1.39
1629880725921,-1.82
1629880725937,-3.52
1629880725953,-6.02
1629880725968,-9.03
1629880725984,-12.5
1629880726000,-16.4
1629880726015,-20.67
1629880726031,-24.9
1629880726046,-28.33
1629880726062,-29.88
1629880726078,-28.56
1629880726093,-23.93
1629880726109,-16.52
1629880726125,-7.86
1629880726140,0.08
1629880726156,5.62
1629880726171,8.11
1629880726187,8.05
1629880726203,6.73
1629880726218,5.42
1629880726234,4.76
1629880726250,4.62
1629880726265,4.46
1629880726281,3.95
1629880726296,3.24
1629880726312,2.96
1629880726328,3.7
1629880726343,5.54
1629880726359,7.88
1629880726375,9.82
1629880726390,10.67
1629880726406,10.41
1629880726421,9.71
1629880726437,9.43
1629880726453,10.06
1629880726468,11.33
1629880726484,12.4
1629880726500,12.31
1629880726515,10.66
1629880726531,7.81
1629880726546,4.68
1629880726562,2.22
1629880726578,0.91
1629880726593,0.64
1629880726609,0.9
1629880726625,1.21
1629880726640,1.32
1629880726656,1.28
1629880726671,1.15
1629880726687,0.93
1629880726703,0.5
1629880726718,-0.15
1629880726734,-0.85
1629880726750,-1.32
1629880726765,-1.36
1629880726781,-1.08
1629880726796,-0.88
1629880726812,-1.11
1629880726828,-1.85
1629880726843,-2.74
1629880726859,-3.1
1629880726875,-2.41
1629880726890,-0.62
1629880726906,1.76
1629880726921,3.87
1629880726937,4.91
1629880726953,4.57
1629880726968,3.13
1629880726984,1.28
1629880727000,-0.15
1629880727015,-0.5
1629880727031,0.55
1629880727046,2.99
1629880727062,6.41
1629880727078,10.06
1629880727093,12.93
1629880727109,13.97
1629880727125,12.6
1629880727140,9.06
1629880727156,4.61
1629880727171,1.12
1629880727187,0.37
1629880727203,3.11
1629880727218,8.59
1629880727234,14.7
1629880727250,18.82
1629880727265,18.99
1629880727281,14.71
1629880727296,7.19
1629880727312,-1.15
1629880727328,-7.55
1629880727343,-9.87
1629880727359,-7.19
1629880727375,-0.27
1629880727390,8.35
1629880727406,14.73
1629880727421,14.36
1629880727437,3.72
1629880727453,-18.1
1629880727468,-48.4
1629880727484,-81.07
1629880727500,-108.32
1629880727515,-123.27
1629880727531,-122.29
1629880727546,-106.08
1629880727562,-79.11
1629880727578,-47.72
1629880727593,-18.0
1629880727609,5.64
1629880727625,20.9
1629880727640,27.22
1629880727656,25.24
1629880727671,16.53
1629880727687,3.56
1629880727703,-10.33
1629880727718,-21.4
1629880727734,-26.36
1629880727750,-23.47
1629880727765,-13.17
1629880727781,1.94
1629880727796,17.97
1629880727812,31.08
1629880727828,38.67
1629880727843,40.07
1629880727859,36.39
1629880727875,29.78
1629880727890,22.47
1629880727906,16.08
1629880727921,11.36
1629880727937,8.33
1629880727953,6.72
1629880727968,6.13
1629880727984,6.22
1629880728000,6.66
1629880728015,7.08
1629880728031,7.11
1629880728046,6.54
1629880728062,5.41
1629880728078,4.02
1629880728093,2.8
1629880728109,2.13
1629880728125,2.18
1629880728140,2.89
1629880728156,4.05
1629880728171,5.39
1629880728187,6.6
1629880728203,7.42
1629880728218,7.64
1629880728234,7.16
1629880728250,6.09
1629880728265,4.77
1629880728281,3.6
1629880728296,2.92
1629880728312,2.8
1629880728328,3.02
1629880728343,3.23
1629880728359,3.14
1629880728375,2.73
1629880728390,2.3
1629880728406,2.29
1629880728421,3.15
1629880728437,5.02
1629880728453,7.76
1629880728468,10.87
1629880728484,13.68
1629880728500,15.52
1629880728515,15.95
1629880728531,14.92
1629880728546,12.78
1629880728562,10.15
1629880728578,7.68
1629880728593,5.76
1629880728609,4.42
1629880728625,3.39
1629880728640,2.37
1629880728656,1.21
1629880728671,0.0
1629880728687,-1.01
1629880728703,-1.71
1629880728718,-2.18
1629880728734,-2.7
1629880728750,-3.57
1629880728765,-4.85
1629880728781,-6.29
1629880728796,-7.44
1629880728812,-7.86
1629880728828,-7.4
1629880728843,-6.28
1629880728859,-5.04
1629880728875,-4.27
1629880728890,-4.41
1629880728906,-5.56
1629880728921,-7.54
1629880728937,-9.94
1629880728953,-12.32
1629880728968,-14.3
1629880728984,-15.57
1629880729000,-15.96
1629880729015,-15.38
1629880729031,-13.9
1629880729046,-11.73
1629880729062,-9.2
1629880729078,-6.72
1629880729093,-4.57
1629880729109,-2.87
1629880729125,-1.57
1629880729140,-0.52
1629880729156,0.42
1629880729171,1.3
1629880729187,2.12
1629880729203,2.9
1629880729218,3.69
1629880729234,4.59
1629880729250,5.7
1629880729265,6.98
1629880729281,8.21
1629880729296,8.96
1629880729312,8.64
1629880729328,6.71
1629880729343,2.9
1629880729359,-2.63
1629880729375,-9.19
1629880729390,-15.75
1629880729406,-21.23
1629880729421,-24.91
1629880729437,-26.6
1629880729453,-26.67
1629880729468,-25.77
1629880729484,-24.47
1629880729500,-23.11
1629880729515,-21.77
1629880729531,-20.47
1629880729546,-19.31
1629880729562,-18.49
1629880729578,-18.17
1629880729593,-18.28
1629880729609,-18.42
1629880729625,-18.03
1629880729640,-16.63
1629880729656,-14.11
1629880729671,-10.84
1629880729687,-7.58
1629880729703,-5.13
1629880729718,-4.06
1629880729734,-4.51
1629880729750,-6.17
1629880729765,-8.51
1629880729781,-10.86
1629880729796,-12.7
1629880729812,-13.7
1629880729828,-13.8
1629880729843,-13.14
1629880729859,-11.97
1629880729875,-10.49
1629880729890,-8.74
1629880729906,-6.58
1629880729921,-3.82
1629880729937,-0.41
1629880729953,3.37
1629880729968,6.96
1629880729984,9.75
1629880730000,11.37
1629880730015,11.84
1629880730031,11.59
1629880730046,11.18
1629880730062,11.04
1629880730078,11.26
1629880730093,11.58
1629880730109,11.57
1629880730125,10.81
1629880730140,9.08
1629880730156,6.5
1629880730171,3.49
1629880730187,0.64
1629880730203,-1.46
1629880730218,-2.47
1629880730234,-2.38
1629880730250,-1.53
1629880730265,-0.36
1629880730281,0.73
1629880730296,1.58
1629880730312,2.26
1629880730328,2.83
1629880730343,3.29
1629880730359,3.47
1629880730375,3.15
1629880730390,2.29
1629880730406,1.11
1629880730421,0.02
1629880730437,-0.57
1629880730453,-0.5
1629880730468,0.05
1629880730484,0.6
1629880730500,0.57
1629880730515,-0.46
1629880730531,-2.53
1629880730546,-5.29
1629880730562,-8.05
1629880730578,-10.02
1629880730593,-10.54
1629880730609,-9.37
1629880730625,-6.73
1629880730640,-3.3
1629880730656,0.1
1629880730671,2.78
1629880730687,4.47
1629880730703,5.33
1629880730718,5.79
1629880730734,6.22
1629880730750,6.73
1629880730765,7.11
1629880730781,7.05
1629880730796,6.41
1629880730812,5.39
1629880730828,4.52
1629880730843,4.37
1629880730859,5.21
1629880730875,6.87
1629880730890,8.74
1629880730906,10.04
1629880730921,10.2
1629880730937,9.04
1629880730953,6.93
1629880730968,4.52
1629880730984,2.53
1629880731000,1.33
1629880731015,0.86
1629880731031,0.66
1629880731046,0.16
1629880731062,-0.95
1629880731078,-2.49
1629880731093,-3.9
1629880731109,-4.52
1629880731125,-4.01
1629880731140,-2.56
1629880731156,-0.81
1629880731171,0.57
1629880731187,1.34
1629880731203,1.88
1629880731218,3.0
1629880731234,5.49
1629880731250,9.54
1629880731265,14.58
1629880731281,19.42
1629880731296,22.73
1629880731312,23.55
1629880731328,21.58
1629880731343,17.2
1629880731359,11.26
1629880731375,4.81
1629880731390,-1.12
1629880731406,-5.75
1629880731421,-8.69
1629880731437,-10.03
1629880731453,-10.23
1629880731468,-9.99
1629880731484,-9.93
1629880731500,-10.39
1629880731515,-11.38
1629880731531,-12.73
1629880731546,-14.18
1629880731562,-15.54
1629880731578,-16.6
1629880731593,-17.1
1629880731609,-16.78
1629880731625,-15.47
1629880731640,-13.26
1629880731656,-10.59
1629880731671,-8.11
1629880731687,-6.48
1629880731703,-6.09
1629880731718,-6.99
1629880731734,-8.92
1629880731750,-11.36
1629880731765,-13.77
1629880731781,-15.68
1629880731796,-16.88
1629880731812,-17.48
1629880731828,-17.89
1629880731843,-18.6
1629880731859,-19.89
1629880731875,-21.56
1629880731890,-22.92
1629880731906,-23.0
1629880731921,-20.99
1629880731937,-16.7
1629880731953,-10.58
1629880731968,-3.62
1629880731984,3.1
1629880732000,8.8
1629880732015,13.17
1629880732031,16.27
1629880732046,18.37
1629880732062,19.74
1629880732078,20.57
1629880732093,20.94
1629880732109,20.84
1629880732125,20.26
1629880732140,19.21
1629880732156,17.77
1629880732171,16.09
1629880732187,14.4
1629880732203,12.96
1629880732218,11.98
1629880732234,11.51
1629880732250,11.49
1629880732265,11.63
1629880732281,11.52
1629880732296,10.74
1629880732312,8.88
1629880732328,5.75
1629880732343,1.46
1629880732359,-3.54
1629880732375,-8.47
1629880732390,-12.52
1629880732406,-15.1
1629880732421,-16.09
1629880732437,-15.86
1629880732453,-15.01
1629880732468,-14.07
1629880732484,-13.22
1629880732500,-12.21
1629880732515,-10.53
1629880732531,-7.67
1629880732546,-3.39
1629880732562,2.19
1629880732578,8.61
1629880732593,15.34
1629880732609,21.93
1629880732625,28.19
1629880732640,34.18
1629880732656,40.05
1629880732671,45.74
1629880732687,50.72
1629880732703,54.03
1629880732718,54.62
1629880732734,51.87
1629880732750,46.06
1629880732765,38.44
1629880732781,30.79
1629880732796,24.77
1629880732812,21.24
1629880732828,19.97
1629880732843,19.92
1629880732859,19.72
1629880732875,18.27
1629880732890,14.99
1629880732906,9.93
1629880732921,3.54
1629880732937,-3.51
1629880732953,-10.53
1629880732968,-17.01
1629880732984,-22.7
1629880733000,-27.67
1629880733015,-32.26
1629880733031,-36.9
1629880733046,-41.81
1629880733062,-46.9
1629880733078,-51.78
1629880733093,-55.88
1629880733109,-58.83
1629880733125,-60.62
1629880733140,-61.64
1629880733156,-62.61
1629880733171,-64.27
1629880733187,-67.16
1629880733203,-71.42
1629880733218,-76.77
1629880733234,-82.64
1629880733250,-88.34
1629880733265,-93.43
1629880733281,-97.82
1629880733296,-101.92
1629880733312,-106.47
1629880733328,-112.32
1629880733343,-119.87
1629880733359,-128.59
1629880733375,-136.69
1629880733390,-141.07
1629880733406,-137.93
1629880733421,-123.73
1629880733437,-96.52
1629880733453,-57.11
1629880733468,-9.38
1629880733484,40.28
1629880733500,84.71
1629880733515,117.97
1629880733531,137.02
1629880733546,142.17
1629880733562,136.45
1629880733578,124.12
1629880733593,109.14
1629880733609,94.33
1629880733625,81.21
1629880733640,70.48
1629880733656,62.5
1629880733671,57.46
1629880733687,55.16
1629880733703,54.85
1629880733718,55.14
1629880733734,54.47
1629880733750,51.67
1629880733765,46.48
1629880733781,39.59
1629880733796,32.28
1629880733812,25.84
1629880733828,20.98
1629880733843,17.7
1629880733859,15.45
1629880733875,13.63
1629880733890,11.94
1629880733906,10.47
1629880733921,9.57
1629880733937,9.46
1629880733953,9.96
1629880733968,10.52
1629880733984,10.44
1629880734000,9.23
1629880734015,6.76
1629880734031,3.39
1629880734046,-0.22
1629880734062,-3.3
1629880734078,-5.14
1629880734093,-5.28
1629880734109,-3.67
1629880734125,-0.76
1629880734140,2.54
1629880734156,5.21
1629880734171,6.51
1629880734187,6.44
1629880734203,5.82
1629880734218,5.89
1629880734234,7.65
1629880734250,11.28
1629880734265,15.93
1629880734281,20.15
1629880734296,22.58
1629880734312,22.69
1629880734328,20.91
1629880734343,18.33
1629880734359,15.97
1629880734375,14.27
1629880734390,12.93
1629880734406,11.26
1629880734421,8.73
1629880734437,5.42
1629880734453,1.96
1629880734468,-0.74
1629880734484,-2.01
1629880734500,-1.76
1629880734515,-0.48
1629880734531,1.03
1629880734546,2.02
1629880734562,2.05
1629880734578,1.12
1629880734593,-0.46
1629880734609,-2.28
1629880734625,-4.0
1629880734640,-5.47
1629880734656,-6.76
1629880734671,-8.01
1629880734687,-9.35
1629880734703,-10.74
1629880734718,-11.99
1629880734734,-12.78
1629880734750,-12.85
1629880734765,-12.12
1629880734781,-10.79
1629880734796,-9.24
1629880734812,-7.86
1629880734828,-6.94
1629880734843,-6.44
1629880734859,-6.13
1629880734875,-5.65
1629880734890,-4.74
1629880734906,-3.28
1629880734921,-1.46
1629880734937,0.38
1629880734953,1.78
1629880734968,2.41
1629880734984,2.17
1629880735000,1.31
1629880735015,0.36
1629880735031,-0.04
1629880735046,0.69
1629880735062,2.83
1629880735078,6.22
1629880735093,10.34
1629880735109,14.43
1629880735125,17.67
1629880735140,19.49
1629880735156,19.66
1629880735171,18.39
1629880735187,16.22
1629880735203,13.88
1629880735218,12.09
1629880735234,11.29
1629880735250,11.55
1629880735265,12.45
1629880735281,13.3
1629880735296,13.33
1629880735312,12.12
1629880735328,9.77
1629880735343,6.93
1629880735359,4.52
1629880735375,3.28
1629880735390,3.48
1629880735406,4.8
1629880735421,6.56
1629880735437,8.1
1629880735453,9.09
1629880735468,9.67
1629880735484,10.23
1629880735500,11.14
1629880735515,12.46
1629880735531,13.98
1629880735546,15.33
1629880735562,16.21
1629880735578,16.57
1629880735593,16.56
1629880735609,16.47
1629880735625,16.5
1629880735640,16.77
1629880735656,17.33
1629880735671,18.35
1629880735687,20.07
1629880735703,22.64
1629880735718,25.71
1629880735734,28.06
1629880735750,27.6
1629880735765,21.99
1629880735781,9.7
1629880735796,-9.03
1629880735812,-31.84
1629880735828,-55.01
1629880735843,-74.85
1629880735859,-89.21
1629880735875,-98.17
1629880735890,-103.58
1629880735906,-107.77
1629880735921,-112.25
1629880735937,-117.02
1629880735953,-120.89
1629880735968,-122.33
1629880735984,-120.22
1629880736000,-114.01
1629880736015,-103.35
1629880736031,-87.78
1629880736046,-66.78
1629880736062,-40.38
1629880736078,-9.9
1629880736093,21.82
1629880736109,50.92
1629880736125,73.75
1629880736140,88.15
1629880736156,94.09
1629880736171,93.62
1629880736187,89.77
1629880736203,85.28
1629880736218,81.55
1629880736234,78.4
1629880736250,74.51
1629880736265,68.48
1629880736281,59.61
1629880736296,48.36
1629880736312,36.05
1629880736328,24.17
1629880736343,13.8
1629880736359,5.25
1629880736375,-1.75
1629880736390,-7.72
1629880736406,-13.02
1629880736421,-17.81
1629880736437,-22.16
1629880736453,-26.17
1629880736468,-29.97
1629880736484,-33.52
1629880736500,-36.43
1629880736515,-37.88
1629880736531,-36.82
1629880736546,-32.22
1629880736562,-23.49
1629880736578,-10.71
1629880736593,5.29
1629880736609,22.99
1629880736625,40.54
1629880736640,56.19
1629880736656,68.65
1629880736671,77.16
1629880736687,81.32
1629880736703,80.73
1629880736718,74.96
1629880736734,63.78
1629880736750,47.63
1629880736765,28.0
1629880736781,7.27
1629880736796,-12.03
1629880736812,-27.99
1629880736828,-40.01
1629880736843,-48.77
1629880736859,-55.72
1629880736875,-62.24
1629880736890,-69.07
1629880736906,-76.02
1629880736921,-82.22
1629880736937,-86.63
1629880736953,-88.54
1629880736968,-87.83
1629880736984,-84.93
1629880737000,-80.44
1629880737015,-74.85
1629880737031,-68.44
1629880737046,-61.36
1629880737062,-54.0
1629880737078,-47.0
1629880737093,-40.99
1629880737109,-36.06
1629880737125,-31.4
1629880737140,-25.51
1629880737156,-16.97
1629880737171,-5.39
1629880737187,8.12
1629880737203,21.28
1629880737218,31.61
1629880737234,37.52
1629880737250,38.83
1629880737265,36.51
1629880737281,32.05
1629880737296,26.9
1629880737312,22.3
1629880737328,19.29
1629880737343,18.74
1629880737359,21.1
1629880737375,26.05
1629880737390,32.47
1629880737406,38.91
1629880737421,44.37
1629880737437,48.85
1629880737453,53.25
1629880737468,58.58
1629880737484,65.05
1629880737500,71.45
1629880737515,75.53
1629880737531,75.12
1629880737546,69.31
1629880737562,59.11
1629880737578,47.06
1629880737593,36.15
1629880737609,28.51
1629880737625,24.64
1629880737640,23.47
1629880737656,23.16
1629880737671,21.99
1629880737687,19.12
1629880737703,14.74
1629880737718,9.7
1629880737734,5.0
1629880737750,1.27
1629880737765,-1.41
1629880737781,-3.42
1629880737796,-5.22
1629880737812,-7.14
1629880737828,-9.15
1629880737843,-10.92
1629880737859,-11.92
1629880737875,-11.74
1629880737890,-10.28
1629880737906,-7.85
1629880737921,-5.14
1629880737937,-2.98
1629880737953,-2.02
1629880737968,-2.43
1629880737984,-3.81
1629880738000,-5.33
1629880738015,-6.12
1629880738031,-5.62
1629880738046,-3.91
1629880738062,-1.66
1629880738078,0.24
1629880738093,1.06
1629880738109,0.62
1629880738125,-0.61
1629880738140,-1.81
1629880738156,-2.16
1629880738171,-1.29
1629880738187,0.65
1629880738203,3.04
1629880738218,5.14
1629880738234,6.35
1629880738250,6.4
1629880738265,5.33
1629880738281,3.4
1629880738296,1.05
1629880738312,-1.22
1629880738328,-2.87
1629880738343,-3.53
1629880738359,-3.11
1629880738375,-1.93
1629880738390,-0.52
1629880738406,0.58
1629880738421,1.1
1629880738437,1.16
1629880738453,1.1
1629880738468,1.14
1629880738484,1.21
1629880738500,0.98
1629880738515,0.09
1629880738531,-1.5
1629880738546,-3.42
1629880738562,-5.08
1629880738578,-5.93
1629880738593,-5.84
1629880738609,-5.07
1629880738625,-4.08
1629880738640,-3.24
1629880738656,-2.67
1629880738671,-2.2
1629880738687,-1.56
1629880738703,-0.56
1629880738718,0.87
1629880738734,2.63
1629880738750,4.56
1629880738765,6.46
1629880738781,8.15
1629880738796,9.46
1629880738812,10.24
1629880738828,10.42
1629880738843,10.02
1629880738859,9.22
1629880738875,8.27
1629880738890,7.5
1629880738906,7.13
1629880738921,7.2
1629880738937,7.5
1629880738953,7.67
1629880738968,7.36
1629880738984,6.41
1629880739000,4.95
1629880739015,3.32
1629880739031,1.87
1629880739046,0.75
1629880739062,-0.14
1629880739078,-1.01
1629880739093,-2.01
1629880739109,-3.07
1629880739125,-3.98
1629880739140,-4.52
1629880739156,-4.68
1629880739171,-4.72
1629880739187,-4.99
1629880739203,-5.69
1629880739218,-6.76
1629880739234,-7.88
1629880739250,-8.67
1629880739265,-8.96
1629880739281,-8.86
1629880739296,-8.62
1629880739312,-8.41
1629880739328,-8.15
1629880739343,-7.54
1629880739359,-6.35
1629880739375,-4.63
1629880739390,-2.86
1629880739406,-1.81
1629880739421,-2.14
1629880739437,-4.05
1629880739453,-7.18
1629880739468,-10.75
1629880739484,-13.91
1629880739500,-16.16
1629880739515,-17.45
1629880739531,-18.17
1629880739546,-18.86
1629880739562,-19.95
1629880739578,-21.53
1629880739593,-23.38
1629880739609,-25.12
1629880739625,-26.4
1629880739640,-27.05
1629880739656,-27.2
1629880739671,-27.23
1629880739687,-27.7
1629880739703,-29.16
1629880739718,-32.0
1629880739734,-36.33
1629880739750,-41.96
1629880739765,-48.49
1629880739781,-55.38
1629880739796,-62.0
1629880739812,-67.54
1629880739828,-71.03
1629880739843,-71.43
1629880739859,-67.84
1629880739875,-59.89
1629880739890,-47.97
1629880739906,-33.27
1629880739921,-17.51
1629880739937,-2.5
1629880739953,10.3
1629880739968,20.0
1629880739984,26.27
1629880740000,29.34
1629880740015,29.81
1629880740031,28.57
1629880740046,26.78
1629880740062,25.54
1629880740078,25.68
1629880740093,27.37
1629880740109,30.15
1629880740125,33.05
1629880740140,35.07
1629880740156,35.54
1629880740171,34.42
1629880740187,32.14
1629880740203,29.35
1629880740218,26.64
1629880740234,24.3
1629880740250,22.42
1629880740265,20.98
1629880740281,19.98
1629880740296,19.33
1629880740312,18.79
1629880740328,17.89
1629880740343,16.02
1629880740359,12.74
1629880740375,8.0
1629880740390,2.3
1629880740406,-3.49
1629880740421,-8.39
1629880740437,-11.67
1629880740453,-12.99
1629880740468,-12.45
1629880740484,-10.49
1629880740500,-7.8
1629880740515,-5.17
1629880740531,-3.3
1629880740546,-2.62
1629880740562,-3.13
1629880740578,-4.35
1629880740593,-5.54
1629880740609,-6.05
1629880740625,-5.62
1629880740640,-4.43
1629880740656,-2.99
1629880740671,-1.72
1629880740687,-0.76
1629880740703,0.11
1629880740718,1.23
1629880740734,2.79
1629880740750,4.66
1629880740765,6.4
1629880740781,7.54
1629880740796,7.76
1629880740812,7.06
1629880740828,5.73
1629880740843,4.14
1629880740859,2.6
1629880740875,1.25
1629880740890,0.08
1629880740906,-0.91
1629880740921,-1.69
1629880740937,-2.18
1629880740953,-2.34
1629880740968,-2.27
1629880740984,-2.18
1629880741000,-2.36
1629880741015,-3.05
1629880741031,-4.33
1629880741046,-6.13
1629880741062,-8.28
1629880741078,-10.59
1629880741093,-12.93
1629880741109,-15.18
1629880741125,-17.3
1629880741140,-19.3
1629880741156,-21.23
1629880741171,-23.14
1629880741187,-25.04
1629880741203,-26.82
1629880741218,-28.3
1629880741234,-29.4
1629880741250,-30.11
1629880741265,-30.52
1629880741281,-30.59
1629880741296,-30.12
1629880741312,-28.78
1629880741328,-26.37
1629880741343,-23.09
1629880741359,-19.52
1629880741375,-16.51
1629880741390,-14.59
1629880741406,-13.75
1629880741421,-13.41
1629880741437,-12.91
1629880741453,-12.05
1629880741468,-11.31
1629880741484,-11.55
1629880741500,-13.34
1629880741515,-16.43
1629880741531,-19.71
1629880741546,-21.66
1629880741562,-21.0
1629880741578,-17.07
1629880741593,-9.86
1629880741609,0.29
1629880741625,12.87
1629880741640,27.18
1629880741656,42.19
1629880741671,56.42
1629880741687,68.4
1629880741703,77.17
1629880741718,82.79
1629880741734,86.3
1629880741750,89.14
1629880741765,92.39
1629880741781,96.22
1629880741796,99.96
1629880741812,102.67
1629880741828,103.76
1629880741843,103.32
1629880741859,102.15
1629880741875,101.21
1629880741890,101.21
1629880741906,102.28
1629880741921,103.83
1629880741937,104.81
1629880741953,104.02
1629880741968,100.58
1629880741984,94.26
1629880742000,85.64
1629880742015,75.87
1629880742031,66.26
1629880742046,57.64
1629880742062,49.98
1629880742078,42.28
1629880742093,32.88
1629880742109,20.11
1629880742125,2.91
1629880742140,-18.6
1629880742156,-43.03
1629880742171,-67.96
1629880742187,-90.53
1629880742203,-108.2
1629880742218,-119.38
1629880742234,-123.7
1629880742250,-121.94
1629880742265,-115.6
1629880742281,-106.34
1629880742296,-95.73
1629880742312,-84.98
1629880742328,-75.06
1629880742343,-66.61
1629880742359,-59.87
1629880742375,-54.63
1629880742390,-50.29
1629880742406,-46.03
1629880742421,-41.18
1629880742437,-35.56
1629880742453,-29.58
1629880742468,-24.1
1629880742484,-20.1
1629880742500,-18.24
1629880742515,-18.69
1629880742531,-21.06
1629880742546,-24.65
1629880742562,-28.71
1629880742578,-32.7
1629880742593,-36.45
1629880742609,-40.11
1629880742625,-44.05
1629880742640,-48.58
1629880742656,-53.76
1629880742671,-59.22
1629880742687,-64.3
1629880742703,-68.19
1629880742718,-70.29
1629880742734,-70.3
1629880742750,-68.33
1629880742765,-64.76
1629880742781,-60.03
1629880742796,-54.53
1629880742812,-48.56
1629880742828,-42.43
1629880742843,-36.4
1629880742859,-30.63
1629880742875,-24.97
1629880742890,-18.83
1629880742906,-11.28
1629880742921,-1.44
1629880742937,10.99
1629880742953,25.36
1629880742968,40.11
1629880742984,53.36
1629880743000,63.73
1629880743015,70.89
1629880743031,75.5
1629880743046,78.74
1629880743062,81.62
1629880743078,84.61
1629880743093,87.75
1629880743109,91.05
1629880743125,94.75
1629880743140,99.13
1629880743156,104.03
1629880743171,108.46
1629880743187,110.73
1629880743203,109.18
1629880743218,102.98
1629880743234,92.65
1629880743250,79.6
1629880743265,65.21
1629880743281,50.05
1629880743296,33.81
1629880743312,16.01
1629880743328,-3.02
1629880743343,-21.63
1629880743359,-37.31
1629880743375,-47.75
1629880743390,-52.02
1629880743406,-50.97
1629880743421,-46.73
1629880743437,-41.63
1629880743453,-37.23
1629880743468,-33.88
1629880743484,-31.08
1629880743500,-28.19
1629880743515,-24.95
1629880743531,-21.61
1629880743546,-18.64
1629880743562,-16.32
1629880743578,-14.51
1629880743593,-12.75
1629880743609,-10.59
1629880743625,-7.85
1629880743640,-4.83
1629880743656,-2.17
1629880743671,-0.58
1629880743687,-0.49
1629880743703,-1.91
1629880743718,-4.44
1629880743734,-7.49
1629880743750,-10.52
1629880743765,-13.16
1629880743781,-15.21
1629880743796,-16.56
1629880743812,-17.08
1629880743828,-16.68
1629880743843,-15.43
1629880743859,-13.6
1629880743875,-11.6
1629880743890,-9.75
1629880743906,-8.02
1629880743921,-6.03
1629880743937,-3.1
1629880743953,1.33
1629880743968,7.44
1629880743984,14.78
1629880744000,22.44
1629880744015,29.23
1629880744031,34.02
1629880744046,35.87
1629880744062,34.11
1629880744078,28.53
1629880744093,19.64
1629880744109,8.85
1629880744125,-1.65
1629880744140,-9.47
1629880744156,-12.9
1629880744171,-11.62
1629880744187,-6.84
1629880744203,-0.75
1629880744218,4.47
1629880744234,7.68
1629880744250,8.99
1629880744265,9.48
1629880744281,10.4
1629880744296,12.46
1629880744312,15.45
1629880744328,18.47
1629880744343,20.38
1629880744359,20.29
1629880744375,17.8
1629880744390,13.09
1629880744406,6.71
1629880744421,-0.67
1629880744437,-8.42
1629880744453,-16.2
1629880744468,-23.85
1629880744484,-31.29
1629880744500,-38.4
1629880744515,-44.88
1629880744531,-50.39
1629880744546,-54.75
1629880744562,-58.17
1629880744578,-61.21
1629880744593,-64.61
1629880744609,-68.79
1629880744625,-73.43
1629880744640,-77.36
1629880744656,-78.99
1629880744671,-77.04
1629880744687,-71.34
1629880744703,-63.17
1629880744718,-54.91
1629880744734,-49.09
1629880744750,-47.31
1629880744765,-49.44
1629880744781,-53.48
1629880744796,-56.06
1629880744812,-53.48
1629880744828,-42.82
1629880744843,-22.75
1629880744859,5.91
1629880744875,40.44
1629880744890,76.81
1629880744906,110.74
1629880744921,138.69
1629880744937,158.47
1629880744953,169.42
1629880744968,172.11
1629880744984,167.97
1629880745000,158.85
1629880745015,146.91
1629880745031,134.37
1629880745046,123.18
1629880745062,114.59
1629880745078,108.76
1629880745093,104.77
1629880745109,100.95
1629880745125,95.54
1629880745140,87.42
1629880745156,76.5
1629880745171,63.7
1629880745187,50.58
1629880745203,38.71
1629880745218,29.22
1629880745234,22.49
1629880745250,18.16
1629880745265,15.46
1629880745281,13.52
1629880745296,11.71
1629880745312,9.69
1629880745328,7.3
1629880745343,4.45
1629880745359,0.98
1629880745375,-3.17
1629880745390,-7.91
1629880745406,-12.92
1629880745421,-17.71
1629880745437,-21.83
1629880745453,-25.05
1629880745468,-27.41
1629880745484,-29.16
1629880745500,-30.56
1629880745515,-31.81
1629880745531,-32.96
1629880745546,-34.11
1629880745562,-35.56
1629880745578,-37.85
1629880745593,-41.64
1629880745609,-47.45
1629880745625,-55.32
1629880745640,-64.55
1629880745656,-73.88
1629880745671,-81.72
1629880745687,-86.76
1629880745703,-88.34
1629880745718,-86.69
1629880745734,-82.73
1629880745750,-77.67
1629880745765,-72.53
1629880745781,-67.9
1629880745796,-63.9
1629880745812,-60.37
1629880745828,-57.12
1629880745843,-54.04
1629880745859,-51.08
1629880745875,-48.13
1629880745890,-45.0
1629880745906,-41.5
1629880745921,-37.53
1629880745937,-33.24
1629880745953,-29.02
1629880745968,-25.33
1629880745984,-22.55
1629880746000,-20.78
1629880746015,-19.9
1629880746031,-19.68
1629880746046,-19.89
1629880746062,-20.46
1629880746078,-21.43
1629880746093,-22.94
1629880746109,-25.19
1629880746125,-28.29
1629880746140,-32.26
1629880746156,-36.92
1629880746171,-41.84
1629880746187,-46.35
1629880746203,-49.6
1629880746218,-50.74
1629880746234,-49.16
1629880746250,-44.74
1629880746265,-37.97
1629880746281,-29.88
1629880746296,-21.67
1629880746312,-14.39
1629880746328,-8.64
1629880746343,-4.45
1629880746359,-1.54
1629880746375,0.55
1629880746390,2.2
1629880746406,3.68
1629880746421,5.22
1629880746437,7.04
1629880746453,9.29
1629880746468,11.92
1629880746484,14.64
1629880746500,16.9
1629880746515,18.09
1629880746531,17.78
1629880746546,15.92
1629880746562,12.83
1629880746578,9.11
1629880746593,5.43
1629880746609,2.41
1629880746625,0.46
1629880746640,-0.3
1629880746656,-0.06
1629880746671,0.63
1629880746687,1.11
1629880746703,0.82
1629880746718,-0.48
1629880746734,-2.58
1629880746750,-4.96
1629880746765,-7.0
1629880746781,-8.25
1629880746796,-8.57
1629880746812,-8.09
1629880746828,-7.12
1629880746843,-5.98
1629880746859,-4.9
1629880746875,-4.05
1629880746890,-3.55
1629880746906,-3.52
1629880746921,-4.02
1629880746937,-5.03
1629880746953,-6.32
1629880746968,-7.49
1629880746984,-8.07
1629880747000,-7.63
1629880747015,-5.91
1629880747031,-2.9
1629880747046,1.18
1629880747062,5.99
1629880747078,11.09
1629880747093,16.09
1629880747109,20.63
1629880747125,24.41
1629880747140,27.29
1629880747156,29.25
1629880747171,30.45
1629880747187,31.07
1629880747203,31.28
1629880747218,31.14
1629880747234,30.51
1629880747250,29.16
1629880747265,26.9
1629880747281,23.75
1629880747296,20.14
1629880747312,16.87
1629880747328,14.93
1629880747343,15.13
1629880747359,17.72
1629880747375,22.2
1629880747390,27.43
1629880747406,32.05
1629880747421,35.09
1629880747437,36.29
1629880747453,36.13
1629880747468,35.41
1629880747484,34.73
1629880747500,34.12
1629880747515,33.06
1629880747531,30.87
1629880747546,27.15
1629880747562,22.06
1629880747578,16.24
1629880747593,10.54
1629880747609,5.64
1629880747625,1.87
1629880747640,-0.8
1629880747656,-2.55
1629880747671,-3.64
1629880747687,-4.18
1629880747703,-4.24
1629880747718,-3.86
1629880747734,-3.08
1629880747750,-2.02
1629880747765,-0.86
1629880747781,0.16
1629880747796,0.74
1629880747812,0.68
1629880747828,-0.06
1629880747843,-1.3
1629880747859,-2.63
1629880747875,-3.65
1629880747890,-4.16
1629880747906,-4.27
1629880747921,-4.4
1629880747937,-5.07
1629880747953,-6.63
1629880747968,-9.1
1629880747984,-12.13
1629880748000,-15.23
1629880748015,-17.97
1629880748031,-20.19
1629880748046,-21.95
1629880748062,-23.47
1629880748078,-25.02
1629880748093,-26.77
1629880748109,-28.81
1629880748125,-30.99
1629880748140,-32.8
1629880748156,-33.26
1629880748171,-31.16
1629880748187,-25.37
1629880748203,-15.51
1629880748218,-2.3
1629880748234,12.45
1629880748250,26.36
1629880748265,37.31
1629880748281,44.24
1629880748296,47.29
1629880748312,47.62
1629880748328,46.64
1629880748343,45.46
1629880748359,44.59
1629880748375,44.0
1629880748390,43.36
1629880748406,42.26
1629880748421,40.31
1629880748437,37.14
1629880748453,32.47
1629880748468,26.24
1629880748484,18.77
1629880748500,10.8
1629880748515,3.44
1629880748531,-2.18
1629880748546,-5.25
1629880748562,-5.73
1629880748578,-4.6
1629880748593,-3.71
1629880748609,-5.04
1629880748625,-9.72
1629880748640,-17.22
1629880748656,-25.22
1629880748671,-30.39
1629880748687,-29.94
1629880748703,-22.96
1629880748718,-11.03
1629880748734,2.41
1629880748750,13.48
1629880748765,19.49
1629880748781,19.81
1629880748796,15.64
1629880748812,9.15
1629880748828,2.41
1629880748843,-3.12
1629880748859,-6.65
1629880748875,-7.85
1629880748890,-6.73
1629880748906,-3.89
1629880748921,-0.62
1629880748937,1.4
1629880748953,0.57
1629880748968,-3.88
1629880748984,-11.49
1629880749000,-20.7
1629880749015,-29.57
1629880749031,-36.54
1629880749046,-41.06
1629880749062,-43.53
1629880749078,-44.82
1629880749093,-45.63
1629880749109,-46.11
1629880749125,-45.85
1629880749140,-44.18
1629880749156,-40.61
1629880749171,-35.11
1629880749187,-28.08
1629880749203,-20.21
1629880749218,-12.19
1629880749234,-4.5
1629880749250,2.62
1629880749265,9.07
1629880749281,14.73
1629880749296,19.43
1629880749312,22.91
1629880749328,25.08
1629880749343,26.1
1629880749359,26.47
1629880749375,26.94
1629880749390,28.3
1629880749406,31.16
1629880749421,35.78
1629880749437,41.96
1629880749453,49.13
1629880749468,56.42
1629880749484,62.87
1629880749500,67.64
1629880749515,70.11
1629880749531,69.94
1629880749546,67.08
1629880749562,61.88
1629880749578,55.09
1629880749593,47.68
1629880749609,40.68
1629880749625,34.7
1629880749640,29.7
1629880749656,25.03
1629880749671,19.69
1629880749687,12.96
1629880749703,4.81
1629880749718,-3.94
1629880749734,-11.93
1629880749750,-17.9
1629880749765,-21.19
1629880749781,-22.11
1629880749796,-21.63
1629880749812,-20.93
1629880749828,-20.8
1629880749843,-21.37
1629880749859,-22.16
1629880749875,-22.44
1629880749890,-21.7
1629880749906,-20.0
1629880749921,-17.97
1629880749937,-16.5
1629880749953,-16.38
1629880749968,-17.78
1629880749984,-20.25
1629880750000,-22.88
1629880750015,-24.76
1629880750031,-25.25
1629880750046,-24.34
1629880750062,-22.47
1629880750078,-20.35
1629880750093,-18.64
1629880750109,-17.76
1629880750125,-17.83
1629880750140,-18.77
1629880750156,-20.4
1629880750171,-22.58
1629880750187,-25.2
1629880750203,-28.18
1629880750218,-31.37
1629880750234,-34.57
1629880750250,-37.48
1629880750265,-39.84
1629880750281,-41.42
1629880750296,-42.06
1629880750312,-41.69
1629880750328,-40.32
1629880750343,-38.03
1629880750359,-34.97
1629880750375,-31.35
1629880750390,-27.36
1629880750406,-23.26
1629880750421,-19.33
1629880750437,-15.85
1629880750453,-13.07
1629880750468,-11.05
1629880750484,-9.61
1629880750500,-8.32
1629880750515,-6.67
1629880750531,-4.31
1629880750546,-1.24
1629880750562,2.21
1629880750578,5.46
1629880750593,7.92
1629880750609,9.24
1629880750625,9.43
1629880750640,8.9
1629880750656,8.46
1629880750671,9.16
1629880750687,11.95
1629880750703,17.28
1629880750718,24.71
1629880750734,32.86
1629880750750,39.77
1629880750765,43.69
1629880750781,43.69
1629880750796,40.08
1629880750812,34.05
1629880750828,26.99
1629880750843,19.76
1629880750859,12.43
1629880750875,4.53
1629880750890,-4.3
1629880750906,-13.84
1629880750921,-23.18
1629880750937,-31.16
1629880750953,-36.99
1629880750968,-40.68
1629880750984,-42.98
1629880751000,-44.97
1629880751015,-47.47
1629880751031,-50.72
1629880751046,-54.3
1629880751062,-57.42
1629880751078,-59.26
1629880751093,-59.16
1629880751109,-56.81
1629880751125,-52.2
1629880751140,-45.61
1629880751156,-37.6
1629880751171,-29.0
1629880751187,-20.7
1629880751203,-13.43
1629880751218,-7.51
1629880751234,-2.8
1629880751250,1.16
1629880751265,4.94
1629880751281,8.84
1629880751296,12.88
1629880751312,16.82
1629880751328,20.44
1629880751343,23.69
1629880751359,26.76
1629880751375,29.92
1629880751390,33.35
1629880751406,36.94
1629880751421,40.33
1629880751437,43.03
1629880751453,44.71
1629880751468,45.32
1629880751484,45.18
1629880751500,44.84
1629880751515,44.88
1629880751531,45.73
1629880751546,47.42
1629880751562,49.52
1629880751578,51.29
1629880751593,51.92
1629880751609,50.82
1629880751625,47.85
1629880751640,43.27
1629880751656,37.58
1629880751671,31.35
1629880751687,25.17
1629880751703,19.66
1629880751718,15.47
1629880751734,13.09
1629880751750,12.53
1629880751765,13.15
1629880751781,13.66
1629880751796,12.72
1629880751812,9.56
1629880751828,4.38
1629880751843,-1.71
1629880751859,-7.26
1629880751875,-11.31
1629880751890,-13.73
1629880751906,-15.13
1629880751921,-16.35
1629880751937,-17.87
1629880751953,-19.6
1629880751968,-21.08
1629880751984,-21.78
1629880752000,-21.49
1629880752015,-20.36
1629880752031,-18.76
1629880752046,-17.07
1629880752062,-15.55
1629880752078,-14.3
1629880752093,-13.33
1629880752109,-12.59
1629880752125,-12.0
1629880752140,-11.56
1629880752156,-11.3
1629880752171,-11.36
1629880752187,-11.87
1629880752203,-12.83
1629880752218,-14.08
1629880752234,-15.27
1629880752250,-15.97
1629880752265,-15.93
1629880752281,-15.12
1629880752296,-13.85
1629880752312,-12.56
1629880752328,-11.68
1629880752343,-11.32
1629880752359,-11.27
1629880752375,-11.05
1629880752390,-10.14
1629880752406,-8.21
1629880752421,-5.26
1629880752437,-1.6
1629880752453,2.27
1629880752468,5.85
1629880752484,8.77
1629880752500,10.8
1629880752515,11.9
1629880752531,12.11
1629880752546,11.65
1629880752562,10.79
1629880752578,9.9
1629880752593,9.3
1629880752609,9.19
1629880752625,9.54
1629880752640,10.21
1629880752656,10.97
1629880752671,11.68
1629880752687,12.32
1629880752703,13.02
1629880752718,13.96
1629880752734,15.31
1629880752750,17.18
1629880752765,19.47
1629880752781,21.86
1629880752796,23.86
1629880752812,24.92
1629880752828,24.63
1629880752843,23.09
1629880752859,20.92
1629880752875,19.21
1629880752890,19.02
1629880752906,20.9
1629880752921,24.42
1629880752937,28.2
1629880752953,30.34
1629880752968,29.2
1629880752984,24.06
1629880753000,15.49
1629880753015,5.22
1629880753031,-4.35
1629880753046,-10.95
1629880753062,-12.93
1629880753078,-9.77
1629880753093,-2.09
1629880753109,8.44
1629880753125,19.38
1629880753140,28.05
1629880753156,32.19
1629880753171,30.64
1629880753187,23.8
1629880753203,13.52
1629880753218,2.51
1629880753234,-6.62
1629880753250,-12.23
1629880753265,-14.1
1629880753281,-13.2
1629880753296,-11.15
1629880753312,-9.46
1629880753328,-9.15
1629880753343,-10.58
1629880753359,-13.62
1629880753375,-17.79
1629880753390,-22.46
1629880753406,-26.91
1629880753421,-30.46
1629880753437,-32.65
1629880753453,-33.5
1629880753468,-33.62
1629880753484,-34.06
1629880753500,-35.88
1629880753515,-39.53
1629880753531,-44.35
1629880753546,-48.58
1629880753562,-49.93
1629880753578,-46.6
1629880753593,-38.27
1629880753609,-26.53
1629880753625,-14.4
1629880753640,-5.23
1629880753656,-1.42
1629880753671,-3.64
1629880753687,-10.81
1629880753703,-20.8
1629880753718,-31.33
1629880753734,-40.55
1629880753750,-47.29
1629880753765,-50.94
1629880753781,-51.28
1629880753796,-48.48
1629880753812,-43.07
1629880753828,-35.95
1629880753843,-28.17
1629880753859,-20.66
1629880753875,-14.09
1629880753890,-8.73
1629880753906,-4.52
1629880753921,-1.1
1629880753937,2.16
1629880753953,6.03
1629880753968,11.18
1629880753984,17.83
1629880754000,25.54
1629880754015,33.29
1629880754031,39.84
1629880754046,44.39
1629880754062,46.92
1629880754078,48.18
1629880754093,49.23
1629880754109,50.76
1629880754125,52.69
1629880754140,54.1
1629880754156,53.78
1629880754171,50.9
1629880754187,45.58
1629880754203,38.97
1629880754218,32.79
1629880754234,28.49
1629880754250,26.58
1629880754265,26.37
1629880754281,26.36
1629880754296,25.03
1629880754312,21.72
1629880754328,16.96
1629880754343,12.27
1629880754359,9.27
1629880754375,8.81
1629880754390,10.52
1629880754406,12.98
1629880754421,14.49
1629880754437,13.94
1629880754453,11.34
1629880754468,7.74
1629880754484,4.69
1629880754500,3.42
1629880754515,4.28
1629880754531,6.62
1629880754546,9.08
1629880754562,10.31
1629880754578,9.6
1629880754593,7.29
1629880754609,4.59
1629880754625,3.01
1629880754640,3.49
1629880754656,5.9
1629880754671,9.1
1629880754687,11.49
1629880754703,11.95
1629880754718,10.36
1629880754734,7.63
1629880754750,5.0
1629880754765,3.34
1629880754781,2.76
1629880754796,2.73
1629880754812,2.61
1629880754828,2.02
1629880754843,1.01
1629880754859,-0.26
1629880754875,-1.71
1629880754890,-3.29
1629880754906,-4.63
1629880754921,-4.75
1629880754937,-2.32
1629880754953,3.52
1629880754968,12.29
1629880754984,21.92
1629880755000,29.35
1629880755015,32.08
1629880755031,29.43
1629880755046,22.96
1629880755062,15.69
1629880755078,10.4
1629880755093,8.25
1629880755109,8.26
1629880755125,8.12
1629880755140,5.66
1629880755156,0.16
1629880755171,-7.3
1629880755187,-14.49
1629880755203,-19.29
1629880755218,-20.76
1629880755234,-19.43
1629880755250,-16.9
1629880755265,-14.91
1629880755281,-14.54
1629880755296,-15.87
1629880755312,-18.2
1629880755328,-20.6
1629880755343,-22.45
1629880755359,-23.72
1629880755375,-24.85
1629880755390,-26.37
1629880755406,-28.56
1629880755421,-31.22
1629880755437,-33.67
1629880755453,-35.03
1629880755468,-34.58
1629880755484,-32.01
1629880755500,-27.64
1629880755515,-22.33
1629880755531,-17.15
1629880755546,-12.96
1629880755562,-10.13
1629880755578,-8.43
1629880755593,-7.16
1629880755609,-5.61
1629880755625,-3.34
1629880755640,-0.38
1629880755656,2.76
1629880755671,5.38
1629880755687,6.83
1629880755703,6.77
1629880755718,5.29
1629880755734,2.92
1629880755750,0.38
1629880755765,-1.6
1629880755781,-2.56
1629880755796,-2.5
1629880755812,-1.8
1629880755828,-1.01
1629880755843,-0.56
1629880755859,-0.64
1629880755875,-1.2
1629880755890,-2.16
1629880755906,-3.55
1629880755921,-5.52
1629880755937,-8.14
1629880755953,-11.21
1629880755968,-14.23
1629880755984,-16.54
1629880756000,-17.68
1629880756015,-17.49
1629880756031,-16.16
1629880756046,-13.99
1629880756062,-11.18
1629880756078,-7.73
1629880756093,-3.59
1629880756109,1.19
1629880756125,6.3
1629880756140,11.3
1629880756156,15.71
1629880756171,19.2
1629880756187,21.7
1629880756203,23.33
1629880756218,24.35
1629880756234,24.97
1629880756250,25.29
1629880756265,25.26
1629880756281,24.67
1629880756296,23.3
1629880756312,21.09
1629880756328,18.21
1629880756343,15.22
1629880756359,12.77
1629880756375,11.41
1629880756390,11.2
1629880756406,11.65
1629880756421,11.86
1629880756437,10.95
1629880756453,8.53
1629880756468,4.85
1629880756484,0.78
1629880756500,-2.62
1629880756515,-4.6
1629880756531,-5.0
1629880756546,-4.33
1629880756562,-3.53
1629880756578,-3.48
1629880756593,-4.71
1629880756609,-7.15
1629880756625,-10.22
1629880756640,-13.2
1629880756656,-15.53
1629880756671,-17.13
1629880756687,-18.38
1629880756703,-19.95
1629880756718,-22.41
1629880756734,-25.96
1629880756750,-30.3
1629880756765,-34.7
1629880756781,-38.25
1629880756796,-40.01
1629880756812,-39.14
1629880756828,-35.01
1629880756843,-27.33
1629880756859,-16.33
1629880756875,-2.9
1629880756890,11.51
1629880756906,25.35
1629880756921,37.35
1629880756937,46.86
1629880756953,53.71
1629880756968,57.85
1629880756984,58.95
1629880757000,56.4
1629880757015,49.74
1629880757031,39.29
1629880757046,26.52
1629880757062,13.83
1629880757078,3.87
1629880757093,-1.4
1629880757109,-1.46
1629880757125,2.58
1629880757140,8.27
1629880757156,12.53
1629880757171,12.44
1629880757187,6.17
1629880757203,-6.42
1629880757218,-23.5
1629880757234,-41.66
1629880757250,-56.83
1629880757265,-65.55
1629880757281,-66.1
1629880757296,-58.97
1629880757312,-46.53
1629880757328,-32.05
1629880757343,-18.56
1629880757359,-8.06
1629880757375,-1.3
1629880757390,1.97
1629880757406,2.58
1629880757421,1.57
1629880757437,-0.01
1629880757453,-1.16
1629880757468,-0.99
1629880757484,1.03
1629880757500,4.94
1629880757515,10.16
1629880757531,15.64
1629880757546,20.19
1629880757562,22.83
1629880757578,23.08
1629880757593,21.15
1629880757609,17.84
1629880757625,14.39
1629880757640,12.03
1629880757656,11.63
1629880757671,13.19
1629880757687,15.82
1629880757703,18.03
1629880757718,18.37
1629880757734,16.17
1629880757750,11.92
1629880757765,7.05
1629880757781,3.25
1629880757796,1.59
1629880757812,2.03
1629880757828,3.45
1629880757843,4.33
1629880757859,3.53
1629880757875,0.81
1629880757890,-3.19
1629880757906,-7.34
1629880757921,-10.58
1629880757937,-12.32
1629880757953,-12.46
1629880757968,-11.29
1629880757984,-9.36
1629880758000,-7.3
1629880758015,-5.72
1629880758031,-5.15
1629880758046,-5.82
1629880758062,-7.61
1629880758078,-9.95
1629880758093,-12.01
1629880758109,-12.92
1629880758125,-12.02
1629880758140,-9.07
1629880758156,-4.28
1629880758171,1.81
1629880758187,8.36
1629880758203,14.43
1629880758218,19.01
1629880758234,21.28
1629880758250,20.71
1629880758265,17.27
1629880758281,11.55
1629880758296,4.59
1629880758312,-2.27
1629880758328,-7.75
1629880758343,-10.95
1629880758359,-11.57
1629880758375,-10.03
1629880758390,-7.37
1629880758406,-4.92
1629880758421,-3.85
1629880758437,-4.78
1629880758453,-7.46
1629880758468,-10.88
1629880758484,-13.63
1629880758500,-14.59
1629880758515,-13.51
1629880758531,-11.36
1629880758546,-9.9
1629880758562,-10.88
1629880758578,-15.04
1629880758593,-21.62
1629880758609,-28.53
1629880758625,-33.3
1629880758640,-34.37
1629880758656,-31.9
1629880758671,-27.82
1629880758687,-24.88
1629880758703,-25.3
1629880758718,-29.73
1629880758734,-36.98
1629880758750,-44.67
1629880758765,-50.38
1629880758781,-52.63
1629880758796,-51.21
1629880758812,-46.93
1629880758828,-40.9
1629880758843,-33.91
1629880758859,-26.2
1629880758875,-17.49
1629880758890,-7.37
1629880758906,4.36
1629880758921,17.55
1629880758937,31.68
1629880758953,45.93
1629880758968,59.39
1629880758984,71.27
1629880759000,81.08
1629880759015,88.7
1629880759031,94.29
1629880759046,97.91
1629880759062,99.33
1629880759078,97.99
1629880759093,93.36
1629880759109,85.51
1629880759125,75.41
1629880759140,64.82
1629880759156,55.6
1629880759171,48.88
1629880759187,44.56
1629880759203,41.4
1629880759218,37.85
1629880759234,32.89
1629880759250,26.6
1629880759265,19.93
1629880759281,14.07
1629880759296,9.74
1629880759312,6.76
1629880759328,4.25
1629880759343,1.13
1629880759359,-3.35
1629880759375,-9.35
1629880759390,-16.56
1629880759406,-24.4
1629880759421,-32.25
1629880759437,-39.5
1629880759453,-45.56
1629880759468,-49.83
1629880759484,-51.85
1629880759500,-51.55
1629880759515,-49.37
1629880759531,-46.27
1629880759546,-43.46
1629880759562,-41.96
1629880759578,-42.21
1629880759593,-43.85
1629880759609,-45.85
1629880759625,-46.97
1629880759640,-46.21
1629880759656,-43.21
1629880759671,-38.34
1629880759687,-32.49
1629880759703,-26.75
1629880759718,-22.11
1629880759734,-19.26
1629880759750,-18.44
1629880759765,-19.47
1629880759781,-21.8
1629880759796,-24.55
1629880759812,-26.74
1629880759828,-27.53
1629880759843,-26.6
1629880759859,-24.38
1629880759875,-22.01
1629880759890,-20.93
1629880759906,-22.28
1629880759921,-26.23
1629880759937,-31.77
1629880759953,-36.94
1629880759968,-39.56
1629880759984,-38.02
1629880760000,-31.83
1629880760015,-21.66
1629880760031,-9.04
1629880760046,4.21
1629880760062,16.36
1629880760078,25.99
1629880760093,32.04
1629880760109,33.98
1629880760125,32.01
1629880760140,27.27
1629880760156,21.7
1629880760171,17.45
1629880760187,16.16
1629880760203,18.29
1629880760218,23.07
1629880760234,29.01
1629880760250,34.67
1629880760265,39.32
1629880760281,42.94
1629880760296,45.82
1629880760312,47.93
1629880760328,48.63
1629880760343,46.93
1629880760359,42.18
1629880760375,34.55
1629880760390,25.08
1629880760406,15.1
1629880760421,5.4
1629880760437,-4.17
1629880760453,-14.55
1629880760468,-26.81
1629880760484,-41.37
1629880760500,-57.77
1629880760515,-74.92
1629880760531,-91.49
1629880760546,-106.25
1629880760562,-117.96
1629880760578,-125.29
1629880760593,-126.92
1629880760609,-122.06
1629880760625,-111.02
1629880760640,-95.44
1629880760656,-77.76
1629880760671,-60.34
1629880760687,-44.57
1629880760703,-30.58
1629880760718,-17.7
1629880760734,-5.14
1629880760750,7.42
1629880760765,19.69
1629880760781,31.08
1629880760796,40.94
1629880760812,48.65
1629880760828,53.57
1629880760843,54.92
1629880760859,52.03
1629880760875,44.74
1629880760890,33.86
1629880760906,21.24
1629880760921,9.56
1629880760937,1.6
1629880760953,-0.49
1629880760968,4.09
1629880760984,14.56
1629880761000,28.74
1629880761015,43.6
1629880761031,56.22
1629880761046,64.38
1629880761062,67.19
1629880761078,65.05
1629880761093,59.33
1629880761109,51.83
1629880761125,44.27
1629880761140,37.92
1629880761156,33.45
1629880761171,31.03
1629880761187,30.37
1629880761203,30.93
1629880761218,32.06
1629880761234,33.13
1629880761250,33.6
1629880761265,33.14
1629880761281,31.61
1629880761296,29.12
1629880761312,25.95
1629880761328,22.47
1629880761343,19.07
1629880761359,16.1
1629880761375,13.83
1629880761390,12.4
1629880761406,11.85
1629880761421,12.09
1629880761437,12.92
1629880761453,14.12
1629880761468,15.47
1629880761484,16.79
1629880761500,17.92
1629880761515,18.61
1629880761531,18.57
1629880761546,17.49
1629880761562,15.13
1629880761578,11.5
1629880761593,6.81
1629880761609,1.41
1629880761625,-4.27
1629880761640,-9.9
1629880761656,-15.26
1629880761671,-20.2
1629880761687,-24.56
1629880761703,-28.22
1629880761718,-31.04
1629880761734,-32.98
1629880761750,-34.06
1629880761765,-34.33
1629880761781,-33.82
1629880761796,-32.52
1629880761812,-30.38
1629880761828,-27.45
1629880761843,-23.84
1629880761859,-19.62
1629880761875,-14.68
1629880761890,-8.69
1629880761906,-1.21
1629880761921,7.95
1629880761937,18.37
1629880761953,28.85
1629880761968,37.66
1629880761984,43.21
1629880762000,44.78
1629880762015,42.89
1629880762031,39.12
1629880762046,35.43
1629880762062,33.28
1629880762078,33.12
1629880762093,34.41
1629880762109,35.99
1629880762125,36.75
1629880762140,36.0
1629880762156,33.53
1629880762171,29.53
1629880762187,24.34
1629880762203,18.51
1629880762218,12.75
1629880762234,7.93
1629880762250,4.86
1629880762265,3.99
1629880762281,5.2
1629880762296,7.83
1629880762312,11.02
1629880762328,14.08
1629880762343,16.76
1629880762359,19.19
1629880762375,21.65
1629880762390,24.24
1629880762406,26.79
1629880762421,28.96
1629880762437,30.44
1629880762453,31.16
1629880762468,31.21
1629880762484,30.66
1629880762500,29.28
1629880762515,26.56
1629880762531,21.92
1629880762546,15.07
1629880762562,6.36
1629880762578,-3.21
1629880762593,-12.32
1629880762609,-19.79
1629880762625,-25.08
1629880762640,-28.44
1629880762656,-30.73
1629880762671,-32.92
1629880762687,-35.68
1629880762703,-38.97
1629880762718,-42.12
1629880762734,-44.08
1629880762750,-43.91
1629880762765,-41.24
1629880762781,-36.49
1629880762796,-30.84
1629880762812,-25.85
1629880762828,-22.9
1629880762843,-22.72
1629880762859,-25.2
1629880762875,-29.48
1629880762890,-34.49
1629880762906,-39.32
1629880762921,-43.47
1629880762937,-46.87
1629880762953,-49.64
1629880762968,-51.99
1629880762984,-54.35
1629880763000,-57.45
1629880763015,-62.22
1629880763031,-69.29
1629880763046,-78.22
1629880763062,-86.91
1629880763078,-91.85
1629880763093,-89.28
1629880763109,-76.84
1629880763125,-54.74
1629880763140,-25.93
1629880763156,4.99
1629880763171,33.43
1629880763187,56.37
1629880763203,72.68
1629880763218,82.45
1629880763234,85.82
1629880763250,82.27
1629880763265,70.83
1629880763281,51.26
1629880763296,25.2
1629880763312,-3.51
1629880763328,-29.7
1629880763343,-48.64
1629880763359,-57.82
1629880763375,-57.63
1629880763390,-50.87
1629880763406,-41.25
1629880763421,-31.75
1629880763437,-23.8
1629880763453,-17.36
1629880763468,-11.77
1629880763484,-6.64
1629880763500,-2.23
1629880763515,0.83
1629880763531,2.07
1629880763546,1.64
1629880763562,0.25
1629880763578,-1.17
1629880763593,-1.95
1629880763609,-1.96
1629880763625,-1.48
1629880763640,-0.84
1629880763656,-0.02
1629880763671,1.53
1629880763687,4.76
1629880763703,10.69
1629880763718,19.89
1629880763734,32.18
1629880763750,46.38
1629880763765,60.51
1629880763781,72.29
1629880763796,79.85
1629880763812,82.36
1629880763828,80.3
1629880763843,75.26
1629880763859,69.25
1629880763875,63.82
1629880763890,59.43
1629880763906,55.38
1629880763921,50.37
1629880763937,43.24
1629880763953,33.71
1629880763968,22.5
1629880763984,11.04
1629880764000,0.89
1629880764015,-6.77
1629880764031,-11.34
1629880764046,-12.93
1629880764062,-12.34
1629880764078,-11.09
1629880764093,-11.33
1629880764109,-15.31
1629880764125,-24.61
1629880764140,-39.23
1629880764156,-57.19
1629880764171,-74.94
1629880764187,-88.63
1629880764203,-95.51
1629880764218,-94.9
1629880764234,-88.21
1629880764250,-78.03
1629880764265,-66.96
1629880764281,-56.73
1629880764296,-48.03
1629880764312,-40.77
1629880764328,-34.66
1629880764343,-29.48
1629880764359,-25.02
1629880764375,-21.01
1629880764390,-17.03
1629880764406,-12.6
1629880764421,-7.44
1629880764437,-1.73
1629880764453,3.97
1629880764468,8.87
1629880764484,12.34
1629880764500,14.16
1629880764515,14.57
1629880764531,14.2
1629880764546,13.84
1629880764562,14.09
1629880764578,15.31
1629880764593,17.54
1629880764609,20.57
1629880764625,24.05
1629880764640,27.55
1629880764656,30.62
1629880764671,32.91
1629880764687,34.31
1629880764703,34.98
1629880764718,35.3
1629880764734,35.63
1629880764750,36.02
1629880764765,36.07
1629880764781,35.07
1629880764796,32.36
1629880764812,27.8
1629880764828,22.0
1629880764843,16.21
1629880764859,11.78
1629880764875,9.54
1629880764890,9.39
1629880764906,10.27
1629880764921,10.7
1629880764937,9.45
1629880764953,6.18
1629880764968,1.56
1629880764984,-3.05
1629880765000,-6.28
1629880765015,-7.44
1629880765031,-6.81
1629880765046,-5.39
1629880765062,-4.41
1629880765078,-4.69
1629880765093,-6.28
1629880765109,-8.69
1629880765125,-11.14
1629880765140,-13.11
1629880765156,-14.38
1629880765171,-15.04
1629880765187,-15.22
1629880765203,-14.92
1629880765218,-14.13
1629880765234,-12.92
1629880765250,-11.38
1629880765265,-9.27
1629880765281,-5.67
1629880765296,1.06
1629880765312,12.72
1629880765328,30.32
1629880765343,53.1
1629880765359,78.42
1629880765375,102.56
1629880765390,122.07
1629880765406,135.09
1629880765421,141.65
1629880765437,143.03
1629880765453,140.63
1629880765468,135.12
1629880765484,126.52
1629880765500,114.87
1629880765515,101.14
1629880765531,87.38
1629880765546,76.19
1629880765562,69.51
1629880765578,67.61
1629880765593,68.95
1629880765609,70.77
1629880765625,70.28
1629880765640,65.82
1629880765656,57.38
1629880765671,46.37
1629880765687,34.87
1629880765703,24.65
1629880765718,16.53
1629880765734,10.21
1629880765750,4.67
1629880765765,-1.13
1629880765781,-7.55
1629880765796,-13.99
1629880765812,-19.02
1629880765828,-20.92
1629880765843,-18.44
1629880765859,-11.23
1629880765875,-0.16
1629880765890,12.9
1629880765906,25.58
1629880765921,35.56
1629880765937,41.24
1629880765953,42.11
1629880765968,38.82
1629880765984,32.88
1629880766000,26.05
1629880766015,19.61
1629880766031,13.79
1629880766046,7.38
1629880766062,-1.99
1629880766078,-16.96
1629880766093,-39.02
1629880766109,-67.09
1629880766125,-96.95
1629880766140,-121.98
1629880766156,-135.36
1629880766171,-133.0
1629880766187,-115.43
1629880766203,-87.99
1629880766218,-58.67
1629880766234,-34.99
1629880766250,-21.31
1629880766265,-17.88
1629880766281,-21.77
1629880766296,-28.75
1629880766312,-35.14
1629880766328,-38.63
1629880766343,-38.2
1629880766359,-33.78
1629880766375,-25.98
1629880766390,-16.18
1629880766406,-6.56
1629880766421,0.22
1629880766437,1.96
1629880766453,-2.13
1629880766468,-10.75
1629880766484,-20.7
1629880766500,-27.8
1629880766515,-28.36
1629880766531,-20.42
1629880766546,-4.32
1629880766562,17.75
1629880766578,42.81
1629880766593,68.2
1629880766609,92.22
1629880766625,113.93
1629880766640,132.63
1629880766656,147.64
1629880766671,158.55
1629880766687,165.84
1629880766703,170.89
1629880766718,175.35
1629880766734,179.87
1629880766750,183.28
1629880766765,182.98
1629880766781,176.6
1629880766796,163.75
1629880766812,146.81
1629880766828,129.7
1629880766843,115.6
1629880766859,104.76
1629880766875,94.11
1629880766890,79.17
1629880766906,57.06
1629880766921,28.71
1629880766937,-0.98
1629880766953,-25.62
1629880766968,-40.79
1629880766984,-46.86
1629880767000,-49.02
1629880767015,-54.92
1629880767031,-70.88
1629880767046,-99.24
1629880767062,-138.14
1629880767078,-183.14
1629880767093,-230.15
1629880767109,-277.55
1629880767125,-326.92
1629880767140,-381.4
1629880767156,-442.85
1629880767171,-509.03
1629880767187,-572.84
1629880767203,-624.18
1629880767218,-653.27
1629880767234,-654.45
1629880767250,-628.1
1629880767265,-580.86
1629880767281,-522.77
1629880767296,-463.37
1629880767312,-408.42
1629880767328,-359.06
1629880767343,-313.88
1629880767359,-270.68
1629880767375,-228.2
1629880767390,-185.43
1629880767406,-142.45
1629880767421,-99.23
1629880767437,-55.12
1629880767453,-8.55
1629880767468,41.91
1629880767484,95.45
1629880767500,149.87
1629880767515,202.31
1629880767531,252.6
1629880767546,301.0
1629880767562,348.92
1629880767578,397.95
1629880767593,449.42
1629880767609,502.07
1629880767625,548.59
1629880767640,578.28
1629880767656,580.54
1629880767671,552.19
1629880767687,494.83
1629880767703,415.4
1629880767718,323.45
1629880767734,229.75
1629880767750,142.79
1629880767765,64.41
1629880767781,-7.44
1629880767796,-76.31
1629880767812,-140.91
1629880767828,-201.03
1629880767843,-256.88
1629880767859,-309.72
1629880767875,-359.17
1629880767890,-387.39
1629880767906,-379.74
1629880767921,-329.64
1629880767937,-267.37
1629880767953,-209.86
1629880767968,-167.97
1629880767984,-139.7
1629880768000,-126.93
1629880768015,-130.11
1629880768031,-146.53
1629880768046,-171.87
1629880768062,-197.97
1629880768078,-214.42
1629880768093,-208.07
1629880768109,-174.47
1629880768125,-119.89
1629880768140,-60.25
1629880768156,-13.29
1629880768171,7.58
1629880768187,-4.06
1629880768203,-44.51
1629880768218,-101.97
1629880768234,-158.14
1629880768250,-199.21
1629880768265,-219.24
1629880768281,-220.46
1629880768296,-208.46
1629880768312,-189.39
1629880768328,-168.75
1629880768343,-149.28
1629880768359,-131.3
1629880768375,-111.55
1629880768390,-88.73
1629880768406,-64.52
1629880768421,-41.58
1629880768437,-20.66
1629880768453,-0.56
1629880768468,20.58
1629880768484,44.28
1629880768500,70.33
1629880768515,98.75
1629880768531,127.42
1629880768546,152.09
1629880768562,170.81
1629880768578,185.58
1629880768593,200.06
1629880768609,217.48
1629880768625,239.29
1629880768640,264.34
1629880768656,291.72
1629880768671,318.93
1629880768687,340.6
1629880768703,354.63
1629880768718,363.88
1629880768734,373.56
1629880768750,389.62
1629880768765,416.19
1629880768781,453.08
1629880768796,497.1
1629880768812,539.63
1629880768828,565.97
1629880768843,566.06
1629880768859,538.74
1629880768875,489.94
1629880768890,430.38
1629880768906,371.49
1629880768921,305.49
1629880768937,227.67
1629880768953,158.37
1629880768968,101.89
1629880768984,48.94
1629880769000,-4.94
1629880769015,-61.91
1629880769031,-121.71
1629880769046,-181.45
1629880769062,-235.5
1629880769078,-273.91
1629880769093,-288.09
1629880769109,-277.55
1629880769125,-245.34
1629880769140,-198.15
1629880769156,-146.22
1629880769171,-98.95
1629880769187,-61.09
1629880769203,-31.46
1629880769218,-2.66
1629880769234,32.81
1629880769250,75.81
1629880769265,123.95
1629880769281,171.1
1629880769296,207.99
1629880769312,226.15
1629880769328,221.26
1629880769343,194.75
1629880769359,153.92
1629880769375,108.08
1629880769390,58.33
1629880769406,9.58
1629880769421,-32.34
1629880769437,-63.77
1629880769453,-83.66
1629880769468,-92.69
1629880769484,-92.08
1629880769500,-83.25
1629880769515,-68.61
1629880769531,-52.47
1629880769546,-37.81
1629880769562,-26.7
1629880769578,-20.55
1629880769593,-19.24
1629880769609,-21.44
1629880769625,-25.56
1629880769640,-30.42
1629880769656,-35.73
1629880769671,-42.16
1629880769687,-49.97
1629880769703,-60.01
1629880769718,-73.67
1629880769734,-92.85
1629880769750,-120.08
1629880769765,-155.19
1629880769781,-198.83
1629880769796,-250.72
1629880769812,-308.09
1629880769828,-364.21
1629880769843,-409.98
1629880769859,-436.44
1629880769875,-438.0
1629880769890,-414.4
1629880769906,-370.87
1629880769921,-315.81
1629880769937,-257.08
1629880769953,-199.34
1629880769968,-143.09
1629880769984,-86.9
1629880770000,-29.86
1629880770015,26.55
1629880770031,78.95
1629880770046,123.54
1629880770062,158.34
1629880770078,183.67
1629880770093,200.01
1629880770109,208.83
1629880770125,212.91
1629880770140,215.89
1629880770156,219.73
1629880770171,225.49
1629880770187,228.71
1629880770203,222.98
1629880770218,202.97
1629880770234,166.5
1629880770250,115.58
1629880770265,54.54
1629880770281,-9.54
1629880770296,-70.29
1629880770312,-123.98
1629880770328,-170.61
1629880770343,-212.57
1629880770359,-253.23
1629880770375,-295.39
1629880770390,-339.82
1629880770406,-384.79
1629880770421,-426.08
1629880770437,-458.26
1629880770453,-475.82
1629880770468,-475.15
1629880770484,-455.5
1629880770500,-419.68
1629880770515,-373.2
1629880770531,-322.12
1629880770546,-271.28
1629880770562,-223.3
1629880770578,-179.31
1629880770593,-139.74
1629880770609,-105.18
1629880770625,-75.86
1629880770640,-51.13
1629880770656,-29.07
1629880770671,-6.72
1629880770687,18.69
1629880770703,48.45
1629880770718,81.55
1629880770734,115.22
1629880770750,146.02
1629880770765,171.53
1629880770781,191.25
1629880770796,206.57
1629880770812,220.02
1629880770828,234.32
1629880770843,251.52
1629880770859,272.47
1629880770875,296.79
1629880770890,322.84
1629880770906,348.01
1629880770921,369.04
1629880770937,382.67
1629880770953,386.49
1629880770968,379.63
1629880770984,363.0
1629880771000,338.81
1629880771015,309.68
1629880771031,277.84
1629880771046,244.86
1629880771062,211.88
1629880771078,180.1
1629880771093,151.06
1629880771109,126.37
1629880771125,106.98
1629880771140,92.47
1629880771156,80.89
1629880771171,69.29
1629880771187,54.94
1629880771203,36.57
1629880771218,14.94
1629880771234,-7.37
1629880771250,-27.03
1629880771265,-41.31
1629880771281,-49.05
1629880771296,-50.87
1629880771312,-48.58
1629880771328,-44.18
1629880771343,-38.93
1629880771359,-33.02
1629880771375,-25.83
1629880771390,-16.67
1629880771406,-5.36
1629880771421,7.32
1629880771437,19.82
1629880771453,30.31
1629880771468,37.28
1629880771484,40.05
1629880771500,38.82
1629880771515,34.47
1629880771531,27.98
1629880771546,20.06
1629880771562,10.92
1629880771578,0.6
1629880771593,-10.56
1629880771609,-21.56
1629880771625,-30.71
1629880771640,-36.15
1629880771656,-36.58
1629880771671,-31.87
1629880771687,-23.24
1629880771703,-12.88
1629880771718,-3.19
1629880771734,3.93
1629880771750,7.57
1629880771765,7.84
1629880771781,5.49
1629880771796,1.57
1629880771812,-2.92
1629880771828,-7.08
1629880771843,-10.1
1629880771859,-11.29
1629880771875,-10.19
1629880771890,-6.72
1629880771906,-1.37
1629880771921,4.94
1629880771937,11.13
1629880771953,16.29
1629880771968,19.92
1629880771984,21.93
1629880772000,22.35
1629880772015,21.07
1629880772031,17.69
1629880772046,11.68
1629880772062,2.76
1629880772078,-8.69
1629880772093,-21.52
1629880772109,-34.02
1629880772125,-44.39
1629880772140,-51.35
1629880772156,-54.46
1629880772171,-54.15
1629880772187,-51.42
1629880772203,-47.37
1629880772218,-42.87
1629880772234,-38.32
1629880772250,-33.78
1629880772265,-29.14
1629880772281,-24.35
1629880772296,-19.48
1629880772312,-14.78
1629880772328,-10.54
1629880772343,-6.98
1629880772359,-4.12
1629880772375,-1.85
1629880772390,0.04
1629880772406,1.76
1629880772421,3.4
1629880772437,4.88
1629880772453,6.04
1629880772468,6.78
1629880772484,7.19
1629880772500,7.61
1629880772515,8.48
1629880772531,10.15
1629880772546,12.6
1629880772562,15.38
1629880772578,17.73
1629880772593,19.01
1629880772609,18.96
1629880772625,17.87
1629880772640,16.47
1629880772656,15.55
1629880772671,15.63
1629880772687,16.69
1629880772703,18.29
1629880772718,19.73
1629880772734,20.43
1629880772750,20.06
1629880772765,18.62
1629880772781,16.36
1629880772796,13.64
1629880772812,10.83
1629880772828,8.33
1629880772843,6.44
1629880772859,5.4
1629880772875,5.28
1629880772890,5.86
1629880772906,6.7
1629880772921,7.29
1629880772937,7.33
1629880772953,6.93
1629880772968,6.69
1629880772984,7.35
1629880773000,9.24
1629880773015,11.74
1629880773031,13.07
1629880773046,10.79
1629880773062,2.7
1629880773078,-12.04
1629880773093,-32.33
1629880773109,-55.24
1629880773125,-77.0
1629880773140,-94.17
1629880773156,-104.73
1629880773171,-108.4
1629880773187,-106.27
1629880773203,-100.04
1629880773218,-91.36
1629880773234,-81.47
1629880773250,-71.29
1629880773265,-61.7
1629880773281,-53.57
1629880773296,-47.62
1629880773312,-44.05
1629880773328,-42.28
1629880773343,-41.01
1629880773359,-38.69
1629880773375,-34.12
1629880773390,-26.94
1629880773406,-17.73
1629880773421,-7.63
1629880773437,2.24
1629880773453,11.17
1629880773468,19.02
1629880773484,25.95
1629880773500,32.08
1629880773515,37.24
1629880773531,41.04
1629880773546,43.14
1629880773562,43.54
1629880773578,42.63
1629880773593,41.03
1629880773609,39.32
1629880773625,37.75
1629880773640,36.25
1629880773656,34.58
1629880773671,32.62
1629880773687,30.56
1629880773703,28.88
1629880773718,28.02
1629880773734,28.16
1629880773750,28.96
1629880773765,29.66
1629880773781,29.41
1629880773796,27.66
1629880773812,24.47
1629880773828,20.5
1629880773843,16.74
1629880773859,13.99
1629880773875,12.57
1629880773890,12.12
1629880773906,11.83
1629880773921,10.8
1629880773937,8.5
1629880773953,4.91
1629880773968,0.43
1629880773984,-4.44
1629880774000,-9.38
1629880774015,-14.41
1629880774031,-19.88
1629880774046,-26.17
1629880774062,-33.59
1629880774078,-42.2
1629880774093,-51.84
1629880774109,-62.09
1629880774125,-72.28
1629880774140,-81.45
1629880774156,-88.51
1629880774171,-92.46
1629880774187,-92.71
1629880774203,-89.32
1629880774218,-83.03
1629880774234,-74.88
1629880774250,-65.93
1629880774265,-56.85
1629880774281,-47.93
1629880774296,-39.27
1629880774312,-30.95
1629880774328,-23.16
1629880774343,-16.06
1629880774359,-9.66
1629880774375,-3.69
1629880774390,2.43
1629880774406,9.42
1629880774421,18.01
1629880774437,28.68
1629880774453,41.37
1629880774468,55.18
1629880774484,68.33
1629880774500,78.5
1629880774515,83.57
1629880774531,82.5
1629880774546,75.88
1629880774562,65.76
1629880774578,54.85
1629880774593,45.32
1629880774609,38.07
1629880774625,32.54
1629880774640,27.36
1629880774656,21.16
1629880774671,13.39
1629880774687,4.49
1629880774703,-4.31
1629880774718,-11.51
1629880774734,-15.86
1629880774750,-16.76
1629880774765,-14.36
1629880774781,-9.52
1629880774796,-3.46
1629880774812,2.59
1629880774828,7.73
1629880774843,11.42
1629880774859,13.43
1629880774875,13.64
1629880774890,12.09
1629880774906,9.11
1629880774921,5.47
1629880774937,2.33
1629880774953,0.93
1629880774968,2.01
1629880774984,5.44
1629880775000,10.27
1629880775015,15.01
1629880775031,18.32
1629880775046,19.47
1629880775062,18.49
1629880775078,16.04
1629880775093,13.02
1629880775109,10.23
1629880775125,8.13
1629880775140,6.81
1629880775156,6.03
1629880775171,5.49
1629880775187,4.98
1629880775203,4.42
1629880775218,3.89
1629880775234,3.5
1629880775250,3.21
1629880775265,2.84
1629880775281,2.14
1629880775296,0.95
1629880775312,-0.65
1629880775328,-2.32
1629880775343,-3.57
1629880775359,-4.03
1629880775375,-3.53
1629880775390,-2.22
1629880775406,-0.47
1629880775421,1.34
1629880775437,2.97
1629880775453,4.32
1629880775468,5.42
1629880775484,6.3
1629880775500,6.86
1629880775515,6.89
1629880775531,6.19
1629880775546,4.77
1629880775562,2.85
1629880775578,0.84
1629880775593,-0.85
1629880775609,-2.06
1629880775625,-2.88
1629880775640,-3.62
1629880775656,-4.51
1629880775671,-5.63
1629880775687,-6.79
1629880775703,-7.7
1629880775718,-8.08
1629880775734,-7.89
1629880775750,-7.24
1629880775765,-6.37
1629880775781,-5.56
1629880775796,-4.91
1629880775812,-4.42
1629880775828,-3.9
1629880775843,-3.06
1629880775859,-1.61
1629880775875,0.61
1629880775890,3.51
1629880775906,6.74
1629880775921,9.76
1629880775937,12.03
1629880775953,13.18
1629880775968,13.21
1629880775984,12.37
1629880776000,11.1
1629880776015,9.81
1629880776031,8.77
1629880776046,8.1
1629880776062,7.77
1629880776078,7.68
1629880776093,7.75
1629880776109,7.91
1629880776125,8.09
1629880776140,8.17
1629880776156,8.03
1629880776171,7.53
1629880776187,6.57
1629880776203,5.14
1629880776218,3.37
1629880776234,1.45
1629880776250,-0.41
1629880776265,-2.08
1629880776281,-3.54
1629880776296,-4.87
1629880776312,-6.1
1629880776328,-7.2
1629880776343,-8.07
1629880776359,-8.59
1629880776375,-8.78
1629880776390,-8.79
1629880776406,-8.83
1629880776421,-9.11
1629880776437,-9.68
1629880776453,-10.44
1629880776468,-11.23
1629880776484,-11.89
1629880776500,-12.39
1629880776515,-12.77
1629880776531,-13.1
1629880776546,-13.43
1629880776562,-13.77
1629880776578,-14.04
1629880776593,-14.17
1629880776609,-14.06
1629880776625,-13.64
1629880776640,-12.86
1629880776656,-11.69
1629880776671,-10.17
1629880776687,-8.36
1629880776703,-6.3
1629880776718,-4.06
1629880776734,-1.68
1629880776750,0.76
1629880776765,3.14
1629880776781,5.31
1629880776796,7.1
1629880776812,8.38
1629880776828,9.1
1629880776843,9.29
1629880776859,9.06
1629880776875,8.56
1629880776890,7.94
1629880776906,7.3
1629880776921,6.68
1629880776937,6.07
1629880776953,5.47
1629880776968,4.9
1629880776984,4.38
1629880777000,4.01
1629880777015,3.88
1629880777031,4.08
1629880777046,4.64
1629880777062,5.47
1629880777078,6.35
1629880777093,6.97
1629880777109,7.06
1629880777125,6.49
1629880777140,5.33
1629880777156,3.89
1629880777171,2.51
1629880777187,1.42
1629880777203,0.69
1629880777218,0.2
1629880777234,-0.2
1629880777250,-0.62
1629880777265,-1.04
1629880777281,-1.44
1629880777296,-1.81
1629880777312,-2.2
1629880777328,-2.7
1629880777343,-3.34
1629880777359,-4.06
1629880777375,-4.75
1629880777390,-5.26
1629880777406,-5.53
1629880777421,-5.53
1629880777437,-5.28
1629880777453,-4.88
1629880777468,-4.41
1629880777484,-3.97
1629880777500,-3.53
1629880777515,-2.93
1629880777531,-1.84
1629880777546,0.03
1629880777562,2.75
1629880777578,5.96
1629880777593,8.89
1629880777609,10.69
1629880777625,10.81
1629880777640,9.29
1629880777656,6.78
1629880777671,4.2
1629880777687,2.3
1629880777703,1.28
1629880777718,0.8
1629880777734,0.25
1629880777750,-0.82
1629880777765,-2.46
1629880777781,-4.31
1629880777796,-5.87
1629880777812,-6.81
1629880777828,-7.08
1629880777843,-6.91
1629880777859,-6.62
1629880777875,-6.39
1629880777890,-6.22
1629880777906,-5.95
1629880777921,-5.46
1629880777937,-4.74
1629880777953,-3.99
1629880777968,-3.53
1629880777984,-3.64
1629880778000,-4.42
1629880778015,-5.74
1629880778031,-7.27
1629880778046,-8.59
1629880778062,-9.35
1629880778078,-9.39
1629880778093,-8.8
1629880778109,-7.86
1629880778125,-6.92
1629880778140,-6.26
1629880778156,-6.0
1629880778171,-6.08
1629880778187,-6.32
1629880778203,-6.53
1629880778218,-6.58
1629880778234,-6.44
1629880778250,-6.15
1629880778265,-5.76
1629880778281,-5.25
1629880778296,-4.59
1629880778312,-3.7
1629880778328,-2.55
1629880778343,-1.23
1629880778359,0.02
1629880778375,0.95
1629880778390,1.33
1629880778406,1.1
1629880778421,0.37
1629880778437,-0.55
1629880778453,-1.33
1629880778468,-1.78
1629880778484,-1.92
1629880778500,-2.0
1629880778515,-2.3
1629880778531,-3.04
1629880778546,-4.17
1629880778562,-5.44
1629880778578,-6.49
1629880778593,-7.09
1629880778609,-7.18
1629880778625,-6.89
1629880778640,-6.41
1629880778656,-5.79
1629880778671,-4.91
1629880778687,-3.51
1629880778703,-1.35
1629880778718,1.63
1629880778734,5.24
1629880778750,9.08
1629880778765,12.59
1629880778781,15.23
1629880778796,16.52
1629880778812,16.24
1629880778828,14.55
1629880778843,11.97
1629880778859,9.29
1629880778875,7.31
1629880778890,6.51
1629880778906,6.86
1629880778921,7.82
1629880778937,8.59
1629880778953,8.45
1629880778968,6.98
1629880778984,4.17
1629880779000,0.25
1629880779015,-4.46
1629880779031,-9.71
1629880779046,-15.31
1629880779062,-21.12
1629880779078,-26.89
1629880779093,-32.16
1629880779109,-36.21
1629880779125,-38.13
1629880779140,-37.05
1629880779156,-32.45
1629880779171,-24.46
1629880779187,-13.88
1629880779203,-2.12
1629880779218,9.34
1629880779234,19.34
1629880779250,27.45
1629880779265,33.92
1629880779281,39.44
1629880779296,44.73
1629880779312,50.16
1629880779328,55.6
1629880779343,60.44
1629880779359,63.84
1629880779375,65.02
1629880779390,63.62
1629880779406,59.9
1629880779421,54.65
1629880779437,48.96
1629880779453,43.75
1629880779468,39.56
1629880779484,36.4
1629880779500,33.99
1629880779515,32.01
1629880779531,30.16
1629880779546,28.22
1629880779562,25.81
1629880779578,22.4
1629880779593,17.42
1629880779609,10.65
1629880779625,2.32
1629880779640,-6.75
1629880779656,-15.4
1629880779671,-22.38
1629880779687,-26.6
1629880779703,-27.34
1629880779718,-24.35
1629880779734,-18.04
1629880779750,-9.54
1629880779765,-0.6
1629880779781,6.68
1629880779796,10.31
1629880779812,8.86
1629880779828,1.93
1629880779843,-9.78
1629880779859,-24.52
1629880779875,-39.75
1629880779890,-52.66
1629880779906,-60.74
1629880779921,-62.48
1629880779937,-57.77
1629880779953,-48.02
1629880779968,-35.64
1629880779984,-23.21
1629880780000,-12.67
1629880780015,-5.0
1629880780031,-0.37
1629880780046,1.35
1629880780062,0.05
1629880780078,-4.59
1629880780093,-12.89
1629880780109,-24.56
1629880780125,-38.3
1629880780140,-51.91
1629880780156,-62.71
1629880780171,-68.38
1629880780187,-67.64
1629880780203,-60.67
1629880780218,-49.04
1629880780234,-35.26
1629880780250,-22.17
1629880780265,-12.23
1629880780281,-7.01
1629880780296,-6.89
1629880780312,-11.06
1629880780328,-17.75
1629880780343,-24.81
1629880780359,-30.15
1629880780375,-32.52
1629880780390,-31.86
1629880780406,-29.17
1629880780421,-25.98
1629880780437,-23.59
1629880780453,-22.39
1629880780468,-21.76
1629880780484,-20.51
1629880780500,-17.42
1629880780515,-12.19
1629880780531,-5.76
1629880780546,0.23
1629880780562,4.25
1629880780578,5.71
1629880780593,5.34
1629880780609,4.81
1629880780625,5.99
1629880780640,10.42
1629880780656,18.26
1629880780671,28.15
1629880780687,38.04
1629880780703,45.93
1629880780718,50.56
1629880780734,51.89
1629880780750,50.63
1629880780765,47.93
1629880780781,45.33
1629880780796,43.79
1629880780812,43.44
1629880780828,43.83
1629880780843,43.78
1629880780859,41.41
1629880780875,34.6
1629880780890,21.24
1629880780906,0.23
1629880780921,-27.4
1629880780937,-55.42
1629880780953,-75.87
1629880780968,-81.33
1629880780984,-68.78
1629880781000,-41.37
1629880781015,-6.33
1629880781031,28.56
1629880781046,54.71
1629880781062,71.43
1629880781078,79.85
1629880781093,80.85
1629880781109,74.84
1629880781125,61.7
1629880781140,41.05
1629880781156,14.33
1629880781171,-17.73
1629880781187,-54.85
1629880781203,-96.6
1629880781218,-142.95
1629880781234,-193.09
1629880781250,-244.44
1629880781265,-292.53
1629880781281,-331.72
1629880781296,-356.36
1629880781312,-362.74
1629880781328,-350.03
1629880781343,-320.28
1629880781359,-278.51
1629880781375,-231.04
1629880781390,-183.54
1629880781406,-139.89
1629880781421,-101.73
1629880781437,-68.87
1629880781453,-40.46
1629880781468,-15.89
1629880781484,4.95
1629880781500,21.37
1629880781515,32.83
1629880781531,40.06
1629880781546,45.43
1629880781562,52.35
1629880781578,63.9
1629880781593,81.12
1629880781609,102.18
1629880781625,122.59
1629880781640,136.35
1629880781656,138.06
1629880781671,125.02
1629880781687,98.31
1629880781703,62.52
1629880781718,24.37
1629880781734,-9.4
1629880781750,-33.61
1629880781765,-45.44
1629880781781,-44.38
1629880781796,-31.43
1629880781812,-8.3
1629880781828,23.16
1629880781843,61.06
1629880781859,103.16
1629880781875,146.71
1629880781890,188.48
1629880781906,225.21
1629880781921,254.1
1629880781937,273.24
1629880781953,281.54
1629880781968,278.54
1629880781984,264.12
1629880782000,238.47
1629880782015,202.39
1629880782031,157.59
1629880782046,107.13
1629880782062,55.21
1629880782078,6.52
1629880782093,-34.74
1629880782109,-65.85
1629880782125,-86.09
1629880782140,-96.68
1629880782156,-100.04
1629880782171,-98.9
1629880782187,-95.47
1629880782203,-91.03
1629880782218,-85.99
1629880782234,-80.16
1629880782250,-73.23
1629880782265,-65.09
1629880782281,-56.07
1629880782296,-47.01
1629880782312,-39.2
1629880782328,-34.13
1629880782343,-32.88
1629880782359,-35.44
1629880782375,-40.18
1629880782390,-43.83
1629880782406,-42.17
1629880782421,-31.38
1629880782437,-9.36
1629880782453,23.24
1629880782468,62.92
1629880782484,104.22
1629880782500,141.19
1629880782515,169.05
1629880782531,185.47
1629880782546,190.92
1629880782562,188.18
1629880782578,181.17
1629880782593,173.55
1629880782609,167.67
1629880782625,164.24
1629880782640,162.72
1629880782656,162.07
1629880782671,161.5
1629880782687,160.65
1629880782703,159.28
1629880782718,156.73
1629880782734,151.49
1629880782750,141.26
1629880782765,123.59
1629880782781,96.78
1629880782796,60.63
1629880782812,16.77
1629880782828,-31.66
1629880782843,-80.77
1629880782859,-126.82
1629880782875,-166.82
1629880782890,-198.84
1629880782906,-221.81
1629880782921,-235.29
1629880782937,-239.24
1629880782953,-233.96
1629880782968,-220.29
1629880782984,-199.73
1629880783000,-174.43
1629880783015,-147.06
1629880783031,-120.34
1629880783046,-96.51
1629880783062,-76.92
1629880783078,-61.8
1629880783093,-50.41
1629880783109,-41.5
1629880783125,-33.85
1629880783140,-26.74
1629880783156,-20.15
1629880783171,-14.58
1629880783187,-10.71
1629880783203,-8.93
1629880783218,-9.12
1629880783234,-10.43
1629880783250,-11.6
1629880783265,-11.27
1629880783281,-8.33
1629880783296,-2.33
1629880783312,6.43
1629880783328,16.98
1629880783343,27.99
1629880783359,38.16
1629880783375,46.59
1629880783390,52.88
1629880783406,57.05
1629880783421,59.3
1629880783437,59.81
1629880783453,58.69
1629880783468,56.0
1629880783484,51.93
1629880783500,46.8
1629880783515,41.07
1629880783531,35.22
1629880783546,29.66
1629880783562,24.63
1629880783578,20.21
1629880783593,16.23
1629880783609,12.29
1629880783625,7.88
1629880783640,2.53
1629880783656,-3.94
1629880783671,-11.18
1629880783687,-18.42
1629880783703,-24.65
1629880783718,-29.04
1629880783734,-31.16
1629880783750,-31.1
1629880783765,-29.33
1629880783781,-26.44
1629880783796,-22.92
1629880783812,-19.03
1629880783828,-14.8
1629880783843,-10.13
1629880783859,-4.96
1629880783875,0.55
1629880783890,5.86
1629880783906,10.02
1629880783921,11.83
1629880783937,10.2
1629880783953,4.6
1629880783968,-4.51
1629880783984,-15.6
1629880784000,-26.26
1629880784015,-33.7
1629880784031,-35.52
1629880784046,-30.46
1629880784062,-18.81
1629880784078,-2.62
1629880784093,14.94
1629880784109,30.44
1629880784125,41.3
1629880784140,46.55
1629880784156,46.98
1629880784171,44.59
1629880784187,41.64
1629880784203,39.73
1629880784218,39.33
1629880784234,39.93
1629880784250,40.45
1629880784265,39.86
1629880784281,37.55
1629880784296,33.41
1629880784312,27.75
1629880784328,21.1
1629880784343,14.08
1629880784359,7.29
1629880784375,1.29
1629880784390,-3.48
1629880784406,-6.73
1629880784421,-8.37
1629880784437,-8.51
1629880784453,-7.46
1629880784468,-5.73
1629880784484,-3.88
1629880784500,-2.43
1629880784515,-1.6
1629880784531,-1.26
1629880784546,-0.93
1629880784562,-0.02
1629880784578,1.88
1629880784593,4.78
1629880784609,8.2
1629880784625,11.37
1629880784640,13.49
1629880784656,14.07
1629880784671,13.09
1629880784687,11.0
1629880784703,8.45
1629880784718,6.06
1629880784734,4.15
1629880784750,2.73
1629880784765,1.55
1629880784781,0.3
1629880784796,-1.23
1629880784812,-3.09
1629880784828,-5.15
1629880784843,-7.22
1629880784859,-9.09
1629880784875,-10.59
1629880784890,-11.59
1629880784906,-12.02
1629880784921,-11.91
1629880784937,-11.42
1629880784953,-10.82
1629880784968,-10.39
1629880784984,-10.29
1629880785000,-10.52
1629880785015,-10.89
1629880785031,-11.17
1629880785046,-11.21
1629880785062,-11.05
1629880785078,-10.79
1629880785093,-10.61
1629880785109,-10.56
1629880785125,-10.56
1629880785140,-10.44
1629880785156,-10.03
1629880785171,-9.28
1629880785187,-8.24
1629880785203,-7.11
1629880785218,-6.04
1629880785234,-5.19
1629880785250,-4.6
1629880785265,-4.2
1629880785281,-3.92
1629880785296,-3.69
1629880785312,-3.52
1629880785328,-3.5
1629880785343,-3.72
1629880785359,-4.18
1629880785375,-4.72
1629880785390,-4.99
1629880785406,-4.57
1629880785421,-3.07
1629880785437,-0.31
1629880785453,3.55
1629880785468,8.09
1629880785484,12.69
1629880785500,16.78
1629880785515,19.99
1629880785531,22.27
1629880785546,23.79
1629880785562,24.83
1629880785578,25.64
1629880785593,26.3
1629880785609,26.77
1629880785625,26.9
1629880785640,26.51
1629880785656,25.43
1629880785671,23.51
1629880785687,20.67
1629880785703,16.95
1629880785718,12.61
1629880785734,8.03
1629880785750,3.71
1629880785765,0.08
1629880785781,-2.59
1629880785796,-4.3
1629880785812,-5.28
1629880785828,-5.86
1629880785843,-6.41
1629880785859,-7.18
1629880785875,-8.25
1629880785890,-9.48
1629880785906,-10.57
1629880785921,-11.18
1629880785937,-11.12
1629880785953,-10.49
1629880785968,-9.64
1629880785984,-9.05
1629880786000,-9.05
1629880786015,-9.56
1629880786031,-10.13
1629880786046,-10.11
1629880786062,-9.02
1629880786078,-6.76
1629880786093,-3.74
1629880786109,-0.68
1629880786125,1.7
1629880786140,2.95
1629880786156,2.97
1629880786171,1.98
1629880786187,0.49
1629880786203,-0.73
1629880786218,-0.74
1629880786234,1.38
1629880786250,6.06
1629880786265,12.85
1629880786281,20.34
1629880786296,26.5
1629880786312,29.46
1629880786328,28.35
1629880786343,23.73
1629880786359,17.32
1629880786375,11.18
1629880786390,6.85
1629880786406,4.75
1629880786421,4.29
1629880786437,4.44
1629880786453,4.35
1629880786468,3.64
1629880786484,2.29
1629880786500,0.38
1629880786515,-2.17
1629880786531,-5.5
1629880786546,-9.56
1629880786562,-13.92
1629880786578,-17.74
1629880786593,-20.11
1629880786609,-20.42
1629880786625,-18.78
1629880786640,-15.92
1629880786656,-12.9
1629880786671,-10.73
1629880786687,-9.91
1629880786703,-10.4
1629880786718,-11.56
1629880786734,-12.4
1629880786750,-11.8
1629880786765,-8.92
1629880786781,-3.57
1629880786796,3.49
1629880786812,10.68
1629880786828,16.1
1629880786843,18.33
1629880786859,17.22
1629880786875,14.04
1629880786890,10.94
1629880786906,9.87
1629880786921,11.6
1629880786937,15.28
1629880786953,18.9
1629880786968,20.38
1629880786984,18.68
1629880787000,14.31
1629880787015,9.04
1629880787031,4.92
1629880787046,3.23
1629880787062,3.92
1629880787078,5.74
1629880787093,6.97
1629880787109,6.36
1629880787125,3.7
1629880787140,-0.26
1629880787156,-4.29
1629880787171,-7.43
1629880787187,-9.41
1629880787203,-10.69
1629880787218,-12.01
1629880787234,-13.88
1629880787250,-16.23
1629880787265,-18.48
1629880787281,-19.92
1629880787296,-20.12
1629880787312,-19.16
1629880787328,-17.62
1629880787343,-16.31
1629880787359,-15.85
1629880787375,-16.37
1629880787390,-17.49
1629880787406,-18.46
1629880787421,-18.52
1629880787437,-17.24
1629880787453,-14.72
1629880787468,-11.55
1629880787484,-8.52
1629880787500,-6.27
1629880787515,-5.08
1629880787531,-4.75
1629880787546,-4.88
1629880787562,-5.09
1629880787578,-5.21
1629880787593,-5.35
1629880787609,-5.74
1629880787625,-6.57
1629880787640,-7.81
1629880787656,-9.24
1629880787671,-10.51
1629880787687,-11.29
1629880787703,-11.48
1629880787718,-11.17
1629880787734,-10.6
1629880787750,-10.06
1629880787765,-9.72
1629880787781,-9.62
1629880787796,-9.7
1629880787812,-9.92
1629880787828,-10.29
1629880787843,-10.87
1629880787859,-11.72
1629880787875,-12.72
1629880787890,-13.61
1629880787906,-14.05
1629880787921,-13.75
1629880787937,-12.71
1629880787953,-11.2
1629880787968,-9.68
1629880787984,-8.63
1629880788000,-8.29
1629880788015,-8.6
1629880788031,-9.19
1629880788046,-9.58
1629880788062,-9.33
1629880788078,-8.25
1629880788093,-6.48
1629880788109,-4.37
1629880788125,-2.44
1629880788140,-1.15
1629880788156,-0.85
1629880788171,-1.64
1629880788187,-3.34
1629880788203,-5.43
1629880788218,-7.13
1629880788234,-7.59
1629880788250,-6.16
1629880788265,-2.74
1629880788281,2.14
1629880788296,7.45
1629880788312,12.05
1629880788328,15.14
1629880788343,16.55
1629880788359,16.7
1629880788375,16.27
1629880788390,15.83
1629880788406,15.62
1629880788421,15.48
1629880788437,15.04
1629880788453,14.01
1629880788468,12.33
1629880788484,10.13
1629880788500,7.68
1629880788515,5.27
1629880788531,3.12
1629880788546,1.36
1629880788562,0.02
1629880788578,-0.96
1629880788593,-1.65
1629880788609,-2.13
1629880788625,-2.42
1629880788640,-2.54
1629880788656,-2.59
1629880788671,-2.8
1629880788687,-3.43
1629880788703,-4.7
1629880788718,-6.56
1629880788734,-8.65
1629880788750,-10.42
1629880788765,-11.45
1629880788781,-11.66
1629880788796,-11.44
1629880788812,-11.5
1629880788828,-12.53
1629880788843,-14.88
1629880788859,-18.33
1629880788875,-22.25
1629880788890,-25.85
1629880788906,-28.47
1629880788921,-29.85
1629880788937,-30.11
1629880788953,-29.6
1629880788968,-28.7
1629880788984,-27.65
1629880789000,-26.41
1629880789015,-24.79
1629880789031,-22.53
1629880789046,-19.38
1629880789062,-15.21
1629880789078,-9.95
1629880789093,-3.68
1629880789109,3.42
1629880789125,11.0
1629880789140,18.54
1629880789156,25.44
1629880789171,31.15
1629880789187,35.36
1629880789203,38.11
1629880789218,39.67
1629880789234,40.4
1629880789250,40.45
1629880789265,39.67
1629880789281,37.74
1629880789296,34.37
1629880789312,29.59
1629880789328,23.8
1629880789343,17.65
1629880789359,11.8
1629880789375,6.71
1629880789390,2.52
1629880789406,-0.76
1629880789421,-3.15
1629880789437,-4.64
1629880789453,-5.24
1629880789468,-5.12
1629880789484,-4.67
1629880789500,-4.44
1629880789515,-4.92
1629880789531,-6.45
1629880789546,-9.03
1629880789562,-12.43
1629880789578,-16.18
1629880789593,-19.72
1629880789609,-22.51
1629880789625,-24.17
1629880789640,-24.61
1629880789656,-24.09
1629880789671,-23.14
1629880789687,-22.36
1629880789703,-22.15
1629880789718,-22.49
1629880789734,-23.05
1629880789750,-23.33
1629880789765,-22.86
1629880789781,-21.27
1629880789796,-18.17
1629880789812,-13.07
1629880789828,-5.49
1629880789843,4.75
1629880789859,17.18
1629880789875,30.54
1629880789890,43.03
1629880789906,52.92
1629880789921,59.18
1629880789937,61.7
1629880789953,61.16
1629880789968,58.4
1629880789984,53.97
1629880790000,47.93
1629880790015,40.18
1629880790031,30.89
1629880790046,20.81
1629880790062,11.19
1629880790078,3.27
1629880790093,-2.26
1629880790109,-5.47
1629880790125,-7.1
1629880790140,-8.06
1629880790156,-9.0
1629880790171,-10.08
1629880790187,-11.04
1629880790203,-11.54
1629880790218,-11.4
1629880790234,-10.75
1629880790250,-9.91
1629880790265,-9.29
1629880790281,-9.22
1629880790296,-9.83
1629880790312,-11.11
1629880790328,-12.97
1629880790343,-15.27
1629880790359,-17.96
1629880790375,-21.07
1629880790390,-24.66
1629880790406,-28.73
1629880790421,-33.14
1629880790437,-37.49
1629880790453,-41.09
1629880790468,-42.98
1629880790484,-42.14
1629880790500,-37.74
1629880790515,-29.5
1629880790531,-18.0
1629880790546,-4.67
1629880790562,8.46
1629880790578,19.34
1629880790593,26.52
1629880790609,29.61
1629880790625,29.23
1629880790640,26.6
1629880790656,23.02
1629880790671,19.36
1629880790687,15.96
1629880790703,12.78
1629880790718,9.75
1629880790734,6.99
1629880790750,4.73
1629880790765,3.23
1629880790781,2.52
1629880790796,2.33
1629880790812,2.25
1629880790828,1.86
1629880790843,0.96
1629880790859,-0.37
1629880790875,-1.84
1629880790890,-3.12
1629880790906,-3.96
1629880790921,-4.35
1629880790937,-4.47
1629880790953,-4.55
1629880790968,-4.82
1629880790984,-5.37
1629880791000,-6.15
1629880791015,-7.07
1629880791031,-7.98
1629880791046,-8.75
1629880791062,-9.23
1629880791078,-9.23
1629880791093,-8.57
1629880791109,-7.05
1629880791125,-4.63
1629880791140,-1.35
1629880791156,2.57
1629880791171,6.86
1629880791187,11.24
1629880791203,15.37
1629880791218,18.89
1629880791234,21.35
1629880791250,22.33
1629880791265,21.54
1629880791281,19.02
1629880791296,15.17
1629880791312,10.73
1629880791328,6.53
1629880791343,3.29
1629880791359,1.38
1629880791375,0.75
1629880791390,1.02
1629880791406,1.62
1629880791421,1.99
1629880791437,1.72
1629880791453,0.62
1629880791468,-1.23
1629880791484,-3.42
1629880791500,-5.29
1629880791515,-6.09
1629880791531,-5.17
1629880791546,-2.34
1629880791562,2.07
1629880791578,7.2
1629880791593,11.96
1629880791609,15.36
1629880791625,16.85
1629880791640,16.4
1629880791656,14.47
1629880791671,11.8
1629880791687,9.15
1629880791703,7.1
1629880791718,5.9
1629880791734,5.41
1629880791750,5.21
1629880791765,4.77
1629880791781,3.66
1629880791796,1.75
1629880791812,-0.74
1629880791828,-3.36
1629880791843,-5.66
1629880791859,-7.4
1629880791875,-8.61
1629880791890,-9.49
1629880791906,-10.23
1629880791921,-10.92
1629880791937,-11.5
1629880791953,-11.9
1629880791968,-12.09
1629880791984,-12.07
1629880792000,-11.86
1629880792015,-11.42
1629880792031,-10.67
1629880792046,-9.55
1629880792062,-8.09
1629880792078,-6.49
1629880792093,-4.98
1629880792109,-3.76
1629880792125,-2.84
1629880792140,-2.07
1629880792156,-1.23
1629880792171,-0.19
1629880792187,1.03
1629880792203,2.24
1629880792218,3.21
1629880792234,3.77
1629880792250,3.86
1629880792265,3.59
1629880792281,3.07
1629880792296,2.44
1629880792312,1.82
1629880792328,1.3
1629880792343,1.02
1629880792359,1.09
1629880792375,1.56
1629880792390,2.28
1629880792406,2.97
1629880792421,3.29
1629880792437,3.03
1629880792453,2.21
1629880792468,1.11
1629880792484,0.09
1629880792500,-0.53
1629880792515,-0.68
1629880792531,-0.48
1629880792546,-0.14
1629880792562,0.12
1629880792578,0.26
1629880792593,0.32
1629880792609,0.51
1629880792625,0.97
1629880792640,1.78
1629880792656,2.83
1629880792671,3.87
1629880792687,4.64
1629880792703,4.92
1629880792718,4.74
1629880792734,4.28
1629880792750,3.87
1629880792765,3.79
1629880792781,4.15
1629880792796,4.85
1629880792812,5.68
1629880792828,6.42
1629880792843,6.97
1629880792859,7.29
1629880792875,7.34
1629880792890,7.05
1629880792906,6.37
1629880792921,5.36
1629880792937,4.34
1629880792953,3.77
1629880792968,4.08
1629880792984,5.33
1629880793000,7.11
1629880793015,8.63
1629880793031,9.07
1629880793046,8.0
1629880793062,5.58
1629880793078,2.4
1629880793093,-0.82
1629880793109,-3.63
1629880793125,-5.94
1629880793140,-7.92
1629880793156,-9.65
1629880793171,-10.93
1629880793187,-11.33
1629880793203,-10.5
1629880793218,-8.46
1629880793234,-5.8
1629880793250,-3.36
1629880793265,-1.93
1629880793281,-1.81
1629880793296,-2.69
1629880793312,-3.87
1629880793328,-4.62
1629880793343,-4.5
1629880793359,-3.57
1629880793375,-2.25
1629880793390,-1.07
1629880793406,-0.43
1629880793421,-0.4
1629880793437,-0.77
1629880793453,-1.22
1629880793468,-1.42
1629880793484,-1.19
1629880793500,-0.51
1629880793515,0.53
1629880793531,1.76
1629880793546,2.9
1629880793562,3.67
1629880793578,3.84
1629880793593,3.44
1629880793609,2.99
1629880793625,3.4
1629880793640,5.67
1629880793656,10.33
1629880793671,16.99
1629880793687,24.35
1629880793703,30.71
1629880793718,34.81
1629880793734,36.4
1629880793750,36.27
1629880793765,35.65
1629880793781,35.43
1629880793796,35.58
1629880793812,35.23
1629880793828,33.34
1629880793843,29.37
1629880793859,23.56
1629880793875,16.83
1629880793890,10.14
1629880793906,4.04
1629880793921,-1.39
1629880793937,-6.39
1629880793953,-11.08
1629880793968,-15.33
1629880793984,-18.8
1629880794000,-21.2
1629880794015,-22.49
1629880794031,-22.86
1629880794046,-22.59
1629880794062,-21.94
1629880794078,-21.1
1629880794093,-20.15
1629880794109,-18.99
1629880794125,-17.18
1629880794140,-13.92
1629880794156,-8.32
1629880794171,0.08
1629880794187,10.73
1629880794203,21.85
1629880794218,30.92
1629880794234,35.68
1629880794250,35.12
1629880794265,29.97
1629880794281,22.31
1629880794296,14.59
1629880794312,8.5
1629880794328,4.44
1629880794343,1.77
1629880794359,-0.46
1629880794375,-2.83
1629880794390,-5.16
1629880794406,-6.87
1629880794421,-7.48
1629880794437,-7.11
1629880794453,-6.45
1629880794468,-6.51
1629880794484,-7.99
1629880794500,-10.98
1629880794515,-14.8
1629880794531,-18.35
1629880794546,-20.55
1629880794562,-20.76
1629880794578,-19.02
1629880794593,-15.99
1629880794609,-12.69
1629880794625,-10.16
1629880794640,-9.14
1629880794656,-9.85
1629880794671,-11.96
1629880794687,-14.66
1629880794703,-17.01
1629880794718,-18.21
1629880794734,-17.94
1629880794750,-16.42
1629880794765,-14.32
1629880794781,-12.5
1629880794796,-11.6
1629880794812,-11.77
1629880794828,-12.67
1629880794843,-13.56
1629880794859,-13.69
1629880794875,-12.64
1629880794890,-10.57
1629880794906,-8.11
1629880794921,-6.07
1629880794937,-5.05
1629880794953,-5.12
1629880794968,-5.84
1629880794984,-6.54
1629880795000,-6.68
1629880795015,-6.2
1629880795031,-5.48
1629880795046,-5.09
1629880795062,-5.5
1629880795078,-6.78
1629880795093,-8.63
1629880795109,-10.54
1629880795125,-12.01
1629880795140,-12.74
1629880795156,-12.68
1629880795171,-11.92
1629880795187,-10.69
1629880795203,-9.24
1629880795218,-7.84
1629880795234,-6.74
1629880795250,-6.1
1629880795265,-5.94
1629880795281,-6.09
1629880795296,-6.29
1629880795312,-6.27
1629880795328,-5.83
1629880795343,-4.91
1629880795359,-3.55
1629880795375,-1.88
1629880795390,-0.1
1629880795406,1.55
1629880795421,2.7
1629880795437,3.02
1629880795453,2.26
1629880795468,0.46
1629880795484,-2.06
1629880795500,-4.69
1629880795515,-6.8
1629880795531,-7.97
1629880795546,-8.12
1629880795562,-7.54
1629880795578,-6.74
1629880795593,-6.16
1629880795609,-6.01
1629880795625,-6.24
1629880795640,-6.61
1629880795656,-6.89
1629880795671,-6.96
1629880795687,-6.84
1629880795703,-6.62
1629880795718,-6.39
1629880795734,-6.12
1629880795750,-5.68
1629880795765,-4.91
1629880795781,-3.76
1629880795796,-2.29
1629880795812,-0.76
1629880795828,0.55
1629880795843,1.35
1629880795859,1.53
1629880795875,1.2
1629880795890,0.68
1629880795906,0.39
1629880795921,0.67
1629880795937,1.62
1629880795953,3.03
1629880795968,4.4
1629880795984,5.15
1629880796000,4.82
1629880796015,3.34
1629880796031,1.05
1629880796046,-1.33
1629880796062,-3.01
1629880796078,-3.36
1629880796093,-2.29
1629880796109,-0.16
1629880796125,2.28
1629880796140,4.26
1629880796156,5.27
1629880796171,5.2
1629880796187,4.33
1629880796203,3.04
1629880796218,1.67
1629880796234,0.33
1629880796250,-1.01
1629880796265,-2.45
1629880796281,-3.94
1629880796296,-5.26
1629880796312,-6.09
1629880796328,-6.11
1629880796343,-5.18
1629880796359,-3.41
1629880796375,-1.16
1629880796390,1.03
1629880796406,2.63
1629880796421,3.3
1629880796437,3.05
1629880796453,2.19
1629880796468,1.23
1629880796484,0.61
1629880796500,0.54
1629880796515,0.93
1629880796531,1.5
1629880796546,1.93
1629880796562,2.05
1629880796578,1.88
1629880796593,1.56
1629880796609,1.28
1629880796625,1.12
1629880796640,1.02
1629880796656,0.83
1629880796671,0.4
1629880796687,-0.31
1629880796703,-1.18
1629880796718,-1.95
1629880796734,-2.33
1629880796750,-2.15
1629880796765,-1.48
1629880796781,-0.59
1629880796796,0.16
1629880796812,0.5
1629880796828,0.33
1629880796843,-0.25
1629880796859,-1.04
1629880796875,-1.8
1629880796890,-2.38
1629880796906,-2.63
1629880796921,-2.44
1629880796937,-1.69
1629880796953,-0.35
1629880796968,1.52
1629880796984,3.69
1629880797000,5.84
1629880797015,7.63
1629880797031,8.79
1629880797046,9.23
1629880797062,9.03
1629880797078,8.47
1629880797093,7.89
1629880797109,7.64
1629880797125,7.86
1629880797140,8.52
1629880797156,9.36
1629880797171,10.11
1629880797187,10.58
1629880797203,10.72
1629880797218,10.66
1629880797234,10.55
1629880797250,10.5
1629880797265,10.55
1629880797281,10.73
1629880797296,11.06
1629880797312,11.5
1629880797328,11.86
1629880797343,11.69
1629880797359,10.39
1629880797375,7.5
1629880797390,2.98
1629880797406,-2.54
1629880797421,-7.92
1629880797437,-11.88
1629880797453,-13.48
1629880797468,-12.47
1629880797484,-9.34
1629880797500,-5.1
1629880797515,-0.83
1629880797531,2.68
1629880797546,5.05
1629880797562,6.34
1629880797578,6.88
1629880797593,7.03
1629880797609,7.08
1629880797625,7.19
1629880797640,7.41
1629880797656,7.72
1629880797671,8.16
1629880797687,8.76
1629880797703,9.51
1629880797718,10.17
1629880797734,10.25
1629880797750,9.11
1629880797765,6.23
1629880797781,1.56
1629880797796,-4.39
1629880797812,-10.55
1629880797828,-15.69
1629880797843,-18.9
1629880797859,-19.88
1629880797875,-18.99
1629880797890,-16.95
1629880797906,-14.42
1629880797921,-11.77
1629880797937,-9.05
1629880797953,-6.15
1629880797968,-3.12
1629880797984,-0.24
1629880798000,2.13
1629880798015,3.76
1629880798031,4.74
1629880798046,5.5
1629880798062,6.53
1629880798078,8.09
1629880798093,10.01
1629880798109,11.64
1629880798125,12.12
1629880798140,10.76
1629880798156,7.38
1629880798171,2.45
1629880798187,-2.99
1629880798203,-7.68
1629880798218,-10.56
1629880798234,-11.1
1629880798250,-9.45
1629880798265,-6.36
1629880798281,-2.8
1629880798296,0.35
1629880798312,2.58
1629880798328,3.88
1629880798343,4.58
1629880798359,5.06
1629880798375,5.57
1629880798390,6.05
1629880798406,6.21
1629880798421,5.76
1629880798437,4.61
1629880798453,2.95
1629880798468,1.28
1629880798484,0.06
1629880798500,-0.42
1629880798515,-0.26
1629880798531,0.13
1629880798546,0.31
1629880798562,0.03
1629880798578,-0.59
1629880798593,-1.09
1629880798609,-1.01
1629880798625,-0.08
1629880798640,1.49
1629880798656,3.13
1629880798671,4.18
1629880798687,4.17
1629880798703,3.12
1629880798718,1.5
1629880798734,0.02
1629880798750,-0.67
1629880798765,-0.29
1629880798781,1.02
1629880798796,2.75
1629880798812,4.31
1629880798828,5.27
1629880798843,5.46
1629880798859,5.05
1629880798875,4.4
1629880798890,3.95
1629880798906,4.02
1629880798921,4.77
1629880798937,6.05
1629880798953,7.57
1629880798968,8.9
1629880798984,9.72
1629880799000,9.85
1629880799015,9.36
1629880799031,8.52
1629880799046,7.64
1629880799062,6.99
1629880799078,6.62
1629880799093,6.44
1629880799109,6.26
1629880799125,5.95
1629880799140,5.5
1629880799156,5.04
1629880799171,4.8
1629880799187,4.98
1629880799203,5.64
1629880799218,6.63
1629880799234,7.64
1629880799250,8.31
1629880799265,8.35
1629880799281,7.71
1629880799296,6.57
1629880799312,5.3
1629880799328,4.22
1629880799343,3.43
1629880799359,2.78
1629880799375,1.91
1629880799390,0.52
1629880799406,-1.42
1629880799421,-3.62
1629880799437,-5.63
1629880799453,-7.05
1629880799468,-7.74
1629880799484,-7.84
1629880799500,-7.6
1629880799515,-7.21
1629880799531,-6.69
1629880799546,-5.94
1629880799562,-4.89
1629880799578,-3.61
1629880799593,-2.35
1629880799609,-1.42
1629880799625,-1.05
1629880799640,-1.32
1629880799656,-2.04
1629880799671,-2.92
1629880799687,-3.6
1629880799703,-3.75
1629880799718,-3.25
1629880799734,-2.16
1629880799750,-0.78
1629880799765,0.44
1629880799781,1.12
1629880799796,1.08
1629880799812,0.46
1629880799828,-0.34
1629880799843,-0.85
1629880799859,-0.75
1629880799875,0.03
1629880799890,1.24
1629880799906,2.56
1629880799921,3.67
1629880799937,4.48
1629880799953,5.01
1629880799968,5.4
1629880799984,5.73
1629880800000,5.98
1629880800015,6.11
1629880800031,6.07
1629880800046,5.91
1629880800062,5.72
1629880800078,5.62
1629880800093,5.62
1629880800109,5.65
1629880800125,5.59
1629880800140,5.33
1629880800156,4.9
1629880800171,4.37
1629880800187,3.9
1629880800203,3.64
1629880800218,3.65
1629880800234,3.9
1629880800250,4.25
1629880800265,4.53
1629880800281,4.6
1629880800296,4.4
1629880800312,4.01
1629880800328,3.53
1629880800343,3.08
1629880800359,2.7
1629880800375,2.32
1629880800390,1.86
1629880800406,1.24
1629880800421,0.43
1629880800437,-0.48
1629880800453,-1.34
1629880800468,-1.97
1629880800484,-2.25
1629880800500,-2.17
1629880800515,-1.86
1629880800531,-1.59
1629880800546,-1.72
1629880800562,-2.55
1629880800578,-4.13
1629880800593,-6.2
1629880800609,-8.27
1629880800625,-9.79
1629880800640,-10.44
1629880800656,-10.21
1629880800671,-9.45
1629880800687,-8.63
1629880800703,-8.12
1629880800718,-8.03
1629880800734,-8.26
1629880800750,-8.65
1629880800765,-9.1
1629880800781,-9.63
1629880800796,-10.32
1629880800812,-11.17
1629880800828,-12.04
1629880800843,-12.76
1629880800859,-13.14
1629880800875,-13.13
1629880800890,-12.83
1629880800906,-12.37
1629880800921,-11.86
1629880800937,-11.35
1629880800953,-10.81
1629880800968,-10.24
1629880800984,-9.66
1629880801000,-9.11
1629880801015,-8.61
1629880801031,-8.13
1629880801046,-7.62
1629880801062,-7.02
1629880801078,-6.34
1629880801093,-5.64
1629880801109,-4.98
1629880801125,-4.42
1629880801140,-3.96
1629880801156,-3.6
1629880801171,-3.32
1629880801187,-3.1
1629880801203,-2.91
1629880801218,-2.74
1629880801234,-2.55
1629880801250,-2.34
1629880801265,-2.13
1629880801281,-1.95
1629880801296,-1.85
1629880801312,-1.81
1629880801328,-1.75
1629880801343,-1.65
1629880801359,-1.51
1629880801375,-1.42
1629880801390,-1.53
1629880801406,-1.97
1629880801421,-2.71
1629880801437,-3.54
1629880801453,-4.18
1629880801468,-4.36
1629880801484,-4.02
1629880801500,-3.32
1629880801515,-2.62
1629880801531,-2.2
1629880801546,-2.24
1629880801562,-2.68
1629880801578,-3.38
1629880801593,-4.21
1629880801609,-5.18
1629880801625,-6.38
1629880801640,-7.85
1629880801656,-9.53
1629880801671,-11.19
1629880801687,-12.55
1629880801703,-13.39
1629880801718,-13.59
1629880801734,-13.14
1629880801750,-12.1
1629880801765,-10.5
1629880801781,-8.43
1629880801796,-6.07
1629880801812,-3.71
1629880801828,-1.65
1629880801843,-0.14
1629880801859,0.74
1629880801875,1.1
1629880801890,1.18
1629880801906,1.26
1629880801921,1.58
1629880801937,2.25
1629880801953,3.24
1629880801968,4.41
1629880801984,5.58
1629880802000,6.67
1629880802015,7.8
1629880802031,9.31
1629880802046,11.55
1629880802062,14.69
1629880802078,18.49
1629880802093,22.3
1629880802109,25.3
1629880802125,26.89
1629880802140,27.02
1629880802156,26.11
1629880802171,24.9
1629880802187,23.99
1629880802203,23.63
1629880802218,23.76
1629880802234,24.24
1629880802250,25.13
1629880802265,26.53
1629880802281,28.19
1629880802296,29.16
1629880802312,27.93
1629880802328,23.18
1629880802343,14.72
1629880802359,4.02
1629880802375,-6.26
1629880802390,-13.42
1629880802406,-16.0
1629880802421,-14.48
1629880802437,-10.82
1629880802453,-7.25
1629880802468,-5.13
1629880802484,-4.47
1629880802500,-4.36
1629880802515,-3.85
1629880802531,-2.71
1629880802546,-1.45
1629880802562,-0.8
1629880802578,-1.05
1629880802593,-1.78
1629880802609,-2.13
1629880802625,-1.3
1629880802640,0.86
1629880802656,3.8
1629880802671,6.49
1629880802687,7.99
1629880802703,7.96
1629880802718,6.83
1629880802734,5.59
1629880802750,5.17
1629880802765,5.99
1629880802781,7.7
1629880802796,9.43
1629880802812,10.31
1629880802828,9.94
1629880802843,8.58
1629880802859,6.88
1629880802875,5.53
1629880802890,4.84
1629880802906,4.75
1629880802921,4.98
1629880802937,5.33
1629880802953,5.76
1629880802968,6.33
1629880802984,7.06
1629880803000,7.78
1629880803015,8.24
1629880803031,8.22
1629880803046,7.65
1629880803062,6.7
1629880803078,5.64
1629880803093,4.67
1629880803109,3.9
1629880803125,3.27
1629880803140,2.63
1629880803156,1.89
1629880803171,0.99
1629880803187,-0.01
1629880803203,-1.0
1629880803218,-1.85
1629880803234,-2.39
1629880803250,-2.51
1629880803265,-2.15
1629880803281,-1.43
1629880803296,-0.58
1629880803312,0.06
1629880803328,0.17
1629880803343,-0.45
1629880803359,-1.73
1629880803375,-3.39
1629880803390,-4.99
1629880803406,-6.16
1629880803421,-6.72
1629880803437,-6.77
1629880803453,-6.57
1629880803468,-6.38
1629880803484,-6.28
1629880803500,-6.11
1629880803515,-5.64
1629880803531,-4.7
1629880803546,-3.39
1629880803562,-2.06
1629880803578,-1.11
1629880803593,-0.79
1629880803609,-0.99
1629880803625,-1.33
1629880803640,-1.38
1629880803656,-0.87
1629880803671,0.15
1629880803687,1.36
1629880803703,2.36
1629880803718,2.88
1629880803734,2.87
1629880803750,2.49
1629880803765,1.95
1629880803781,1.42
1629880803796,0.94
1629880803812,0.5
1629880803828,0.1
1629880803843,-0.16
1629880803859,-0.12
1629880803875,0.3
1629880803890,1.1
1629880803906,2.12
1629880803921,3.16
1629880803937,4.06
1629880803953,4.8
1629880803968,5.4
1629880803984,5.87
1629880804000,6.21
1629880804015,6.34
1629880804031,6.24
1629880804046,5.99
1629880804062,5.78
1629880804078,5.77
1629880804093,5.97
1629880804109,6.2
1629880804125,6.17
1629880804140,5.67
1629880804156,4.68
1629880804171,3.4
1629880804187,2.17
1629880804203,1.27
1629880804218,0.75
1629880804234,0.45
1629880804250,0.1
1629880804265,-0.53
1629880804281,-1.52
1629880804296,-2.76
1629880804312,-4.1
1629880804328,-5.36
1629880804343,-6.44
1629880804359,-7.31
1629880804375,-7.87
1629880804390,-8.03
1629880804406,-7.7
1629880804421,-6.93
1629880804437,-5.95
1629880804453,-5.14
1629880804468,-4.95
1629880804484,-5.66
1629880804500,-7.27
1629880804515,-9.49
1629880804531,-11.83
1629880804546,-13.78
1629880804562,-14.93
1629880804578,-15.08
1629880804593,-14.2
1629880804609,-12.39
1629880804625,-9.84
1629880804640,-6.86
1629880804656,-3.81
1629880804671,-1.11
1629880804687,0.9
1629880804703,2.07
1629880804718,2.47
1629880804734,2.43
1629880804750,2.35
1629880804765,2.55
1629880804781,3.2
1629880804796,4.24
1629880804812,5.48
1629880804828,6.68
1629880804843,7.74
1629880804859,8.65
1629880804875,9.49
1629880804890,10.33
1629880804906,11.11
1629880804921,11.68
1629880804937,11.82
1629880804953,11.32
1629880804968,10.11
1629880804984,8.28
1629880805000,6.07
1629880805015,3.79
1629880805031,1.74
1629880805046,0.12
1629880805062,-0.96
1629880805078,-1.5
1629880805093,-1.56
1629880805109,-1.22
1629880805125,-0.61
1629880805140,0.07
1629880805156,0.47
1629880805171,0.19
1629880805187,-1.11
1629880805203,-3.5
1629880805218,-6.67
1629880805234,-9.98
1629880805250,-12.67
1629880805265,-14.2
1629880805281,-14.46
1629880805296,-13.73
1629880805312,-12.45
1629880805328,-10.97
1629880805343,-9.37
1629880805359,-7.53
1629880805375,-5.34
1629880805390,-2.94
1629880805406,-0.69
1629880805421,0.94
1629880805437,1.63
1629880805453,1.38
1629880805468,0.5
1629880805484,-0.55
1629880805500,-1.33
1629880805515,-1.56
1629880805531,-1.16
1629880805546,-0.2
1629880805562,1.17
1629880805578,2.72
1629880805593,4.19
1629880805609,5.3
1629880805625,5.82
1629880805640,5.65
1629880805656,4.87
1629880805671,3.77
1629880805687,2.72
1629880805703,2.07
1629880805718,1.92
1629880805734,2.16
1629880805750,2.5
1629880805765,2.68
1629880805781,2.58
1629880805796,2.29
1629880805812,2.02
1629880805828,1.94
1629880805843,2.07
1629880805859,2.29
1629880805875,2.4
1629880805890,2.27
1629880805906,1.93
1629880805921,1.51
1629880805937,1.17
1629880805953,1.06
1629880805968,1.21
1629880805984,1.57
1629880806000,2.05
1629880806015,2.51
1629880806031,2.82
1629880806046,2.93
1629880806062,2.88
1629880806078,2.79
1629880806093,2.84
1629880806109,3.07
1629880806125,3.39
1629880806140,3.57
1629880806156,3.41
1629880806171,2.83
1629880806187,1.97
1629880806203,1.08
1629880806218,0.39
1629880806234,0.02
1629880806250,-0.06
1629880806265,0.12
1629880806281,0.58
1629880806296,1.43
1629880806312,2.74
1629880806328,4.44
1629880806343,6.26
1629880806359,7.85
1629880806375,9.06
1629880806390,10.06
1629880806406,11.28
1629880806421,13.14
1629880806437,15.76
1629880806453,18.77
1629880806468,21.56
1629880806484,23.53
1629880806500,24.46
1629880806515,24.62
1629880806531,24.48
1629880806546,24.46
1629880806562,24.62
1629880806578,24.62
1629880806593,24.02
1629880806609,22.49
1629880806625,20.03
1629880806640,16.88
1629880806656,13.25
1629880806671,9.11
1629880806687,4.14
1629880806703,-2.07
1629880806718,-9.79
1629880806734,-18.9
1629880806750,-28.82
1629880806765,-38.69
1629880806781,-47.61
1629880806796,-54.98
1629880806812,-60.63
1629880806828,-64.81
1629880806843,-68.02
1629880806859,-70.7
1629880806875,-73.11
1629880806890,-75.24
1629880806906,-76.94
1629880806921,-77.96
1629880806937,-77.97
1629880806953,-76.31
1629880806968,-72.03
1629880806984,-64.1
1629880807000,-51.89
1629880807015,-35.77
1629880807031,-17.35
1629880807046,0.78
1629880807062,15.81
1629880807078,25.6
1629880807093,29.37
1629880807109,27.71
1629880807125,22.28
1629880807140,15.11
1629880807156,8.1
1629880807171,2.73
1629880807187,-0.05
1629880807203,0.13
1629880807218,3.04
1629880807234,7.8
1629880807250,13.1
1629880807265,17.46
1629880807281,19.76
1629880807296,19.5
1629880807312,16.96
1629880807328,13.05
1629880807343,8.92
1629880807359,5.58
1629880807375,3.69
1629880807390,3.4
1629880807406,4.48
1629880807421,6.45
1629880807437,8.73
1629880807453,10.9
1629880807468,12.71
1629880807484,14.22
1629880807500,15.68
1629880807515,17.32
1629880807531,19.16
1629880807546,20.88
1629880807562,21.89
1629880807578,21.62
1629880807593,19.85
1629880807609,16.97
1629880807625,13.93
1629880807640,11.91
1629880807656,11.76
1629880807671,13.68
1629880807687,17.04
1629880807703,20.77
1629880807718,23.83
1629880807734,25.71
1629880807750,26.6
1629880807765,27.23
1629880807781,28.43
1629880807796,30.62
1629880807812,33.51
1629880807828,36.18
1629880807843,37.46
1629880807859,36.54
1629880807875,33.45
1629880807890,29.08
1629880807906,24.83
1629880807921,21.83
1629880807937,20.41
1629880807953,19.83
1629880807968,18.6
1629880807984,14.99
1629880808000,7.48
1629880808015,-5.04
1629880808031,-23.21
1629880808046,-46.77
1629880808062,-73.92
1629880808078,-100.82
1629880808093,-122.19
1629880808109,-132.84
1629880808125,-129.87
1629880808140,-114.19
1629880808156,-90.43
1629880808171,-64.91
1629880808187,-42.91
1629880808203,-26.45
1629880808218,-13.89
1629880808234,-1.41
1629880808250,14.62
1629880808265,35.85
1629880808281,61.37
1629880808296,88.59
1629880808312,114.56
1629880808328,137.0
1629880808343,154.67
1629880808359,167.11
1629880808375,174.14
1629880808390,175.71
1629880808406,171.79
1629880808421,162.46
1629880808437,148.19
1629880808453,129.92
1629880808468,108.96
1629880808484,86.79
1629880808500,64.61
1629880808515,43.07
1629880808531,22.14
1629880808546,1.31
1629880808562,-19.82
1629880808578,-41.06
1629880808593,-61.17
1629880808609,-78.06
1629880808625,-89.25
1629880808640,-92.78
1629880808656,-87.98
1629880808671,-75.91
1629880808687,-59.12
1629880808703,-40.83
1629880808718,-23.8
1629880808734,-9.21
1629880808750,3.76
1629880808765,17.67
1629880808781,35.76
1629880808796,60.51
1629880808812,92.15
1629880808828,127.86
1629880808843,162.0
1629880808859,187.52
1629880808875,198.05
1629880808890,190.13
1629880808906,164.25
1629880808921,124.75
1629880808937,78.08
1629880808953,30.38
1629880808968,-14.64
1629880808984,-56.81
1629880809000,-99.1
1629880809015,-146.04
1629880809031,-201.36
1629880809046,-265.64
1629880809062,-334.84
1629880809078,-400.63
1629880809093,-452.22
1629880809109,-479.53
1629880809125,-476.51
1629880809140,-443.52
1629880809156,-387.92
1629880809171,-322.52
1629880809187,-262.08
1629880809203,-219.04
1629880809218,-200.0
1629880809234,-203.96
1629880809250,-223.28
1629880809265,-246.82
1629880809281,-263.86
1629880809296,-267.4
1629880809312,-255.37
1629880809328,-229.74
1629880809343,-194.28
1629880809359,-152.43
1629880809375,-106.19
1629880809390,-56.43
1629880809406,-4.15
1629880809421,48.78
1629880809437,99.46
1629880809453,144.76
1629880809468,182.33
1629880809484,211.2
1629880809500,231.91
1629880809515,246.02
1629880809531,255.41
1629880809546,261.59
1629880809562,265.18
1629880809578,265.85
1629880809593,262.59
1629880809609,254.44
1629880809625,241.18
1629880809640,223.75
1629880809656,204.0
1629880809671,183.93
1629880809687,164.94
1629880809703,147.32
1629880809718,130.58
1629880809734,114.13
1629880809750,98.09
1629880809765,83.54
1629880809781,72.17
1629880809796,65.42
1629880809812,63.42
1629880809828,64.73
1629880809843,66.72
1629880809859,66.58
1629880809875,62.54
1629880809890,54.45
1629880809906,43.74
1629880809921,32.67
1629880809937,23.37
1629880809953,17.01
1629880809968,13.63
1629880809984,12.43
1629880810000,12.36
1629880810015,12.64
1629880810031,12.99
1629880810046,13.43
1629880810062,13.95
1629880810078,14.21
1629880810093,13.55
1629880810109,11.31
1629880810125,7.24
1629880810140,1.64
1629880810156,-4.71
1629880810171,-10.98
1629880810187,-16.62
1629880810203,-21.45
1629880810218,-25.53
1629880810234,-28.89
1629880810250,-31.41
1629880810265,-32.93
1629880810281,-33.47
1629880810296,-33.34
1629880810312,-33.03
1629880810328,-32.93
1629880810343,-33.0
1629880810359,-32.72
1629880810375,-31.41
1629880810390,-28.6
1629880810406,-24.34
1629880810421,-19.23
1629880810437,-14.05
1629880810453,-9.42
1629880810468,-5.57
1629880810484,-2.3
1629880810500,0.68
1629880810515,3.53
1629880810531,6.21
1629880810546,8.64
1629880810562,10.81
1629880810578,12.93
1629880810593,15.26
1629880810609,17.9
1629880810625,20.56
1629880810640,22.68
1629880810656,23.61
1629880810671,23.06
1629880810687,21.35
1629880810703,19.46
1629880810718,18.88
1629880810734,21.06
1629880810750,26.92
1629880810765,36.41
1629880810781,48.27
1629880810796,60.37
1629880810812,70.33
1629880810828,76.23
1629880810843,77.23
1629880810859,73.67
1629880810875,66.7
1629880810890,57.62
1629880810906,47.49
1629880810921,36.84
1629880810937,25.98
1629880810953,15.26
1629880810968,5.21
1629880810984,-3.53
1629880811000,-10.43
1629880811015,-15.36
1629880811031,-18.57
1629880811046,-20.5
1629880811062,-21.59
1629880811078,-22.13
1629880811093,-22.2
1629880811109,-21.83
1629880811125,-21.07
1629880811140,-20.07
1629880811156,-19.06
1629880811171,-18.3
1629880811187,-17.98
1629880811203,-18.19
1629880811218,-18.87
1629880811234,-19.77
1629880811250,-20.53
1629880811265,-20.67
1629880811281,-19.84
1629880811296,-17.89
1629880811312,-15.04
1629880811328,-11.74
1629880811343,-8.58
1629880811359,-6.0
1629880811375,-4.08
1629880811390,-2.6
1629880811406,-1.14
1629880811421,0.65
1629880811437,2.81
1629880811453,5.06
1629880811468,6.9
1629880811484,7.86
1629880811500,7.63
1629880811515,6.27
1629880811531,4.11
1629880811546,1.69
1629880811562,-0.44
1629880811578,-1.85
1629880811593,-2.42
1629880811609,-2.33
1629880811625,-2.0
1629880811640,-1.88
1629880811656,-2.25
1629880811671,-3.11
1629880811687,-4.18
1629880811703,-5.08
1629880811718,-5.56
1629880811734,-5.58
1629880811750,-5.34
1629880811765,-5.13
1629880811781,-5.07
1629880811796,-5.1
1629880811812,-4.99
1629880811828,-4.5
1629880811843,-3.56
1629880811859,-2.27
1629880811875,-0.87
1629880811890,0.45
1629880811906,1.61
1629880811921,2.71
1629880811937,3.87
1629880811953,5.13
1629880811968,6.38
1629880811984,7.42
1629880812000,8.08
1629880812015,8.37
1629880812031,8.51
1629880812046,8.82
1629880812062,9.52
1629880812078,10.64
1629880812093,11.93
1629880812109,12.99
1629880812125,13.49
1629880812140,13.28
1629880812156,12.52
1629880812171,11.63
1629880812187,11.14
1629880812203,11.5
1629880812218,12.93
1629880812234,15.26
1629880812250,17.89
1629880812265,19.74
1629880812281,19.33
1629880812296,15.19
1629880812312,6.33
1629880812328,-7.29
1629880812343,-24.48
1629880812359,-43.03
1629880812375,-60.27
1629880812390,-73.86
1629880812406,-82.43
1629880812421,-85.8
1629880812437,-84.82
1629880812453,-80.86
1629880812468,-75.35
1629880812484,-69.45
1629880812500,-64.03
1629880812515,-59.7
1629880812531,-56.94
1629880812546,-56.07
1629880812562,-57.08
1629880812578,-59.64
1629880812593,-62.98
1629880812609,-66.15
1629880812625,-68.25
1629880812640,-68.71
1629880812656,-67.46
1629880812671,-64.85
1629880812687,-61.41
1629880812703,-57.51
1629880812718,-53.21
1629880812734,-48.29
1629880812750,-42.5
1629880812765,-35.8
1629880812781,-28.45
1629880812796,-20.93
1629880812812,-13.61
1629880812828,-6.58
1629880812843,0.55
1629880812859,8.53
1629880812875,18.16
1629880812890,29.92
1629880812906,43.43
1629880812921,57.28
1629880812937,69.16
1629880812953,76.37
1629880812968,76.82
1629880812984,69.78
1629880813000,56.36
1629880813015,39.12
1629880813031,21.29
1629880813046,5.6
1629880813062,-6.39
1629880813078,-14.44
1629880813093,-19.21
1629880813109,-21.63
1629880813125,-22.53
1629880813140,-22.42
1629880813156,-21.72
1629880813171,-20.81
1629880813187,-20.08
1629880813203,-19.69
1629880813218,-19.48
1629880813234,-18.96
1629880813250,-17.56
1629880813265,-14.98
1629880813281,-11.44
1629880813296,-7.61
1629880813312,-4.39
1629880813328,-2.49
1629880813343,-2.16
1629880813359,-3.08
1629880813375,-4.59
1629880813390,-5.96
1629880813406,-6.69
1629880813421,-6.62
1629880813437,-5.91
1629880813453,-4.93
1629880813468,-4.07
1629880813484,-3.56
1629880813500,-3.38
1629880813515,-3.26
1629880813531,-2.64
1629880813546,-0.93
1629880813562,2.4
1629880813578,7.49
1629880813593,13.98
1629880813609,21.0
1629880813625,27.39
1629880813640,31.95
1629880813656,33.89
1629880813671,33.05
1629880813687,30.07
1629880813703,26.24
1629880813718,23.19
1629880813734,22.41
1629880813750,24.82
1629880813765,30.54
1629880813781,38.97
1629880813796,49.02
1629880813812,59.49
1629880813828,69.34
1629880813843,77.79
1629880813859,84.27
1629880813875,88.39
1629880813890,89.81
1629880813906,88.37
1629880813921,84.1
1629880813937,77.37
1629880813953,68.91
1629880813968,59.64
1629880813984,50.53
1629880814000,42.31
1629880814015,35.37
1629880814031,29.74
1629880814046,25.19
1629880814062,21.36
1629880814078,17.96
1629880814093,14.79
1629880814109,11.75
1629880814125,8.79
1629880814140,5.87
1629880814156,3.04
1629880814171,0.4
1629880814187,-1.9
1629880814203,-3.7
1629880814218,-4.92
1629880814234,-5.61
1629880814250,-5.89
1629880814265,-5.93
1629880814281,-5.83
1629880814296,-5.65
1629880814312,-5.45
1629880814328,-5.31
1629880814343,-5.39
1629880814359,-5.85
1629880814375,-6.79
1629880814390,-8.15
1629880814406,-9.71
1629880814421,-11.18
1629880814437,-12.24
1629880814453,-12.66
1629880814468,-12.34
1629880814484,-11.46
1629880814500,-10.52
1629880814515,-10.28
1629880814531,-11.64
1629880814546,-15.24
1629880814562,-21.22
1629880814578,-29.07
1629880814593,-37.81
1629880814609,-46.35
1629880814625,-53.81
1629880814640,-59.79
1629880814656,-64.21
1629880814671,-67.1
1629880814687,-68.4
1629880814703,-67.84
1629880814718,-65.13
1629880814734,-60.18
1629880814750,-53.16
1629880814765,-44.53
1629880814781,-34.86
1629880814796,-24.68
1629880814812,-14.45
1629880814828,-4.55
1629880814843,4.66
1629880814859,12.79
1629880814875,19.58
1629880814890,24.89
1629880814906,28.76
1629880814921,31.33
