timestamp,bvp
1630415912000,21.93
1630415912015,18.36
1630415912031,15.26
1630415912046,12.53
1630415912062,10.14
1630415912078,8.08
1630415912093,6.37
1630415912109,4.99
1630415912125,3.86
1630415912140,2.84
1630415912156,1.77
1630415912171,0.53
1630415912187,-0.93
1630415912203,-2.59
1630415912218,-4.35
1630415912234,-6.09
1630415912250,-7.71
1630415912265,-9.15
1630415912281,-10.42
1630415912296,-11.59
1630415912312,-12.78
1630415912328,-14.12
1630415912343,-15.74
1630415912359,-17.68
1630415912375,-19.84
1630415912390,-22.0
1630415912406,-23.77
1630415912421,-24.71
1630415912437,-24.41
1630415912453,-22.71
1630415912468,-19.65
1630415912484,-15.61
1630415912500,-11.11
1630415912515,-6.7
1630415912531,-2.85
1630415912546,0.22
1630415912562,2.46
1630415912578,3.98
1630415912593,4.96
1630415912609,5.56
1630415912625,5.94
1630415912640,6.19
1630415912656,6.43
1630415912671,6.79
1630415912687,7.32
1630415912703,8.02
1630415912718,8.78
1630415912734,9.38
1630415912750,9.66
1630415912765,9.55
1630415912781,9.07
1630415912796,8.36
1630415912812,7.57
1630415912828,6.78
1630415912843,5.98
1630415912859,5.11
1630415912875,4.12
1630415912890,2.99
1630415912906,1.75
1630415912921,0.49
1630415912937,-0.73
1630415912953,-1.84
1630415912968,-2.83
1630415912984,-3.76
1630415913000,-4.74
1630415913015,-5.91
1630415913031,-7.4
1630415913046,-9.21
1630415913062,-11.25
1630415913078,-13.24
1630415913093,-14.83
1630415913109,-15.65
1630415913125,-15.42
1630415913140,-14.03
1630415913156,-11.6
1630415913171,-8.36
1630415913187,-4.66
1630415913203,-0.86
1630415913218,2.75
1630415913234,5.99
1630415913250,8.75
1630415913265,10.96
1630415913281,12.59
1630415913296,13.59
1630415913312,13.97
1630415913328,13.81
1630415913343,13.27
1630415913359,12.58
1630415913375,11.97
1630415913390,11.6
1630415913406,11.53
1630415913421,11.65
1630415913437,11.82
1630415913453,11.84
1630415913468,11.6
1630415913484,11.06
1630415913500,10.29
1630415913515,9.4
1630415913531,8.49
1630415913546,7.64
1630415913562,6.83
1630415913578,6.02
1630415913593,5.14
1630415913609,4.16
1630415913625,3.08
1630415913640,1.97
1630415913656,0.86
1630415913671,-0.23
1630415913687,-1.33
1630415913703,-2.48
1630415913718,-3.76
1630415913734,-5.21
1630415913750,-6.83
1630415913765,-8.58
1630415913781,-10.35
1630415913796,-11.94
1630415913812,-13.12
1630415913828,-13.65
1630415913843,-13.35
1630415913859,-12.2
1630415913875,-10.31
1630415913890,-7.91
1630415913906,-5.22
1630415913921,-2.46
1630415913937,0.24
1630415913953,2.74
1630415913968,4.92
1630415913984,6.67
1630415914000,7.92
1630415914015,8.71
1630415914031,9.14
1630415914046,9.34
1630415914062,9.4
1630415914078,9.36
1630415914093,9.25
1630415914109,9.1
1630415914125,9.03
1630415914140,9.14
1630415914156,9.43
1630415914171,9.77
1630415914187,9.94
1630415914203,9.75
1630415914218,9.14
1630415914234,8.25
1630415914250,7.31
1630415914265,6.48
1630415914281,5.8
1630415914296,5.11
1630415914312,4.23
1630415914328,3.07
1630415914343,1.7
1630415914359,0.28
1630415914375,-1.02
1630415914390,-2.16
1630415914406,-3.22
1630415914421,-4.36
1630415914437,-5.73
1630415914453,-7.42
1630415914468,-9.43
1630415914484,-11.69
1630415914500,-14.01
1630415914515,-16.16
1630415914531,-17.8
1630415914546,-18.57
1630415914562,-18.19
1630415914578,-16.55
1630415914593,-13.75
1630415914609,-10.1
1630415914625,-6.04
1630415914640,-2.02
1630415914656,1.62
1630415914671,4.66
1630415914687,7.04
1630415914703,8.79
1630415914718,10.0
1630415914734,10.72
1630415914750,11.01
1630415914765,10.95
1630415914781,10.66
1630415914796,10.3
1630415914812,10.04
1630415914828,9.95
1630415914843,10.03
1630415914859,10.14
1630415914875,10.11
1630415914890,9.81
1630415914906,9.23
1630415914921,8.45
1630415914937,7.63
1630415914953,6.89
1630415914968,6.21
1630415914984,5.5
1630415915000,4.58
1630415915015,3.35
1630415915031,1.83
1630415915046,0.16
1630415915062,-1.42
1630415915078,-2.73
1630415915093,-3.73
1630415915109,-4.5
1630415915125,-5.23
1630415915140,-6.13
1630415915156,-7.32
1630415915171,-8.83
1630415915187,-10.64
1630415915203,-12.64
1630415915218,-14.68
1630415915234,-16.47
1630415915250,-17.67
1630415915265,-17.87
1630415915281,-16.82
1630415915296,-14.48
1630415915312,-11.09
1630415915328,-7.15
1630415915343,-3.16
1630415915359,0.45
1630415915375,3.53
1630415915390,6.1
1630415915406,8.3
1630415915421,10.24
1630415915437,11.94
1630415915453,13.35
1630415915468,14.37
1630415915484,15.0
1630415915500,15.29
1630415915515,15.34
1630415915531,15.26
1630415915546,15.13
1630415915562,14.97
1630415915578,14.79
1630415915593,14.58
1630415915609,14.32
1630415915625,14.0
1630415915640,13.58
1630415915656,13.04
1630415915671,12.39
1630415915687,11.71
1630415915703,11.05
1630415915718,10.47
1630415915734,9.94
1630415915750,9.36
1630415915765,8.62
1630415915781,7.68
1630415915796,6.59
1630415915812,5.49
1630415915828,4.53
1630415915843,3.79
1630415915859,3.22
1630415915875,2.7
1630415915890,2.05
1630415915906,1.18
1630415915921,0.01
1630415915937,-1.42
1630415915953,-2.99
1630415915968,-4.49
1630415915984,-5.61
1630415916000,-5.98
1630415916015,-5.26
1630415916031,-3.28
1630415916046,-0.14
1630415916062,3.79
1630415916078,7.96
1630415916093,11.81
1630415916109,14.93
1630415916125,17.17
1630415916140,18.59
1630415916156,19.41
1630415916171,19.85
1630415916187,20.1
1630415916203,20.21
1630415916218,20.13
1630415916234,19.81
1630415916250,19.24
1630415916265,18.5
1630415916281,17.75
1630415916296,17.19
1630415916312,16.91
1630415916328,16.86
1630415916343,16.87
1630415916359,16.7
1630415916375,16.17
1630415916390,15.24
1630415916406,13.96
1630415916421,12.46
1630415916437,10.79
1630415916453,8.92
1630415916468,6.76
1630415916484,4.26
1630415916500,1.42
1630415916515,-1.59
1630415916531,-4.57
1630415916546,-7.26
1630415916562,-9.5
1630415916578,-11.26
1630415916593,-12.66
1630415916609,-13.93
1630415916625,-15.38
1630415916640,-17.23
1630415916656,-19.57
1630415916671,-22.34
1630415916687,-25.27
1630415916703,-27.99
1630415916718,-30.11
1630415916734,-31.3
1630415916750,-31.34
1630415916765,-30.18
1630415916781,-27.91
1630415916796,-24.72
1630415916812,-20.91
1630415916828,-16.8
1630415916843,-12.65
1630415916859,-8.71
1630415916875,-5.07
1630415916890,-1.8
1630415916906,1.1
1630415916921,3.63
1630415916937,5.74
1630415916953,7.31
1630415916968,8.29
1630415916984,8.7
1630415917000,8.66
1630415917015,8.41
1630415917031,8.15
1630415917046,8.03
1630415917062,8.01
1630415917078,8.0
1630415917093,7.86
1630415917109,7.56
1630415917125,7.16
1630415917140,6.78
1630415917156,6.46
1630415917171,6.15
1630415917187,5.69
1630415917203,4.92
1630415917218,3.76
1630415917234,2.28
1630415917250,0.66
1630415917265,-0.91
1630415917281,-2.28
1630415917296,-3.39
1630415917312,-4.29
1630415917328,-5.07
1630415917343,-5.88
1630415917359,-6.84
1630415917375,-8.07
1630415917390,-9.61
1630415917406,-11.41
1630415917421,-13.31
1630415917437,-15.03
1630415917453,-16.21
1630415917468,-16.44
1630415917484,-15.44
1630415917500,-13.12
1630415917515,-9.66
1630415917531,-5.49
1630415917546,-1.17
1630415917562,2.81
1630415917578,6.15
1630415917593,8.79
1630415917609,10.81
1630415917625,12.34
1630415917640,13.43
1630415917656,14.09
1630415917671,14.32
1630415917687,14.22
1630415917703,13.98
1630415917718,13.81
1630415917734,13.85
1630415917750,14.11
1630415917765,14.46
1630415917781,14.7
1630415917796,14.7
1630415917812,14.42
1630415917828,13.95
1630415917843,13.39
1630415917859,12.85
1630415917875,12.32
1630415917890,11.73
1630415917906,11.0
1630415917921,10.05
1630415917937,8.88
1630415917953,7.58
1630415917968,6.28
1630415917984,5.04
1630415918000,3.85
1630415918015,2.61
1630415918031,1.19
1630415918046,-0.5
1630415918062,-2.43
1630415918078,-4.47
1630415918093,-6.47
1630415918109,-8.35
1630415918125,-10.13
1630415918140,-11.85
1630415918156,-13.52
1630415918171,-14.97
1630415918187,-15.86
1630415918203,-15.79
1630415918218,-14.45
1630415918234,-11.82
1630415918250,-8.13
1630415918265,-3.83
1630415918281,0.57
1630415918296,4.69
1630415918312,8.3
1630415918328,11.35
1630415918343,13.82
1630415918359,15.69
1630415918375,16.9
1630415918390,17.42
1630415918406,17.29
1630415918421,16.68
1630415918437,15.85
1630415918453,15.06
1630415918468,14.46
1630415918484,14.08
1630415918500,13.79
1630415918515,13.43
1630415918531,12.89
1630415918546,12.15
1630415918562,11.31
1630415918578,10.44
1630415918593,9.58
1630415918609,8.7
1630415918625,7.7
1630415918640,6.47
1630415918656,4.94
1630415918671,3.09
1630415918687,0.95
1630415918703,-1.38
1630415918718,-3.74
1630415918734,-5.95
1630415918750,-7.83
1630415918765,-9.27
1630415918781,-10.25
1630415918796,-10.89
1630415918812,-11.38
1630415918828,-11.89
1630415918843,-12.58
1630415918859,-13.46
1630415918875,-14.5
1630415918890,-15.52
1630415918906,-16.31
1630415918921,-16.54
1630415918937,-15.89
1630415918953,-14.07
1630415918968,-10.98
1630415918984,-6.77
1630415919000,-1.84
1630415919015,3.28
1630415919031,8.09
1630415919046,12.18
1630415919062,15.36
1630415919078,17.56
1630415919093,18.83
1630415919109,19.21
1630415919125,18.8
1630415919140,17.72
1630415919156,16.15
1630415919171,14.33
1630415919187,12.57
1630415919203,11.11
1630415919218,10.13
1630415919234,9.58
1630415919250,9.3
1630415919265,8.99
1630415919281,8.4
1630415919296,7.32
1630415919312,5.78
1630415919328,3.92
1630415919343,1.99
1630415919359,0.24
1630415919375,-1.15
1630415919390,-2.08
1630415919406,-2.59
1630415919421,-2.78
1630415919437,-2.77
1630415919453,-2.68
1630415919468,-2.59
1630415919484,-2.5
1630415919500,-2.44
1630415919515,-2.45
1630415919531,-2.6
1630415919546,-3.02
1630415919562,-3.77
1630415919578,-4.86
1630415919593,-6.23
1630415919609,-7.77
1630415919625,-9.33
1630415919640,-10.78
1630415919656,-11.9
1630415919671,-12.45
1630415919687,-12.17
1630415919703,-10.91
1630415919718,-8.71
1630415919734,-5.83
1630415919750,-2.62
1630415919765,0.54
1630415919781,3.42
1630415919796,5.92
1630415919812,8.03
1630415919828,9.8
1630415919843,11.21
1630415919859,12.23
1630415919875,12.86
1630415919890,13.17
1630415919906,13.26
1630415919921,13.29
1630415919937,13.32
1630415919953,13.4
1630415919968,13.54
1630415919984,13.68
1630415920000,13.81
1630415920015,13.86
1630415920031,13.78
1630415920046,13.5
1630415920062,13.01
1630415920078,12.32
1630415920093,11.42
1630415920109,10.28
1630415920125,8.84
1630415920140,7.03
1630415920156,4.9
1630415920171,2.57
1630415920187,0.2
1630415920203,-2.05
1630415920218,-4.19
1630415920234,-6.28
1630415920250,-8.41
1630415920265,-10.6
1630415920281,-12.72
1630415920296,-14.58
1630415920312,-16.05
1630415920328,-17.1
1630415920343,-17.84
1630415920359,-18.38
1630415920375,-18.73
1630415920390,-18.76
1630415920406,-18.24
1630415920421,-16.94
1630415920437,-14.72
1630415920453,-11.63
1630415920468,-7.87
1630415920484,-3.84
1630415920500,-0.03
1630415920515,3.1
1630415920531,5.2
1630415920546,6.25
1630415920562,6.47
1630415920578,6.26
1630415920593,6.02
1630415920609,5.96
1630415920625,6.1
1630415920640,6.3
1630415920656,6.43
1630415920671,6.41
1630415920687,6.3
1630415920703,6.21
1630415920718,6.17
1630415920734,6.17
1630415920750,6.1
1630415920765,5.9
1630415920781,5.53
1630415920796,5.03
1630415920812,4.46
1630415920828,3.87
1630415920843,3.27
1630415920859,2.66
1630415920875,2.05
1630415920890,1.45
1630415920906,0.89
1630415920921,0.37
1630415920937,-0.1
1630415920953,-0.51
1630415920968,-0.85
1630415920984,-1.05
1630415921000,-1.09
1630415921015,-0.96
1630415921031,-0.74
1630415921046,-0.54
1630415921062,-0.53
1630415921078,-0.78
1630415921093,-1.32
1630415921109,-2.03
1630415921125,-2.74
1630415921140,-3.25
1630415921156,-3.35
1630415921171,-2.89
1630415921187,-1.83
1630415921203,-0.23
1630415921218,1.73
1630415921234,3.78
1630415921250,5.63
1630415921265,7.08
1630415921281,8.05
1630415921296,8.62
1630415921312,8.93
1630415921328,9.09
1630415921343,9.09
1630415921359,8.79
1630415921375,8.08
1630415921390,6.96
1630415921406,5.58
1630415921421,4.29
1630415921437,3.35
1630415921453,2.89
1630415921468,2.8
1630415921484,2.8
1630415921500,2.6
1630415921515,2.02
1630415921531,1.05
1630415921546,-0.18
1630415921562,-1.5
1630415921578,-2.82
1630415921593,-4.12
1630415921609,-5.44
1630415921625,-6.8
1630415921640,-8.18
1630415921656,-9.47
1630415921671,-10.55
1630415921687,-11.24
1630415921703,-11.46
1630415921718,-11.17
1630415921734,-10.46
1630415921750,-9.56
1630415921765,-8.72
1630415921781,-8.19
1630415921796,-8.11
1630415921812,-8.44
1630415921828,-9.02
1630415921843,-9.57
1630415921859,-9.82
1630415921875,-9.55
1630415921890,-8.64
1630415921906,-7.07
1630415921921,-4.86
1630415921937,-2.15
1630415921953,0.87
1630415921968,3.9
1630415921984,6.62
1630415922000,8.77
1630415922015,10.24
1630415922031,11.09
1630415922046,11.48
1630415922062,11.61
1630415922078,11.59
1630415922093,11.43
1630415922109,11.05
1630415922125,10.41
1630415922140,9.55
1630415922156,8.57
1630415922171,7.65
1630415922187,6.89
1630415922203,6.31
1630415922218,5.84
1630415922234,5.37
1630415922250,4.8
1630415922265,4.13
1630415922281,3.42
1630415922296,2.76
1630415922312,2.24
1630415922328,1.92
1630415922343,1.78
1630415922359,1.75
1630415922375,1.76
1630415922390,1.72
1630415922406,1.6
1630415922421,1.37
1630415922437,1.06
1630415922453,0.67
1630415922468,0.26
1630415922484,-0.16
1630415922500,-0.59
1630415922515,-1.05
1630415922531,-1.59
1630415922546,-2.28
1630415922562,-3.18
1630415922578,-4.31
1630415922593,-5.6
1630415922609,-6.89
1630415922625,-7.89
1630415922640,-8.29
1630415922656,-7.82
1630415922671,-6.37
1630415922687,-4.03
1630415922703,-1.13
1630415922718,1.84
1630415922734,4.45
1630415922750,6.35
1630415922765,7.42
1630415922781,7.76
1630415922796,7.59
1630415922812,7.13
1630415922828,6.6
1630415922843,6.1
1630415922859,5.66
1630415922875,5.22
1630415922890,4.71
1630415922906,4.07
1630415922921,3.27
1630415922937,2.35
1630415922953,1.4
1630415922968,0.51
1630415922984,-0.23
1630415923000,-0.77
1630415923015,-1.1
1630415923031,-1.28
1630415923046,-1.37
1630415923062,-1.46
1630415923078,-1.62
1630415923093,-1.94
1630415923109,-2.51
1630415923125,-3.35
1630415923140,-4.38
1630415923156,-5.41
1630415923171,-6.26
1630415923187,-6.74
1630415923203,-6.81
1630415923218,-6.58
1630415923234,-6.23
1630415923250,-6.01
1630415923265,-6.05
1630415923281,-6.42
1630415923296,-7.05
1630415923312,-7.8
1630415923328,-8.48
1630415923343,-8.87
1630415923359,-8.8
1630415923375,-8.11
1630415923390,-6.78
1630415923406,-4.85
1630415923421,-2.49
1630415923437,0.1
1630415923453,2.67
1630415923468,5.04
1630415923484,7.04
1630415923500,8.5
1630415923515,9.31
1630415923531,9.41
1630415923546,8.88
1630415923562,7.94
1630415923578,6.94
1630415923593,6.18
1630415923609,5.86
1630415923625,5.91
1630415923640,6.08
1630415923656,6.06
1630415923671,5.68
1630415923687,4.91
1630415923703,3.94
1630415923718,2.98
1630415923734,2.18
1630415923750,1.49
1630415923765,0.8
1630415923781,-0.02
1630415923796,-1.02
1630415923812,-2.17
1630415923828,-3.43
1630415923843,-4.74
1630415923859,-6.12
1630415923875,-7.6
1630415923890,-9.12
1630415923906,-10.61
1630415923921,-11.99
1630415923937,-13.23
1630415923953,-14.42
1630415923968,-15.71
1630415923984,-17.22
1630415924000,-18.92
1630415924015,-20.59
1630415924031,-21.83
1630415924046,-22.18
1630415924062,-21.23
1630415924078,-18.77
1630415924093,-14.78
1630415924109,-9.46
1630415924125,-3.21
1630415924140,3.45
1630415924156,9.97
1630415924171,15.81
1630415924187,20.57
1630415924203,24.02
1630415924218,26.14
1630415924234,27.09
1630415924250,27.08
1630415924265,26.36
1630415924281,25.13
1630415924296,23.56
1630415924312,21.81
1630415924328,20.05
1630415924343,18.45
1630415924359,17.1
1630415924375,15.97
1630415924390,14.93
1630415924406,13.8
1630415924421,12.44
1630415924437,10.85
1630415924453,9.14
1630415924468,7.49
1630415924484,6.03
1630415924500,4.78
1630415924515,3.64
1630415924531,2.49
1630415924546,1.23
1630415924562,-0.13
1630415924578,-1.44
1630415924593,-2.5
1630415924609,-3.15
1630415924625,-3.31
1630415924640,-3.06
1630415924656,-2.59
1630415924671,-2.07
1630415924687,-1.68
1630415924703,-1.47
1630415924718,-1.44
1630415924734,-1.48
1630415924750,-1.48
1630415924765,-1.31
1630415924781,-0.88
1630415924796,-0.11
1630415924812,1.02
1630415924828,2.53
1630415924843,4.36
1630415924859,6.43
1630415924875,8.59
1630415924890,10.7
1630415924906,12.63
1630415924921,14.33
1630415924937,15.82
1630415924953,17.14
1630415924968,18.27
1630415924984,19.07
1630415925000,19.29
1630415925015,18.78
1630415925031,17.48
1630415925046,15.62
1630415925062,13.61
1630415925078,11.95
1630415925093,11.08
1630415925109,11.29
1630415925125,12.7
1630415925140,15.18
1630415925156,18.46
1630415925171,22.01
1630415925187,25.18
1630415925203,27.29
1630415925218,27.83
1630415925234,26.63
1630415925250,23.91
1630415925265,20.23
1630415925281,16.3
1630415925296,12.74
1630415925312,9.95
1630415925328,8.05
1630415925343,6.96
1630415925359,6.38
1630415925375,5.92
1630415925390,5.18
1630415925406,3.84
1630415925421,1.8
1630415925437,-0.86
1630415925453,-3.87
1630415925468,-6.95
1630415925484,-9.85
1630415925500,-12.42
1630415925515,-14.54
1630415925531,-15.98
1630415925546,-16.44
1630415925562,-15.62
1630415925578,-13.38
1630415925593,-9.84
1630415925609,-5.43
1630415925625,-0.75
1630415925640,3.56
1630415925656,6.97
1630415925671,9.08
1630415925687,9.65
1630415925703,8.64
1630415925718,6.24
1630415925734,3.03
1630415925750,-0.09
1630415925765,-2.01
1630415925781,-1.69
1630415925796,1.63
1630415925812,8.26
1630415925828,18.02
1630415925843,30.36
1630415925859,44.35
1630415925875,58.84
1630415925890,72.45
1630415925906,83.68
1630415925921,91.24
1630415925937,94.25
1630415925953,92.62
1630415925968,87.06
1630415925984,79.06
1630415926000,70.2
1630415926015,61.74
1630415926031,54.12
1630415926046,46.86
1630415926062,38.88
1630415926078,28.96
1630415926093,16.28
1630415926109,0.63
1630415926125,-17.37
1630415926140,-36.29
1630415926156,-54.0
1630415926171,-67.98
1630415926187,-75.83
1630415926203,-75.73
1630415926218,-66.8
1630415926234,-49.07
1630415926250,-23.46
1630415926265,8.45
1630415926281,44.59
1630415926296,82.6
1630415926312,120.18
1630415926328,155.45
1630415926343,187.04
1630415926359,213.95
1630415926375,235.04
1630415926390,248.72
1630415926406,252.94
1630415926421,246.05
1630415926437,227.73
1630415926453,199.66
1630415926468,165.17
1630415926484,128.18
1630415926500,91.41
1630415926515,55.66
1630415926531,20.22
1630415926546,-15.75
1630415926562,-51.96
1630415926578,-86.81
1630415926593,-118.55
1630415926609,-146.85
1630415926625,-173.41
1630415926640,-200.92
1630415926656,-230.85
1630415926671,-261.51
1630415926687,-287.91
1630415926703,-304.08
1630415926718,-306.61
1630415926734,-297.23
1630415926750,-282.55
1630415926765,-270.97
1630415926781,-268.28
1630415926796,-274.7
1630415926812,-285.23
1630415926828,-292.91
1630415926843,-292.97
1630415926859,-285.33
1630415926875,-274.11
1630415926890,-264.77
1630415926906,-260.71
1630415926921,-261.56
1630415926937,-263.73
1630415926953,-262.74
1630415926968,-255.64
1630415926984,-241.85
1630415927000,-222.38
1630415927015,-198.05
1630415927031,-168.67
1630415927046,-133.83
1630415927062,-94.8
1630415927078,-55.81
1630415927093,-23.42
1630415927109,-3.51
1630415927125,2.25
1630415927140,-1.57
1630415927156,-5.33
1630415927171,1.2
1630415927187,23.61
1630415927203,59.63
1630415927218,99.69
1630415927234,131.03
1630415927250,143.14
1630415927265,131.67
1630415927281,99.18
1630415927296,52.89
1630415927312,1.04
1630415927328,-50.24
1630415927343,-97.97
1630415927359,-141.54
1630415927375,-180.8
1630415927390,-214.25
1630415927406,-238.42
1630415927421,-248.87
1630415927437,-241.98
1630415927453,-216.6
1630415927468,-174.8
1630415927484,-121.25
1630415927500,-61.85
1630415927515,-2.35
1630415927531,52.4
1630415927546,98.46
1630415927562,132.79
1630415927578,153.58
1630415927593,161.02
1630415927609,158.13
1630415927625,150.67
1630415927640,145.74
1630415927656,149.55
1630415927671,165.2
1630415927687,191.46
1630415927703,223.51
1630415927718,254.9
1630415927734,279.89
1630415927750,295.29
1630415927765,300.82
1630415927781,298.49
1630415927796,291.24
1630415927812,281.8
1630415927828,272.02
1630415927843,262.91
1630415927859,254.74
1630415927875,247.21
1630415927890,239.45
1630415927906,230.02
1630415927921,217.34
1630415927937,200.47
1630415927953,180.14
1630415927968,158.98
1630415927984,140.83
1630415928000,128.94
1630415928015,124.22
1630415928031,124.34
1630415928046,124.42
1630415928062,118.99
1630415928078,104.52
1630415928093,80.83
1630415928109,51.08
1630415928125,20.22
1630415928140,-7.18
1630415928156,-28.55
1630415928171,-43.79
1630415928187,-54.57
1630415928203,-62.99
1630415928218,-70.51
1630415928234,-77.57
1630415928250,-83.83
1630415928265,-88.86
1630415928281,-92.55
1630415928296,-95.14
1630415928312,-96.94
1630415928328,-97.83
1630415928343,-97.12
1630415928359,-93.67
1630415928375,-86.46
1630415928390,-75.11
1630415928406,-60.25
1630415928421,-43.36
1630415928437,-26.38
1630415928453,-11.15
1630415928468,0.85
1630415928484,8.67
1630415928500,11.73
1630415928515,9.82
1630415928531,3.13
1630415928546,-7.61
1630415928562,-21.21
1630415928578,-36.33
1630415928593,-51.98
1630415928609,-67.85
1630415928625,-84.2
1630415928640,-101.24
1630415928656,-118.38
1630415928671,-133.7
1630415928687,-144.2
1630415928703,-146.74
1630415928718,-139.14
1630415928734,-121.09
1630415928750,-94.22
1630415928765,-61.49
1630415928781,-26.21
1630415928796,8.71
1630415928812,41.08
1630415928828,69.19
1630415928843,91.45
1630415928859,106.11
1630415928875,111.5
1630415928890,106.57
1630415928906,91.53
1630415928921,68.19
1630415928937,39.77
1630415928953,10.22
1630415928968,-16.85
1630415928984,-39.03
1630415929000,-55.52
1630415929015,-67.02
1630415929031,-75.05
1630415929046,-81.14
1630415929062,-86.24
1630415929078,-90.45
1630415929093,-93.22
1630415929109,-93.67
1630415929125,-90.98
1630415929140,-84.63
1630415929156,-74.51
1630415929171,-60.89
1630415929187,-44.48
1630415929203,-26.35
1630415929218,-7.87
1630415929234,9.48
1630415929250,24.33
1630415929265,35.66
1630415929281,42.96
1630415929296,46.27
1630415929312,46.1
1630415929328,43.2
1630415929343,38.48
1630415929359,32.77
1630415929375,26.75
1630415929390,20.96
1630415929406,15.7
1630415929421,11.17
1630415929437,7.45
1630415929453,4.64
1630415929468,2.89
1630415929484,2.43
1630415929500,3.56
1630415929515,6.45
1630415929531,11.06
1630415929546,17.02
1630415929562,23.61
1630415929578,29.96
1630415929593,35.15
1630415929609,38.49
1630415929625,39.62
1630415929640,38.52
1630415929656,35.53
1630415929671,31.21
1630415929687,26.21
1630415929703,21.12
1630415929718,16.44
1630415929734,12.46
1630415929750,9.31
1630415929765,6.98
1630415929781,5.36
1630415929796,4.25
1630415929812,3.37
1630415929828,2.35
1630415929843,0.84
1630415929859,-1.45
1630415929875,-4.67
1630415929890,-8.85
1630415929906,-13.92
1630415929921,-19.84
1630415929937,-26.61
1630415929953,-34.25
1630415929968,-42.69
1630415929984,-51.71
1630415930000,-60.86
1630415930015,-69.56
1630415930031,-77.17
1630415930046,-83.11
1630415930062,-86.92
1630415930078,-88.37
1630415930093,-87.39
1630415930109,-84.15
1630415930125,-78.88
1630415930140,-71.87
1630415930156,-63.34
1630415930171,-53.44
1630415930187,-42.24
1630415930203,-29.84
1630415930218,-16.46
1630415930234,-2.49
1630415930250,11.48
1630415930265,24.75
1630415930281,36.58
1630415930296,46.33
1630415930312,53.56
1630415930328,58.07
1630415930343,59.9
1630415930359,59.31
1630415930375,56.76
1630415930390,52.84
1630415930406,48.24
1630415930421,43.63
1630415930437,39.5
1630415930453,36.14
1630415930468,33.55
1630415930484,31.52
1630415930500,29.73
1630415930515,27.93
1630415930531,25.91
1630415930546,23.52
1630415930562,20.7
1630415930578,17.37
1630415930593,13.58
1630415930609,9.5
1630415930625,5.49
1630415930640,1.97
1630415930656,-0.6
1630415930671,-1.98
1630415930687,-2.1
1630415930703,-1.13
1630415930718,0.61
1630415930734,2.8
1630415930750,5.18
1630415930765,7.57
1630415930781,9.9
1630415930796,12.12
1630415930812,14.17
1630415930828,15.99
1630415930843,17.43
1630415930859,18.38
1630415930875,18.73
1630415930890,18.46
1630415930906,17.67
1630415930921,16.54
1630415930937,15.32
1630415930953,14.26
1630415930968,13.56
1630415930984,13.38
1630415931000,13.8
1630415931015,14.83
1630415931031,16.38
1630415931046,18.19
1630415931062,19.89
1630415931078,21.08
1630415931093,21.39
1630415931109,20.68
1630415931125,18.99
1630415931140,16.58
1630415931156,13.82
1630415931171,11.03
1630415931187,8.44
1630415931203,6.13
1630415931218,4.08
1630415931234,2.16
1630415931250,0.18
1630415931265,-2.01
1630415931281,-4.61
1630415931296,-7.68
1630415931312,-11.18
1630415931328,-14.85
1630415931343,-18.26
1630415931359,-20.92
1630415931375,-22.43
1630415931390,-22.57
1630415931406,-21.43
1630415931421,-19.31
1630415931437,-16.55
1630415931453,-13.44
1630415931468,-10.12
1630415931484,-6.54
1630415931500,-2.7
1630415931515,1.35
1630415931531,5.39
1630415931546,9.08
1630415931562,12.1
1630415931578,14.29
1630415931593,15.66
1630415931609,16.42
1630415931625,16.8
1630415931640,16.97
1630415931656,16.94
1630415931671,16.57
1630415931687,15.73
1630415931703,14.3
1630415931718,12.33
1630415931734,10.02
1630415931750,7.63
1630415931765,5.4
1630415931781,3.48
1630415931796,1.9
1630415931812,0.59
1630415931828,-0.6
1630415931843,-1.8
1630415931859,-3.1
1630415931875,-4.49
1630415931890,-5.88
1630415931906,-7.12
1630415931921,-8.08
1630415931937,-8.72
1630415931953,-9.14
1630415931968,-9.56
1630415931984,-10.21
1630415932000,-11.24
1630415932015,-12.65
1630415932031,-14.26
1630415932046,-15.78
1630415932062,-16.9
1630415932078,-17.34
1630415932093,-16.92
1630415932109,-15.58
1630415932125,-13.36
1630415932140,-10.4
1630415932156,-6.85
1630415932171,-2.96
1630415932187,1.02
1630415932203,4.82
1630415932218,8.14
1630415932234,10.75
1630415932250,12.52
1630415932265,13.45
1630415932281,13.66
1630415932296,13.32
1630415932312,12.62
1630415932328,11.69
1630415932343,10.64
1630415932359,9.59
1630415932375,8.68
1630415932390,8.01
1630415932406,7.64
1630415932421,7.5
1630415932437,7.44
1630415932453,7.3
1630415932468,6.99
1630415932484,6.46
1630415932500,5.75
1630415932515,4.92
1630415932531,4.0
1630415932546,2.99
1630415932562,1.88
1630415932578,0.7
1630415932593,-0.53
1630415932609,-1.74
1630415932625,-2.9
1630415932640,-3.94
1630415932656,-4.86
1630415932671,-5.71
1630415932687,-6.57
1630415932703,-7.53
1630415932718,-8.66
1630415932734,-9.96
1630415932750,-11.37
1630415932765,-12.83
1630415932781,-14.27
1630415932796,-15.63
1630415932812,-16.81
1630415932828,-17.6
1630415932843,-17.74
1630415932859,-16.94
1630415932875,-15.07
1630415932890,-12.21
1630415932906,-8.62
1630415932921,-4.71
1630415932937,-0.83
1630415932953,2.76
1630415932968,5.92
1630415932984,8.6
1630415933000,10.74
1630415933015,12.26
1630415933031,13.08
1630415933046,13.2
1630415933062,12.7
1630415933078,11.82
1630415933093,10.81
1630415933109,9.91
1630415933125,9.29
1630415933140,8.93
1630415933156,8.73
1630415933171,8.51
1630415933187,8.12
1630415933203,7.48
1630415933218,6.61
1630415933234,5.55
1630415933250,4.32
1630415933265,2.94
1630415933281,1.42
1630415933296,-0.16
1630415933312,-1.66
1630415933328,-2.9
1630415933343,-3.77
1630415933359,-4.29
1630415933375,-4.56
1630415933390,-4.75
1630415933406,-5.0
1630415933421,-5.41
1630415933437,-6.0
1630415933453,-6.7
1630415933468,-7.44
1630415933484,-8.11
1630415933500,-8.64
1630415933515,-9.0
1630415933531,-9.32
1630415933546,-9.78
1630415933562,-10.63
1630415933578,-11.96
1630415933593,-13.69
1630415933609,-15.52
1630415933625,-16.96
1630415933640,-17.46
1630415933656,-16.48
1630415933671,-13.7
1630415933687,-9.04
1630415933703,-2.8
1630415933718,4.35
1630415933734,11.51
1630415933750,17.77
1630415933765,22.49
1630415933781,25.38
1630415933796,26.59
1630415933812,26.48
1630415933828,25.5
1630415933843,24.04
1630415933859,22.42
1630415933875,20.88
1630415933890,19.61
1630415933906,18.7
1630415933921,18.06
1630415933937,17.44
1630415933953,16.53
1630415933968,15.03
1630415933984,12.85
1630415934000,10.04
1630415934015,6.85
1630415934031,3.55
1630415934046,0.43
1630415934062,-2.3
1630415934078,-4.53
1630415934093,-6.25
1630415934109,-7.57
1630415934125,-8.66
1630415934140,-9.72
1630415934156,-10.87
1630415934171,-12.1
1630415934187,-13.33
1630415934203,-14.4
1630415934218,-15.2
1630415934234,-15.72
1630415934250,-16.09
1630415934265,-16.52
1630415934281,-17.23
1630415934296,-18.35
1630415934312,-19.9
1630415934328,-21.68
1630415934343,-23.41
1630415934359,-24.7
1630415934375,-25.17
1630415934390,-24.52
1630415934406,-22.59
1630415934421,-19.46
1630415934437,-15.41
1630415934453,-10.84
1630415934468,-6.21
1630415934484,-1.97
1630415934500,1.56
1630415934515,4.22
1630415934531,5.97
1630415934546,6.91
1630415934562,7.28
1630415934578,7.43
1630415934593,7.77
1630415934609,8.62
1630415934625,10.09
1630415934640,12.03
1630415934656,14.01
1630415934671,15.58
1630415934687,16.38
1630415934703,16.29
1630415934718,15.45
1630415934734,14.14
1630415934750,12.61
1630415934765,11.04
1630415934781,9.46
1630415934796,7.88
1630415934812,6.3
1630415934828,4.79
1630415934843,3.46
1630415934859,2.38
1630415934875,1.6
1630415934890,1.04
1630415934906,0.57
1630415934921,0.06
1630415934937,-0.58
1630415934953,-1.33
1630415934968,-2.08
1630415934984,-2.68
1630415935000,-3.07
1630415935015,-3.32
1630415935031,-3.67
1630415935046,-4.36
1630415935062,-5.6
1630415935078,-7.36
1630415935093,-9.41
1630415935109,-11.43
1630415935125,-13.08
1630415935140,-14.09
1630415935156,-14.32
1630415935171,-13.72
1630415935187,-12.34
1630415935203,-10.27
1630415935218,-7.73
1630415935234,-4.99
1630415935250,-2.35
1630415935265,-0.06
1630415935281,1.71
1630415935296,2.93
1630415935312,3.66
1630415935328,3.97
1630415935343,3.97
1630415935359,3.73
1630415935375,3.39
1630415935390,3.08
1630415935406,2.93
1630415935421,3.07
1630415935437,3.51
1630415935453,4.18
1630415935468,4.94
1630415935484,5.64
1630415935500,6.16
1630415935515,6.43
1630415935531,6.47
1630415935546,6.27
1630415935562,5.82
1630415935578,5.09
1630415935593,4.11
1630415935609,2.91
1630415935625,1.61
1630415935640,0.33
1630415935656,-0.86
1630415935671,-1.97
1630415935687,-3.09
1630415935703,-4.31
1630415935718,-5.62
1630415935734,-6.95
1630415935750,-8.12
1630415935765,-8.95
1630415935781,-9.37
1630415935796,-9.42
1630415935812,-9.26
1630415935828,-9.02
1630415935843,-8.72
1630415935859,-8.26
1630415935875,-7.43
1630415935890,-6.01
1630415935906,-3.89
1630415935921,-1.13
1630415935937,2.07
1630415935953,5.37
1630415935968,8.42
1630415935984,10.89
1630415936000,12.59
1630415936015,13.47
1630415936031,13.63
1630415936046,13.26
1630415936062,12.58
1630415936078,11.78
1630415936093,10.98
1630415936109,10.25
1630415936125,9.65
1630415936140,9.2
1630415936156,8.95
1630415936171,8.92
1630415936187,9.01
1630415936203,9.06
1630415936218,8.9
1630415936234,8.4
1630415936250,7.57
1630415936265,6.52
1630415936281,5.43
1630415936296,4.45
1630415936312,3.56
1630415936328,2.71
1630415936343,1.79
1630415936359,0.78
1630415936375,-0.25
1630415936390,-1.16
1630415936406,-1.81
1630415936421,-2.19
1630415936437,-2.48
1630415936453,-2.91
1630415936468,-3.73
1630415936484,-5.04
1630415936500,-6.82
1630415936515,-8.85
1630415936531,-10.89
1630415936546,-12.63
1630415936562,-13.8
1630415936578,-14.17
1630415936593,-13.62
1630415936609,-12.16
1630415936625,-9.97
1630415936640,-7.37
1630415936656,-4.65
1630415936671,-2.08
1630415936687,0.21
1630415936703,2.2
1630415936718,3.89
1630415936734,5.26
1630415936750,6.25
1630415936765,6.79
1630415936781,6.87
1630415936796,6.59
1630415936812,6.12
1630415936828,5.67
1630415936843,5.36
1630415936859,5.24
1630415936875,5.25
1630415936890,5.3
1630415936906,5.27
1630415936921,5.11
1630415936937,4.78
1630415936953,4.29
1630415936968,3.66
1630415936984,2.94
1630415937000,2.17
1630415937015,1.39
1630415937031,0.67
1630415937046,0.03
1630415937062,-0.55
1630415937078,-1.14
1630415937093,-1.8
1630415937109,-2.59
1630415937125,-3.51
1630415937140,-4.53
1630415937156,-5.63
1630415937171,-6.79
1630415937187,-8.01
1630415937203,-9.28
1630415937218,-10.54
1630415937234,-11.67
1630415937250,-12.52
1630415937265,-12.92
1630415937281,-12.74
1630415937296,-11.91
1630415937312,-10.44
1630415937328,-8.38
1630415937343,-5.84
1630415937359,-2.99
1630415937375,-0.01
1630415937390,2.92
1630415937406,5.6
1630415937421,7.83
1630415937437,9.44
1630415937453,10.25
1630415937468,10.21
1630415937484,9.41
1630415937500,8.13
1630415937515,6.77
1630415937531,5.74
1630415937546,5.28
1630415937562,5.44
1630415937578,6.02
1630415937593,6.74
1630415937609,7.31
1630415937625,7.53
1630415937640,7.34
1630415937656,6.8
1630415937671,6.0
1630415937687,5.05
1630415937703,3.98
1630415937718,2.76
1630415937734,1.4
1630415937750,-0.08
1630415937765,-1.6
1630415937781,-2.98
1630415937796,-4.1
1630415937812,-4.87
1630415937828,-5.35
1630415937843,-5.74
1630415937859,-6.19
1630415937875,-6.85
1630415937890,-7.73
1630415937906,-8.77
1630415937921,-9.87
1630415937937,-10.98
1630415937953,-12.06
1630415937968,-13.01
1630415937984,-13.58
1630415938000,-13.45
1630415938015,-12.32
1630415938031,-10.03
1630415938046,-6.77
1630415938062,-2.92
1630415938078,0.99
1630415938093,4.54
1630415938109,7.46
1630415938125,9.68
1630415938140,11.2
1630415938156,12.04
1630415938171,12.2
1630415938187,11.69
1630415938203,10.65
1630415938218,9.34
1630415938234,8.12
1630415938250,7.33
1630415938265,7.11
1630415938281,7.42
1630415938296,7.99
1630415938312,8.51
1630415938328,8.7
1630415938343,8.42
1630415938359,7.73
1630415938375,6.81
1630415938390,5.88
1630415938406,5.11
1630415938421,4.51
1630415938437,3.98
1630415938453,3.35
1630415938468,2.5
1630415938484,1.41
1630415938500,0.18
1630415938515,-1.03
1630415938531,-2.06
1630415938546,-2.92
1630415938562,-3.7
1630415938578,-4.64
1630415938593,-5.92
1630415938609,-7.6
1630415938625,-9.59
1630415938640,-11.68
1630415938656,-13.65
1630415938671,-15.3
1630415938687,-16.44
1630415938703,-16.92
1630415938718,-16.53
1630415938734,-15.13
1630415938750,-12.68
1630415938765,-9.39
1630415938781,-5.66
1630415938796,-1.95
1630415938812,1.31
1630415938828,3.9
1630415938843,5.78
1630415938859,6.99
1630415938875,7.61
1630415938890,7.65
1630415938906,7.13
1630415938921,6.15
1630415938937,4.9
1630415938953,3.68
1630415938968,2.75
1630415938984,2.31
1630415939000,2.33
1630415939015,2.64
1630415939031,2.97
1630415939046,3.08
1630415939062,2.81
1630415939078,2.13
1630415939093,1.16
1630415939109,0.08
1630415939125,-0.93
1630415939140,-1.79
1630415939156,-2.52
1630415939171,-3.24
1630415939187,-4.08
1630415939203,-5.15
1630415939218,-6.4
1630415939234,-7.69
1630415939250,-8.79
1630415939265,-9.53
1630415939281,-9.89
1630415939296,-9.97
1630415939312,-9.98
1630415939328,-10.11
1630415939343,-10.5
1630415939359,-11.17
1630415939375,-12.05
1630415939390,-12.99
1630415939406,-13.76
1630415939421,-14.09
1630415939437,-13.68
1630415939453,-12.31
1630415939468,-9.92
1630415939484,-6.66
1630415939500,-2.86
1630415939515,1.11
1630415939531,4.9
1630415939546,8.31
1630415939562,11.23
1630415939578,13.58
1630415939593,15.29
1630415939609,16.24
1630415939625,16.39
1630415939640,15.84
1630415939656,14.83
1630415939671,13.75
1630415939687,12.92
1630415939703,12.51
1630415939718,12.47
1630415939734,12.53
1630415939750,12.41
1630415939765,11.91
1630415939781,11.0
1630415939796,9.84
1630415939812,8.6
1630415939828,7.47
1630415939843,6.5
1630415939859,5.69
1630415939875,4.99
1630415939890,4.38
1630415939906,3.89
1630415939921,3.54
1630415939937,3.28
1630415939953,3.07
1630415939968,2.8
1630415939984,2.43
1630415940000,1.89
1630415940015,1.14
1630415940031,0.14
1630415940046,-1.21
1630415940062,-3.02
1630415940078,-5.32
1630415940093,-8.0
1630415940109,-10.77
1630415940125,-13.19
1630415940140,-14.75
1630415940156,-15.05
1630415940171,-13.96
1630415940187,-11.63
1630415940203,-8.51
1630415940218,-5.14
1630415940234,-1.99
1630415940250,0.66
1630415940265,2.74
1630415940281,4.34
1630415940296,5.56
1630415940312,6.45
1630415940328,7.0
1630415940343,7.21
1630415940359,7.15
1630415940375,6.97
1630415940390,6.83
1630415940406,6.84
1630415940421,6.98
1630415940437,7.12
1630415940453,7.09
1630415940468,6.74
1630415940484,6.08
1630415940500,5.21
1630415940515,4.28
1630415940531,3.4
1630415940546,2.57
1630415940562,1.7
1630415940578,0.67
1630415940593,-0.61
1630415940609,-2.07
1630415940625,-3.55
1630415940640,-4.87
1630415940656,-5.83
1630415940671,-6.4
1630415940687,-6.67
1630415940703,-6.86
1630415940718,-7.24
1630415940734,-8.0
1630415940750,-9.15
1630415940765,-10.53
1630415940781,-11.79
1630415940796,-12.55
1630415940812,-12.43
1630415940828,-11.19
1630415940843,-8.74
1630415940859,-5.2
1630415940875,-0.86
1630415940890,3.89
1630415940906,8.63
1630415940921,13.04
1630415940937,16.91
1630415940953,20.13
1630415940968,22.65
1630415940984,24.41
1630415941000,25.33
1630415941015,25.37
1630415941031,24.53
1630415941046,22.84
1630415941062,20.37
1630415941078,17.18
1630415941093,13.46
1630415941109,9.53
1630415941125,5.9
1630415941140,3.11
1630415941156,1.58
1630415941171,1.36
1630415941187,2.1
1630415941203,3.15
1630415941218,3.87
1630415941234,3.8
1630415941250,2.86
1630415941265,1.23
1630415941281,-0.82
1630415941296,-3.04
1630415941312,-5.38
1630415941328,-7.82
1630415941343,-10.35
1630415941359,-12.94
1630415941375,-15.45
1630415941390,-17.76
1630415941406,-19.82
1630415941421,-21.63
1630415941437,-23.22
1630415941453,-24.56
1630415941468,-25.52
1630415941484,-25.93
1630415941500,-25.66
1630415941515,-24.72
1630415941531,-23.24
1630415941546,-21.42
1630415941562,-19.45
1630415941578,-17.43
1630415941593,-15.32
1630415941609,-13.01
1630415941625,-10.34
1630415941640,-7.17
1630415941656,-3.45
1630415941671,0.71
1630415941687,5.02
1630415941703,8.98
1630415941718,12.07
1630415941734,13.87
1630415941750,14.27
1630415941765,13.48
1630415941781,11.97
1630415941796,10.25
1630415941812,8.73
1630415941828,7.64
1630415941843,7.01
1630415941859,6.79
1630415941875,6.91
1630415941890,7.23
1630415941906,7.59
1630415941921,7.75
1630415941937,7.55
1630415941953,6.93
1630415941968,6.07
1630415941984,5.38
1630415942000,5.36
1630415942015,6.41
1630415942031,8.62
1630415942046,11.71
1630415942062,15.03
1630415942078,17.75
1630415942093,19.14
1630415942109,18.75
1630415942125,16.56
1630415942140,12.87
1630415942156,8.21
1630415942171,3.07
1630415942187,-2.21
1630415942203,-7.45
1630415942218,-12.59
1630415942234,-17.47
1630415942250,-21.83
1630415942265,-25.24
1630415942281,-27.28
1630415942296,-27.68
1630415942312,-26.42
1630415942328,-23.77
1630415942343,-20.19
1630415942359,-16.15
1630415942375,-12.02
1630415942390,-8.05
1630415942406,-4.31
1630415942421,-0.87
1630415942437,2.2
1630415942453,4.8
1630415942468,6.8
1630415942484,8.18
1630415942500,8.98
1630415942515,9.32
1630415942531,9.39
1630415942546,9.32
1630415942562,9.22
1630415942578,9.1
1630415942593,8.93
1630415942609,8.63
1630415942625,8.1
1630415942640,7.34
1630415942656,6.39
1630415942671,5.42
1630415942687,4.57
1630415942703,3.98
1630415942718,3.63
1630415942734,3.39
1630415942750,3.01
1630415942765,2.27
1630415942781,1.05
1630415942796,-0.62
1630415942812,-2.59
1630415942828,-4.63
1630415942843,-6.52
1630415942859,-8.14
1630415942875,-9.42
1630415942890,-10.43
1630415942906,-11.32
1630415942921,-12.27
1630415942937,-13.47
1630415942953,-15.04
1630415942968,-16.96
1630415942984,-19.03
1630415943000,-20.85
1630415943015,-21.92
1630415943031,-21.77
1630415943046,-20.18
1630415943062,-17.21
1630415943078,-13.2
1630415943093,-8.68
1630415943109,-4.18
1630415943125,-0.08
1630415943140,3.4
1630415943156,6.27
1630415943171,8.6
1630415943187,10.47
1630415943203,11.92
1630415943218,12.9
1630415943234,13.37
1630415943250,13.29
1630415943265,12.7
1630415943281,11.73
1630415943296,10.65
1630415943312,9.7
1630415943328,9.12
1630415943343,9.0
1630415943359,9.24
1630415943375,9.63
1630415943390,9.9
1630415943406,9.87
1630415943421,9.49
1630415943437,8.86
1630415943453,8.15
1630415943468,7.48
1630415943484,6.88
1630415943500,6.26
1630415943515,5.49
1630415943531,4.49
1630415943546,3.29
1630415943562,2.04
1630415943578,0.89
1630415943593,-0.06
1630415943609,-0.88
1630415943625,-1.67
1630415943640,-2.61
1630415943656,-3.76
1630415943671,-5.16
1630415943687,-6.76
1630415943703,-8.55
1630415943718,-10.5
1630415943734,-12.5
1630415943750,-14.31
1630415943765,-15.58
1630415943781,-15.92
1630415943796,-15.06
1630415943812,-13.01
1630415943828,-10.03
1630415943843,-6.57
1630415943859,-3.07
1630415943875,0.12
1630415943890,2.81
1630415943906,4.93
1630415943921,6.47
1630415943937,7.42
1630415943953,7.81
1630415943968,7.73
1630415943984,7.32
1630415944000,6.77
1630415944015,6.21
1630415944031,5.75
1630415944046,5.41
1630415944062,5.14
1630415944078,4.95
1630415944093,4.81
1630415944109,4.67
1630415944125,4.51
1630415944140,4.25
1630415944156,3.86
1630415944171,3.31
1630415944187,2.59
1630415944203,1.71
1630415944218,0.69
1630415944234,-0.46
1630415944250,-1.66
1630415944265,-2.87
1630415944281,-4.01
1630415944296,-5.02
1630415944312,-5.89
1630415944328,-6.64
1630415944343,-7.35
1630415944359,-8.1
1630415944375,-8.98
1630415944390,-10.04
1630415944406,-11.23
1630415944421,-12.49
1630415944437,-13.72
1630415944453,-14.84
1630415944468,-15.76
1630415944484,-16.39
1630415944500,-16.6
1630415944515,-16.2
1630415944531,-14.99
1630415944546,-12.86
1630415944562,-9.88
1630415944578,-6.28
1630415944593,-2.39
1630415944609,1.44
1630415944625,4.98
1630415944640,8.05
1630415944656,10.55
1630415944671,12.37
1630415944687,13.47
1630415944703,13.86
1630415944718,13.69
1630415944734,13.19
1630415944750,12.59
1630415944765,12.08
1630415944781,11.75
1630415944796,11.6
1630415944812,11.6
1630415944828,11.68
1630415944843,11.75
1630415944859,11.7
1630415944875,11.42
1630415944890,10.85
1630415944906,10.01
1630415944921,8.98
1630415944937,7.87
1630415944953,6.76
1630415944968,5.66
1630415944984,4.58
1630415945000,3.48
1630415945015,2.38
1630415945031,1.32
1630415945046,0.35
1630415945062,-0.48
1630415945078,-1.2
1630415945093,-1.83
1630415945109,-2.47
1630415945125,-3.24
1630415945140,-4.25
1630415945156,-5.59
1630415945171,-7.3
1630415945187,-9.26
1630415945203,-11.25
1630415945218,-12.89
1630415945234,-13.8
1630415945250,-13.64
1630415945265,-12.27
1630415945281,-9.78
1630415945296,-6.52
1630415945312,-2.98
1630415945328,0.42
1630415945343,3.39
1630415945359,5.88
1630415945375,8.0
1630415945390,9.85
1630415945406,11.44
1630415945421,12.64
1630415945437,13.25
1630415945453,13.17
1630415945468,12.42
1630415945484,11.2
1630415945500,9.79
1630415945515,8.48
1630415945531,7.44
1630415945546,6.71
1630415945562,6.26
1630415945578,5.96
1630415945593,5.7
1630415945609,5.38
1630415945625,4.94
1630415945640,4.33
1630415945656,3.52
1630415945671,2.51
1630415945687,1.3
1630415945703,-0.04
1630415945718,-1.39
1630415945734,-2.64
1630415945750,-3.73
1630415945765,-4.66
1630415945781,-5.54
1630415945796,-6.47
1630415945812,-7.52
1630415945828,-8.69
1630415945843,-9.9
1630415945859,-11.06
1630415945875,-12.16
1630415945890,-13.23
1630415945906,-14.33
1630415945921,-15.46
1630415945937,-16.53
1630415945953,-17.32
1630415945968,-17.52
1630415945984,-16.83
1630415946000,-15.04
1630415946015,-12.11
1630415946031,-8.2
1630415946046,-3.71
1630415946062,0.86
1630415946078,5.02
1630415946093,8.39
1630415946109,10.83
1630415946125,12.38
1630415946140,13.2
1630415946156,13.48
1630415946171,13.38
1630415946187,13.03
1630415946203,12.51
1630415946218,11.92
1630415946234,11.35
1630415946250,10.86
1630415946265,10.51
1630415946281,10.26
1630415946296,10.04
1630415946312,9.79
1630415946328,9.43
1630415946343,8.93
1630415946359,8.33
1630415946375,7.68
1630415946390,7.03
1630415946406,6.4
1630415946421,5.73
1630415946437,4.9
1630415946453,3.76
1630415946468,2.25
1630415946484,0.4
1630415946500,-1.63
1630415946515,-3.64
1630415946531,-5.44
1630415946546,-6.95
1630415946562,-8.2
1630415946578,-9.3
1630415946593,-10.35
1630415946609,-11.43
1630415946625,-12.6
1630415946640,-13.86
1630415946656,-15.24
1630415946671,-16.7
1630415946687,-18.09
1630415946703,-19.12
1630415946718,-19.4
1630415946734,-18.56
1630415946750,-16.46
1630415946765,-13.18
1630415946781,-9.1
1630415946796,-4.73
1630415946812,-0.55
1630415946828,3.09
1630415946843,6.03
1630415946859,8.18
1630415946875,9.53
1630415946890,10.06
1630415946906,9.82
1630415946921,8.92
1630415946937,7.57
1630415946953,6.04
1630415946968,4.63
1630415946984,3.54
1630415947000,2.89
1630415947015,2.65
1630415947031,2.71
1630415947046,2.88
1630415947062,2.96
1630415947078,2.79
1630415947093,2.32
1630415947109,1.59
1630415947125,0.7
1630415947140,-0.24
1630415947156,-1.16
1630415947171,-2.05
1630415947187,-2.99
1630415947203,-4.02
1630415947218,-5.13
1630415947234,-6.21
1630415947250,-7.14
1630415947265,-7.77
1630415947281,-8.08
1630415947296,-8.17
1630415947312,-8.23
1630415947328,-8.48
1630415947343,-9.09
1630415947359,-10.09
1630415947375,-11.38
1630415947390,-12.76
1630415947406,-13.99
1630415947421,-14.89
1630415947437,-15.21
1630415947453,-14.74
1630415947468,-13.22
1630415947484,-10.5
1630415947500,-6.59
1630415947515,-1.76
1630415947531,3.47
1630415947546,8.52
1630415947562,12.86
1630415947578,16.2
1630415947593,18.5
1630415947609,19.93
1630415947625,20.69
1630415947640,20.92
1630415947656,20.64
1630415947671,19.83
1630415947687,18.58
1630415947703,17.07
1630415947718,15.61
1630415947734,14.47
1630415947750,13.78
1630415947765,13.45
1630415947781,13.18
1630415947796,12.7
1630415947812,11.85
1630415947828,10.7
1630415947843,9.52
1630415947859,8.56
1630415947875,7.92
1630415947890,7.5
1630415947906,7.05
1630415947921,6.32
1630415947937,5.17
1630415947953,3.62
1630415947968,1.82
1630415947984,-0.04
1630415948000,-1.81
1630415948015,-3.39
1630415948031,-4.79
1630415948046,-6.04
1630415948062,-7.27
1630415948078,-8.59
1630415948093,-10.1
1630415948109,-11.87
1630415948125,-13.9
1630415948140,-16.08
1630415948156,-18.21
1630415948171,-19.93
1630415948187,-20.82
1630415948203,-20.49
1630415948218,-18.7
1630415948234,-15.52
1630415948250,-11.36
1630415948265,-6.82
1630415948281,-2.51
1630415948296,1.17
1630415948312,4.11
1630415948328,6.39
1630415948343,8.19
1630415948359,9.58
1630415948375,10.49
1630415948390,10.86
1630415948406,10.7
1630415948421,10.16
1630415948437,9.55
1630415948453,9.16
1630415948468,9.12
1630415948484,9.39
1630415948500,9.79
1630415948515,10.09
1630415948531,10.12
1630415948546,9.86
1630415948562,9.31
1630415948578,8.51
1630415948593,7.48
1630415948609,6.24
1630415948625,4.81
1630415948640,3.25
1630415948656,1.68
1630415948671,0.17
1630415948687,-1.25
1630415948703,-2.59
1630415948718,-3.91
1630415948734,-5.22
1630415948750,-6.48
1630415948765,-7.61
1630415948781,-8.57
1630415948796,-9.39
1630415948812,-10.16
1630415948828,-11.05
1630415948843,-12.21
1630415948859,-13.68
1630415948875,-15.38
1630415948890,-17.1
1630415948906,-18.5
1630415948921,-19.25
1630415948937,-19.04
1630415948953,-17.69
1630415948968,-15.18
1630415948984,-11.69
1630415949000,-7.48
1630415949015,-2.93
1630415949031,1.58
1630415949046,5.74
1630415949062,9.29
1630415949078,12.08
1630415949093,14.0
1630415949109,15.02
1630415949125,15.17
1630415949140,14.59
1630415949156,13.53
1630415949171,12.32
1630415949187,11.29
1630415949203,10.64
1630415949218,10.41
1630415949234,10.48
1630415949250,10.62
1630415949265,10.61
1630415949281,10.34
1630415949296,9.76
1630415949312,8.9
1630415949328,7.87
1630415949343,6.73
1630415949359,5.56
1630415949375,4.42
1630415949390,3.31
1630415949406,2.2
1630415949421,1.03
1630415949437,-0.3
1630415949453,-1.78
1630415949468,-3.34
1630415949484,-4.87
1630415949500,-6.25
1630415949515,-7.44
1630415949531,-8.54
1630415949546,-9.67
1630415949562,-10.93
1630415949578,-12.3
1630415949593,-13.68
1630415949609,-14.92
1630415949625,-15.96
1630415949640,-16.78
1630415949656,-17.37
1630415949671,-17.65
1630415949687,-17.38
1630415949703,-16.27
1630415949718,-14.1
1630415949734,-10.9
1630415949750,-7.01
1630415949765,-3.01
1630415949781,0.58
1630415949796,3.4
1630415949812,5.41
1630415949828,6.8
1630415949843,7.8
1630415949859,8.56
1630415949875,9.1
1630415949890,9.33
1630415949906,9.17
1630415949921,8.67
1630415949937,7.96
1630415949953,7.23
1630415949968,6.6
1630415949984,6.1
1630415950000,5.65
1630415950015,5.17
1630415950031,4.59
1630415950046,3.94
1630415950062,3.3
1630415950078,2.78
1630415950093,2.41
1630415950109,2.19
1630415950125,2.03
1630415950140,1.85
1630415950156,1.57
1630415950171,1.13
1630415950187,0.51
1630415950203,-0.26
1630415950218,-1.1
1630415950234,-1.94
1630415950250,-2.67
1630415950265,-3.28
1630415950281,-3.81
1630415950296,-4.38
1630415950312,-5.11
1630415950328,-6.08
1630415950343,-7.28
1630415950359,-8.65
1630415950375,-10.08
1630415950390,-11.45
1630415950406,-12.58
1630415950421,-13.23
1630415950437,-13.08
1630415950453,-11.89
1630415950468,-9.49
1630415950484,-5.99
1630415950500,-1.72
1630415950515,2.78
1630415950531,6.99
1630415950546,10.48
1630415950562,13.04
1630415950578,14.66
1630415950593,15.48
1630415950609,15.74
1630415950625,15.6
1630415950640,15.18
1630415950656,14.53
1630415950671,13.68
1630415950687,12.75
1630415950703,11.88
1630415950718,11.2
1630415950734,10.77
1630415950750,10.47
1630415950765,10.1
1630415950781,9.47
1630415950796,8.58
1630415950812,7.56
1630415950828,6.71
1630415950843,6.21
1630415950859,6.07
1630415950875,6.05
1630415950890,5.8
1630415950906,4.99
1630415950921,3.49
1630415950937,1.43
1630415950953,-0.89
1630415950968,-3.08
1630415950984,-4.89
1630415951000,-6.2
1630415951015,-7.15
1630415951031,-8.02
1630415951046,-9.08
1630415951062,-10.52
1630415951078,-12.33
1630415951093,-14.39
1630415951109,-16.51
1630415951125,-18.51
1630415951140,-20.21
1630415951156,-21.4
1630415951171,-21.81
1630415951187,-21.1
1630415951203,-19.09
1630415951218,-15.81
1630415951234,-11.58
1630415951250,-6.9
1630415951265,-2.31
1630415951281,1.81
1630415951296,5.28
1630415951312,8.11
1630415951328,10.37
1630415951343,12.13
1630415951359,13.4
1630415951375,14.19
1630415951390,14.48
1630415951406,14.31
1630415951421,13.79
1630415951437,13.04
1630415951453,12.18
1630415951468,11.31
1630415951484,10.53
1630415951500,9.87
1630415951515,9.33
1630415951531,8.89
1630415951546,8.47
1630415951562,8.0
1630415951578,7.39
1630415951593,6.55
1630415951609,5.47
1630415951625,4.18
1630415951640,2.79
1630415951656,1.38
1630415951671,0.06
1630415951687,-1.12
1630415951703,-2.17
1630415951718,-3.15
1630415951734,-4.12
1630415951750,-5.14
1630415951765,-6.23
1630415951781,-7.33
1630415951796,-8.38
1630415951812,-9.29
1630415951828,-10.06
1630415951843,-10.81
1630415951859,-11.7
1630415951875,-12.87
1630415951890,-14.32
1630415951906,-15.86
1630415951921,-17.06
1630415951937,-17.45
1630415951953,-16.64
1630415951968,-14.5
1630415951984,-11.17
1630415952000,-7.06
1630415952015,-2.64
1630415952031,1.61
1630415952046,5.36
1630415952062,8.46
1630415952078,10.89
1630415952093,12.69
1630415952109,13.89
1630415952125,14.51
1630415952140,14.54
1630415952156,14.01
1630415952171,13.03
1630415952187,11.81
1630415952203,10.62
1630415952218,9.72
1630415952234,9.26
1630415952250,9.17
1630415952265,9.24
1630415952281,9.15
1630415952296,8.65
1630415952312,7.67
1630415952328,6.34
1630415952343,4.92
1630415952359,3.62
1630415952375,2.54
1630415952390,1.64
1630415952406,0.77
1630415952421,-0.16
1630415952437,-1.17
1630415952453,-2.24
1630415952468,-3.32
1630415952484,-4.43
1630415952500,-5.64
1630415952515,-7.0
1630415952531,-8.52
1630415952546,-10.1
1630415952562,-11.63
1630415952578,-13.0
1630415952593,-14.2
1630415952609,-15.26
1630415952625,-16.27
1630415952640,-17.28
1630415952656,-18.25
1630415952671,-19.08
1630415952687,-19.54
1630415952703,-19.37
1630415952718,-18.33
1630415952734,-16.31
1630415952750,-13.38
1630415952765,-9.8
1630415952781,-5.97
1630415952796,-2.34
1630415952812,0.8
1630415952828,3.34
1630415952843,5.3
1630415952859,6.78
1630415952875,7.81
1630415952890,8.4
1630415952906,8.5
1630415952921,8.19
1630415952937,7.67
1630415952953,7.22
1630415952968,7.1
1630415952984,7.39
1630415953000,7.96
1630415953015,8.59
1630415953031,9.07
1630415953046,9.29
1630415953062,9.31
1630415953078,9.23
1630415953093,9.11
1630415953109,8.92
1630415953125,8.61
1630415953140,8.12
1630415953156,7.45
1630415953171,6.66
1630415953187,5.77
1630415953203,4.83
1630415953218,3.8
1630415953234,2.7
1630415953250,1.53
1630415953265,0.35
1630415953281,-0.79
1630415953296,-1.88
1630415953312,-2.94
1630415953328,-4.01
1630415953343,-5.14
1630415953359,-6.4
1630415953375,-7.81
1630415953390,-9.36
1630415953406,-10.98
1630415953421,-12.48
1630415953437,-13.6
1630415953453,-14.03
1630415953468,-13.56
1630415953484,-12.06
1630415953500,-9.63
1630415953515,-6.47
1630415953531,-2.85
1630415953546,0.94
1630415953562,4.69
1630415953578,8.19
1630415953593,11.26
1630415953609,13.75
1630415953625,15.55
1630415953640,16.6
1630415953656,16.97
1630415953671,16.77
1630415953687,16.18
1630415953703,15.33
1630415953718,14.36
1630415953734,13.36
1630415953750,12.43
1630415953765,11.61
1630415953781,10.94
1630415953796,10.36
1630415953812,9.78
1630415953828,9.08
1630415953843,8.15
1630415953859,6.98
1630415953875,5.6
1630415953890,4.1
1630415953906,2.56
1630415953921,1.02
1630415953937,-0.51
1630415953953,-1.98
1630415953968,-3.38
1630415953984,-4.67
1630415954000,-5.83
1630415954015,-6.89
1630415954031,-7.88
1630415954046,-8.82
1630415954062,-9.73
1630415954078,-10.65
1630415954093,-11.65
1630415954109,-12.82
1630415954125,-14.27
1630415954140,-16.03
1630415954156,-18.01
1630415954171,-19.97
1630415954187,-21.55
1630415954203,-22.36
1630415954218,-22.06
1630415954234,-20.43
1630415954250,-17.49
1630415954265,-13.47
1630415954281,-8.77
1630415954296,-3.87
1630415954312,0.74
1630415954328,4.72
1630415954343,7.87
1630415954359,10.17
1630415954375,11.68
1630415954390,12.54
1630415954406,12.9
1630415954421,12.9
1630415954437,12.68
1630415954453,12.34
1630415954468,11.98
1630415954484,11.65
1630415954500,11.37
1630415954515,11.11
1630415954531,10.8
1630415954546,10.36
1630415954562,9.73
1630415954578,8.94
1630415954593,8.04
1630415954609,7.1
1630415954625,6.2
1630415954640,5.32
1630415954656,4.43
1630415954671,3.46
1630415954687,2.39
1630415954703,1.23
1630415954718,0.03
1630415954734,-1.22
1630415954750,-2.56
1630415954765,-4.04
1630415954781,-5.69
1630415954796,-7.47
1630415954812,-9.26
1630415954828,-10.96
1630415954843,-12.54
1630415954859,-14.06
1630415954875,-15.65
1630415954890,-17.36
1630415954906,-19.16
1630415954921,-20.82
1630415954937,-22.09
1630415954953,-22.75
1630415954968,-22.7
1630415954984,-21.96
1630415955000,-20.59
1630415955015,-18.56
1630415955031,-15.82
1630415955046,-12.32
1630415955062,-8.18
1630415955078,-3.7
1630415955093,0.63
1630415955109,4.37
1630415955125,7.22
1630415955140,9.16
1630415955156,10.36
1630415955171,11.08
1630415955187,11.48
1630415955203,11.65
1630415955218,11.57
1630415955234,11.29
1630415955250,10.92
1630415955265,10.6
1630415955281,10.45
1630415955296,10.45
1630415955312,10.51
1630415955328,10.44
1630415955343,10.14
1630415955359,9.57
1630415955375,8.81
1630415955390,7.97
1630415955406,7.12
1630415955421,6.31
1630415955437,5.49
1630415955453,4.63
1630415955468,3.71
1630415955484,2.78
1630415955500,1.89
1630415955515,1.08
1630415955531,0.36
1630415955546,-0.31
1630415955562,-0.95
1630415955578,-1.61
1630415955593,-2.31
1630415955609,-3.09
1630415955625,-4.02
1630415955640,-5.19
1630415955656,-6.71
1630415955671,-8.54
1630415955687,-10.52
1630415955703,-12.3
1630415955718,-13.43
1630415955734,-13.53
1630415955750,-12.39
1630415955765,-10.06
1630415955781,-6.84
1630415955796,-3.14
1630415955812,0.62
1630415955828,4.11
1630415955843,7.14
1630415955859,9.65
1630415955875,11.64
1630415955890,13.14
1630415955906,14.19
1630415955921,14.81
1630415955937,15.02
1630415955953,14.85
1630415955968,14.38
1630415955984,13.68
1630415956000,12.85
1630415956015,11.98
1630415956031,11.14
1630415956046,10.35
1630415956062,9.6
1630415956078,8.84
1630415956093,8.06
1630415956109,7.24
1630415956125,6.39
1630415956140,5.56
1630415956156,4.78
1630415956171,4.05
1630415956187,3.33
1630415956203,2.57
1630415956218,1.67
1630415956234,0.56
1630415956250,-0.77
1630415956265,-2.3
1630415956281,-3.94
1630415956296,-5.64
1630415956312,-7.35
1630415956328,-9.06
1630415956343,-10.78
1630415956359,-12.55
1630415956375,-14.34
1630415956390,-16.07
1630415956406,-17.72
1630415956421,-19.26
1630415956437,-20.72
1630415956453,-22.08
1630415956468,-23.2
1630415956484,-23.8
1630415956500,-23.52
1630415956515,-22.01
1630415956531,-19.13
1630415956546,-15.03
1630415956562,-10.13
1630415956578,-4.99
1630415956593,-0.17
1630415956609,3.94
1630415956625,7.22
1630415956640,9.7
1630415956656,11.49
1630415956671,12.71
1630415956687,13.42
1630415956703,13.63
1630415956718,13.4
1630415956734,12.82
1630415956750,12.02
1630415956765,11.13
1630415956781,10.31
1630415956796,9.67
1630415956812,9.28
1630415956828,9.18
1630415956843,9.37
1630415956859,9.75
1630415956875,10.2
1630415956890,10.59
1630415956906,10.76
1630415956921,10.58
1630415956937,9.96
1630415956953,8.84
1630415956968,7.24
1630415956984,5.23
1630415957000,2.96
1630415957015,0.59
1630415957031,-1.71
1630415957046,-3.81
1630415957062,-5.63
1630415957078,-7.15
1630415957093,-8.44
1630415957109,-9.6
1630415957125,-10.75
1630415957140,-12.03
1630415957156,-13.49
1630415957171,-15.14
1630415957187,-16.92
1630415957203,-18.73
1630415957218,-20.38
1630415957234,-21.69
1630415957250,-22.37
1630415957265,-22.15
1630415957281,-20.82
1630415957296,-18.29
1630415957312,-14.71
1630415957328,-10.41
1630415957343,-5.82
1630415957359,-1.36
1630415957375,2.68
1630415957390,6.14
1630415957406,8.94
1630415957421,11.07
1630415957437,12.47
1630415957453,13.16
1630415957468,13.23
1630415957484,12.85
1630415957500,12.31
1630415957515,11.85
1630415957531,11.6
1630415957546,11.54
1630415957562,11.49
1630415957578,11.28
1630415957593,10.79
1630415957609,10.0
1630415957625,9.01
1630415957640,7.93
1630415957656,6.84
1630415957671,5.78
1630415957687,4.77
1630415957703,3.83
1630415957718,2.98
1630415957734,2.21
1630415957750,1.48
1630415957765,0.66
1630415957781,-0.35
1630415957796,-1.62
1630415957812,-3.13
1630415957828,-4.74
1630415957843,-6.3
1630415957859,-7.66
1630415957875,-8.78
1630415957890,-9.7
1630415957906,-10.5
1630415957921,-11.28
1630415957937,-12.13
1630415957953,-13.13
1630415957968,-14.29
1630415957984,-15.6
1630415958000,-16.89
1630415958015,-17.91
1630415958031,-18.28
1630415958046,-17.6
1630415958062,-15.64
1630415958078,-12.39
1630415958093,-8.18
1630415958109,-3.54
1630415958125,0.97
1630415958140,4.95
1630415958156,8.26
1630415958171,10.93
1630415958187,13.06
1630415958203,14.68
1630415958218,15.76
1630415958234,16.29
1630415958250,16.29
1630415958265,15.96
1630415958281,15.51
1630415958296,15.13
1630415958312,14.86
1630415958328,14.64
1630415958343,14.37
1630415958359,14.01
1630415958375,13.58
1630415958390,13.14
1630415958406,12.7
1630415958421,12.17
1630415958437,11.44
1630415958453,10.45
1630415958468,9.22
1630415958484,7.84
1630415958500,6.43
1630415958515,5.03
1630415958531,3.58
1630415958546,2.02
1630415958562,0.33
1630415958578,-1.43
1630415958593,-3.15
1630415958609,-4.74
1630415958625,-6.19
1630415958640,-7.54
1630415958656,-8.89
1630415958671,-10.25
1630415958687,-11.62
1630415958703,-12.98
1630415958718,-14.32
1630415958734,-15.64
1630415958750,-16.96
1630415958765,-18.19
1630415958781,-19.19
1630415958796,-19.7
1630415958812,-19.43
1630415958828,-18.13
1630415958843,-15.66
1630415958859,-12.13
1630415958875,-7.83
1630415958890,-3.19
1630415958906,1.3
1630415958921,5.26
1630415958937,8.5
1630415958953,10.99
1630415958968,12.79
1630415958984,13.96
1630415959000,14.52
1630415959015,14.51
1630415959031,13.98
1630415959046,13.11
1630415959062,12.12
1630415959078,11.24
1630415959093,10.62
1630415959109,10.26
1630415959125,10.06
1630415959140,9.85
1630415959156,9.51
1630415959171,8.96
1630415959187,8.23
1630415959203,7.41
1630415959218,6.59
1630415959234,5.83
1630415959250,5.12
1630415959265,4.36
1630415959281,3.46
1630415959296,2.36
1630415959312,1.05
1630415959328,-0.44
1630415959343,-2.02
1630415959359,-3.66
1630415959375,-5.31
1630415959390,-6.85
1630415959406,-8.19
1630415959421,-9.17
1630415959437,-9.76
1630415959453,-10.04
1630415959468,-10.27
1630415959484,-10.78
1630415959500,-11.86
1630415959515,-13.63
1630415959531,-15.9
1630415959546,-18.27
1630415959562,-20.19
1630415959578,-21.1
1630415959593,-20.6
1630415959609,-18.53
1630415959625,-15.0
1630415959640,-10.4
1630415959656,-5.26
1630415959671,-0.17
1630415959687,4.39
1630415959703,8.13
1630415959718,10.98
1630415959734,13.04
1630415959750,14.46
1630415959765,15.41
1630415959781,15.99
1630415959796,16.24
1630415959812,16.19
1630415959828,15.85
1630415959843,15.24
1630415959859,14.37
1630415959875,13.24
1630415959890,11.9
1630415959906,10.43
1630415959921,9.0
1630415959937,7.77
1630415959953,6.87
1630415959968,6.26
1630415959984,5.77
1630415960000,5.18
1630415960015,4.27
1630415960031,2.97
1630415960046,1.39
1630415960062,-0.27
1630415960078,-1.78
1630415960093,-3.02
1630415960109,-4.01
1630415960125,-4.88
1630415960140,-5.81
1630415960156,-6.86
1630415960171,-8.02
1630415960187,-9.2
1630415960203,-10.37
1630415960218,-11.57
1630415960234,-12.96
1630415960250,-14.63
1630415960265,-16.53
1630415960281,-18.39
1630415960296,-19.83
1630415960312,-20.55
1630415960328,-20.44
1630415960343,-19.63
1630415960359,-18.38
1630415960375,-16.91
1630415960390,-15.26
1630415960406,-13.28
1630415960421,-10.78
1630415960437,-7.7
1630415960453,-4.17
1630415960468,-0.5
1630415960484,2.95
1630415960500,5.87
1630415960515,8.11
1630415960531,9.67
1630415960546,10.66
1630415960562,11.2
1630415960578,11.39
1630415960593,11.27
1630415960609,10.86
1630415960625,10.22
1630415960640,9.45
1630415960656,8.7
1630415960671,8.1
1630415960687,7.71
1630415960703,7.45
1630415960718,7.19
1630415960734,6.82
1630415960750,6.32
1630415960765,5.74
1630415960781,5.23
1630415960796,4.86
1630415960812,4.64
1630415960828,4.5
1630415960843,4.31
1630415960859,3.94
1630415960875,3.35
1630415960890,2.56
1630415960906,1.63
1630415960921,0.67
1630415960937,-0.24
1630415960953,-1.07
1630415960968,-1.86
1630415960984,-2.69
1630415961000,-3.65
1630415961015,-4.79
1630415961031,-6.08
1630415961046,-7.47
1630415961062,-8.88
1630415961078,-10.26
1630415961093,-11.55
1630415961109,-12.69
1630415961125,-13.5
1630415961140,-13.72
1630415961156,-13.09
1630415961171,-11.42
1630415961187,-8.72
1630415961203,-5.22
1630415961218,-1.32
1630415961234,2.6
1630415961250,6.22
1630415961265,9.36
1630415961281,11.97
1630415961296,13.99
1630415961312,15.37
1630415961328,16.05
1630415961343,16.0
1630415961359,15.3
1630415961375,14.19
1630415961390,12.95
1630415961406,11.84
1630415961421,11.03
1630415961437,10.52
1630415961453,10.18
1630415961468,9.87
1630415961484,9.45
1630415961500,8.89
1630415961515,8.2
1630415961531,7.47
1630415961546,6.74
1630415961562,6.05
1630415961578,5.34
1630415961593,4.52
1630415961609,3.48
1630415961625,2.15
1630415961640,0.57
1630415961656,-1.14
1630415961671,-2.81
1630415961687,-4.29
1630415961703,-5.54
1630415961718,-6.61
1630415961734,-7.61
1630415961750,-8.59
1630415961765,-9.51
1630415961781,-10.3
1630415961796,-10.88
1630415961812,-11.27
1630415961828,-11.64
1630415961843,-12.24
1630415961859,-13.28
1630415961875,-14.85
1630415961890,-16.81
1630415961906,-18.8
1630415961921,-20.28
1630415961937,-20.74
1630415961953,-19.79
1630415961968,-17.34
1630415961984,-13.59
1630415962000,-9.02
1630415962015,-4.2
1630415962031,0.4
1630415962046,4.5
1630415962062,8.02
1630415962078,11.02
1630415962093,13.54
1630415962109,15.52
1630415962125,16.83
1630415962140,17.35
1630415962156,17.09
1630415962171,16.23
1630415962187,15.06
1630415962203,13.9
1630415962218,13.0
1630415962234,12.42
1630415962250,12.07
1630415962265,11.81
1630415962281,11.48
1630415962296,10.99
1630415962312,10.28
1630415962328,9.35
1630415962343,8.23
1630415962359,6.94
1630415962375,5.51
1630415962390,4.0
1630415962406,2.45
1630415962421,0.91
1630415962437,-0.56
1630415962453,-1.94
1630415962468,-3.24
1630415962484,-4.49
1630415962500,-5.74
1630415962515,-7.01
1630415962531,-8.3
1630415962546,-9.53
1630415962562,-10.63
1630415962578,-11.59
1630415962593,-12.45
1630415962609,-13.33
1630415962625,-14.44
1630415962640,-15.9
1630415962656,-17.74
1630415962671,-19.84
1630415962687,-21.88
1630415962703,-23.42
1630415962718,-23.97
1630415962734,-23.19
1630415962750,-20.96
1630415962765,-17.46
1630415962781,-13.07
1630415962796,-8.31
1630415962812,-3.68
1630415962828,0.49
1630415962843,4.04
1630415962859,6.95
1630415962875,9.25
1630415962890,10.95
1630415962906,12.05
1630415962921,12.56
1630415962937,12.52
1630415962953,12.08
1630415962968,11.41
1630415962984,10.68
1630415963000,10.01
1630415963015,9.42
1630415963031,8.81
1630415963046,8.12
1630415963062,7.28
1630415963078,6.32
1630415963093,5.34
1630415963109,4.42
1630415963125,3.58
1630415963140,2.77
1630415963156,1.92
1630415963171,1.04
1630415963187,0.2
1630415963203,-0.52
1630415963218,-1.08
1630415963234,-1.56
1630415963250,-2.12
1630415963265,-2.89
1630415963281,-3.9
1630415963296,-5.04
1630415963312,-6.11
1630415963328,-6.98
1630415963343,-7.6
1630415963359,-8.09
1630415963375,-8.62
1630415963390,-9.37
1630415963406,-10.44
1630415963421,-11.79
1630415963437,-13.27
1630415963453,-14.6
1630415963468,-15.42
1630415963484,-15.39
1630415963500,-14.29
1630415963515,-12.05
1630415963531,-8.86
1630415963546,-5.03
1630415963562,-0.95
1630415963578,3.06
1630415963593,6.77
1630415963609,10.02
1630415963625,12.76
1630415963640,14.96
1630415963656,16.62
1630415963671,17.76
1630415963687,18.41
1630415963703,18.59
1630415963718,18.32
1630415963734,17.68
1630415963750,16.75
1630415963765,15.66
1630415963781,14.56
1630415963796,13.52
1630415963812,12.58
1630415963828,11.7
1630415963843,10.8
1630415963859,9.81
1630415963875,8.71
1630415963890,7.54
1630415963906,6.38
1630415963921,5.32
1630415963937,4.38
1630415963953,3.52
1630415963968,2.7
1630415963984,1.84
1630415964000,0.94
1630415964015,0.01
1630415964031,-0.93
1630415964046,-1.88
1630415964062,-2.87
1630415964078,-3.96
1630415964093,-5.19
1630415964109,-6.54
1630415964125,-7.99
1630415964140,-9.52
1630415964156,-11.18
1630415964171,-13.01
1630415964187,-15.04
1630415964203,-17.16
1630415964218,-19.11
1630415964234,-20.52
1630415964250,-20.98
1630415964265,-20.19
1630415964281,-18.05
1630415964296,-14.68
1630415964312,-10.37
1630415964328,-5.54
1630415964343,-0.61
1630415964359,4.01
1630415964375,8.04
1630415964390,11.29
1630415964406,13.68
1630415964421,15.18
1630415964437,15.85
1630415964453,15.76
1630415964468,15.11
1630415964484,14.11
1630415964500,13.0
1630415964515,11.97
1630415964531,11.12
1630415964546,10.45
1630415964562,9.91
1630415964578,9.43
1630415964593,9.0
1630415964609,8.6
1630415964625,8.22
1630415964640,7.78
1630415964656,7.18
1630415964671,6.37
1630415964687,5.37
1630415964703,4.25
1630415964718,3.18
1630415964734,2.23
1630415964750,1.38
1630415964765,0.53
1630415964781,-0.51
1630415964796,-1.84
1630415964812,-3.42
1630415964828,-5.11
1630415964843,-6.67
1630415964859,-7.95
1630415964875,-8.93
1630415964890,-9.72
1630415964906,-10.48
1630415964921,-11.4
1630415964937,-12.56
1630415964953,-13.95
1630415964968,-15.53
1630415964984,-17.21
1630415965000,-18.85
1630415965015,-20.21
1630415965031,-20.98
1630415965046,-20.81
1630415965062,-19.47
1630415965078,-16.91
1630415965093,-13.36
1630415965109,-9.27
1630415965125,-5.13
1630415965140,-1.33
1630415965156,1.9
1630415965171,4.56
1630415965187,6.72
1630415965203,8.46
1630415965218,9.82
1630415965234,10.79
1630415965250,11.39
1630415965265,11.67
1630415965281,11.75
1630415965296,11.74
1630415965312,11.72
1630415965328,11.73
1630415965343,11.73
1630415965359,11.66
1630415965375,11.45
1630415965390,11.02
1630415965406,10.33
1630415965421,9.4
1630415965437,8.29
1630415965453,7.12
1630415965468,6.0
1630415965484,5.01
1630415965500,4.13
1630415965515,3.27
1630415965531,2.28
1630415965546,1.04
1630415965562,-0.48
1630415965578,-2.23
1630415965593,-4.1
1630415965609,-5.97
1630415965625,-7.72
1630415965640,-9.3
1630415965656,-10.71
1630415965671,-12.03
1630415965687,-13.33
1630415965703,-14.7
1630415965718,-16.18
1630415965734,-17.78
1630415965750,-19.47
1630415965765,-21.12
1630415965781,-22.5
1630415965796,-23.24
1630415965812,-22.92
1630415965828,-21.22
1630415965843,-18.06
1630415965859,-13.69
1630415965875,-8.63
1630415965890,-3.5
1630415965906,1.17
1630415965921,5.12
1630415965937,8.31
1630415965953,10.83
1630415965968,12.76
1630415965984,14.13
1630415966000,14.93
1630415966015,15.22
1630415966031,15.13
1630415966046,14.84
1630415966062,14.52
1630415966078,14.27
1630415966093,14.11
1630415966109,14.01
1630415966125,13.96
1630415966140,13.92
1630415966156,13.83
1630415966171,13.6
1630415966187,13.13
1630415966203,12.34
1630415966218,11.27
1630415966234,10.03
1630415966250,8.73
1630415966265,7.47
1630415966281,6.27
1630415966296,5.06
1630415966312,3.79
1630415966328,2.43
1630415966343,0.97
1630415966359,-0.56
1630415966375,-2.1
1630415966390,-3.64
1630415966406,-5.13
1630415966421,-6.58
1630415966437,-7.98
1630415966453,-9.35
1630415966468,-10.71
1630415966484,-12.09
1630415966500,-13.46
1630415966515,-14.78
1630415966531,-15.94
1630415966546,-16.77
1630415966562,-17.08
1630415966578,-16.66
1630415966593,-15.31
1630415966609,-12.96
1630415966625,-9.67
1630415966640,-5.69
1630415966656,-1.39
1630415966671,2.8
1630415966687,6.54
1630415966703,9.62
1630415966718,12.0
1630415966734,13.74
1630415966750,14.94
1630415966765,15.67
1630415966781,16.0
1630415966796,15.96
1630415966812,15.61
1630415966828,14.98
1630415966843,14.14
1630415966859,13.15
1630415966875,12.08
1630415966890,11.01
1630415966906,9.98
1630415966921,9.04
1630415966937,8.18
1630415966953,7.42
1630415966968,6.74
1630415966984,6.09
1630415967000,5.42
1630415967015,4.65
1630415967031,3.75
1630415967046,2.68
1630415967062,1.48
1630415967078,0.19
1630415967093,-1.14
1630415967109,-2.48
1630415967125,-3.82
1630415967140,-5.17
1630415967156,-6.49
1630415967171,-7.75
1630415967187,-8.93
1630415967203,-10.07
1630415967218,-11.27
1630415967234,-12.62
1630415967250,-14.15
1630415967265,-15.82
1630415967281,-17.49
1630415967296,-18.97
1630415967312,-20.07
1630415967328,-20.64
1630415967343,-20.53
1630415967359,-19.65
1630415967375,-17.91
1630415967390,-15.29
1630415967406,-11.88
1630415967421,-7.87
1630415967437,-3.51
1630415967453,0.87
1630415967468,4.95
1630415967484,8.5
1630415967500,11.36
1630415967515,13.46
1630415967531,14.84
1630415967546,15.57
1630415967562,15.77
1630415967578,15.56
1630415967593,15.07
1630415967609,14.42
1630415967625,13.71
1630415967640,13.01
1630415967656,12.33
1630415967671,11.69
1630415967687,11.05
1630415967703,10.37
1630415967718,9.6
1630415967734,8.75
1630415967750,7.89
1630415967765,7.1
1630415967781,6.44
1630415967796,5.9
1630415967812,5.39
1630415967828,4.74
1630415967843,3.8
1630415967859,2.5
1630415967875,0.86
1630415967890,-0.96
1630415967906,-2.82
1630415967921,-4.6
1630415967937,-6.25
1630415967953,-7.79
1630415967968,-9.28
1630415967984,-10.75
1630415968000,-12.25
1630415968015,-13.77
1630415968031,-15.29
1630415968046,-16.8
1630415968062,-18.28
1630415968078,-19.72
1630415968093,-21.1
1630415968109,-22.29
1630415968125,-23.1
1630415968140,-23.25
1630415968156,-22.47
1630415968171,-20.59
1630415968187,-17.61
1630415968203,-13.73
1630415968218,-9.3
1630415968234,-4.69
1630415968250,-0.27
1630415968265,3.73
1630415968281,7.16
1630415968296,9.94
1630415968312,12.07
1630415968328,13.56
1630415968343,14.45
1630415968359,14.8
1630415968375,14.66
1630415968390,14.13
1630415968406,13.33
1630415968421,12.44
1630415968437,11.66
1630415968453,11.14
1630415968468,10.89
1630415968484,10.78
1630415968500,10.57
1630415968515,10.04
1630415968531,9.11
1630415968546,7.87
1630415968562,6.53
1630415968578,5.29
1630415968593,4.24
1630415968609,3.28
1630415968625,2.25
1630415968640,0.97
1630415968656,-0.59
1630415968671,-2.36
1630415968687,-4.18
1630415968703,-5.86
1630415968718,-7.29
1630415968734,-8.41
1630415968750,-9.26
1630415968765,-9.89
1630415968781,-10.36
1630415968796,-10.76
1630415968812,-11.15
1630415968828,-11.64
1630415968843,-12.32
1630415968859,-13.28
1630415968875,-14.53
1630415968890,-15.97
1630415968906,-17.31
1630415968921,-18.16
1630415968937,-18.12
1630415968953,-16.87
1630415968968,-14.35
1630415968984,-10.71
1630415969000,-6.33
1630415969015,-1.7
1630415969031,2.73
1630415969046,6.67
1630415969062,9.97
1630415969078,12.64
1630415969093,14.75
1630415969109,16.37
1630415969125,17.45
1630415969140,17.96
1630415969156,17.87
1630415969171,17.27
1630415969187,16.36
1630415969203,15.42
1630415969218,14.67
1630415969234,14.16
1630415969250,13.79
1630415969265,13.34
1630415969281,12.67
1630415969296,11.74
1630415969312,10.68
1630415969328,9.63
1630415969343,8.69
1630415969359,7.81
1630415969375,6.86
1630415969390,5.75
1630415969406,4.48
1630415969421,3.17
1630415969437,1.95
1630415969453,0.92
1630415969468,0.03
1630415969484,-0.85
1630415969500,-1.84
1630415969515,-3.03
1630415969531,-4.34
1630415969546,-5.66
1630415969562,-6.88
1630415969578,-8.02
1630415969593,-9.24
1630415969609,-10.76
1630415969625,-12.76
1630415969640,-15.23
1630415969656,-17.9
1630415969671,-20.22
1630415969687,-21.49
1630415969703,-21.08
1630415969718,-18.57
1630415969734,-13.94
1630415969750,-7.61
1630415969765,-0.35
1630415969781,6.9
1630415969796,13.26
1630415969812,18.09
1630415969828,21.18
1630415969843,22.65
1630415969859,22.92
1630415969875,22.42
1630415969890,21.48
1630415969906,20.3
1630415969921,18.94
1630415969937,17.45
1630415969953,15.89
1630415969968,14.33
1630415969984,12.84
1630415970000,11.39
1630415970015,9.89
1630415970031,8.29
1630415970046,6.56
1630415970062,4.79
1630415970078,3.09
1630415970093,1.56
1630415970109,0.23
1630415970125,-0.95
1630415970140,-2.06
1630415970156,-3.2
1630415970171,-4.42
1630415970187,-5.73
1630415970203,-7.1
1630415970218,-8.45
1630415970234,-9.7
1630415970250,-10.77
1630415970265,-11.65
1630415970281,-12.38
1630415970296,-13.0
1630415970312,-13.56
1630415970328,-14.03
1630415970343,-14.41
1630415970359,-14.7
1630415970375,-14.98
1630415970390,-15.42
1630415970406,-16.22
1630415970421,-17.46
1630415970437,-19.06
1630415970453,-20.74
1630415970468,-22.05
1630415970484,-22.52
1630415970500,-21.77
1630415970515,-19.64
1630415970531,-16.25
1630415970546,-11.93
1630415970562,-7.19
1630415970578,-2.52
1630415970593,1.7
1630415970609,5.25
1630415970625,8.06
1630415970640,10.17
1630415970656,11.66
1630415970671,12.58
1630415970687,13.02
1630415970703,13.07
1630415970718,12.9
1630415970734,12.67
1630415970750,12.5
1630415970765,12.41
1630415970781,12.36
1630415970796,12.25
1630415970812,12.03
1630415970828,11.7
1630415970843,11.31
1630415970859,10.84
1630415970875,10.26
1630415970890,9.49
1630415970906,8.47
1630415970921,7.2
1630415970937,5.76
1630415970953,4.24
1630415970968,2.71
1630415970984,1.22
1630415971000,-0.21
1630415971015,-1.59
1630415971031,-2.91
1630415971046,-4.19
1630415971062,-5.45
1630415971078,-6.74
1630415971093,-8.03
1630415971109,-9.29
1630415971125,-10.47
1630415971140,-11.56
1630415971156,-12.62
1630415971171,-13.75
1630415971187,-15.07
1630415971203,-16.63
1630415971218,-18.35
1630415971234,-20.07
1630415971250,-21.53
1630415971265,-22.43
1630415971281,-22.45
1630415971296,-21.32
1630415971312,-18.92
1630415971328,-15.31
1630415971343,-10.78
1630415971359,-5.8
1630415971375,-0.86
1630415971390,3.61
1630415971406,7.33
1630415971421,10.15
1630415971437,12.09
1630415971453,13.18
1630415971468,13.56
1630415971484,13.38
1630415971500,12.84
1630415971515,12.14
1630415971531,11.46
1630415971546,10.86
1630415971562,10.37
1630415971578,9.95
1630415971593,9.56
1630415971609,9.21
1630415971625,8.91
1630415971640,8.62
1630415971656,8.3
1630415971671,7.86
1630415971687,7.26
1630415971703,6.5
1630415971718,5.64
1630415971734,4.79
1630415971750,3.99
1630415971765,3.24
1630415971781,2.46
1630415971796,1.57
1630415971812,0.57
1630415971828,-0.5
1630415971843,-1.53
1630415971859,-2.44
1630415971875,-3.19
1630415971890,-3.84
1630415971906,-4.5
1630415971921,-5.27
1630415971937,-6.25
1630415971953,-7.46
1630415971968,-8.9
1630415971984,-10.5
1630415972000,-12.11
1630415972015,-13.51
1630415972031,-14.39
1630415972046,-14.42
1630415972062,-13.38
1630415972078,-11.18
1630415972093,-7.95
1630415972109,-3.98
1630415972125,0.3
1630415972140,4.43
1630415972156,8.04
1630415972171,10.88
1630415972187,12.89
1630415972203,14.15
1630415972218,14.8
1630415972234,15.0
1630415972250,14.91
1630415972265,14.6
1630415972281,14.16
1630415972296,13.66
1630415972312,13.16
1630415972328,12.69
1630415972343,12.24
1630415972359,11.73
1630415972375,11.08
1630415972390,10.27
1630415972406,9.3
1630415972421,8.25
1630415972437,7.21
1630415972453,6.26
1630415972468,5.4
1630415972484,4.6
1630415972500,3.8
1630415972515,2.93
1630415972531,1.99
1630415972546,0.97
1630415972562,-0.13
1630415972578,-1.35
1630415972593,-2.72
1630415972609,-4.27
1630415972625,-5.97
1630415972640,-7.7
1630415972656,-9.27
1630415972671,-10.52
1630415972687,-11.41
1630415972703,-12.07
1630415972718,-12.78
1630415972734,-13.8
1630415972750,-15.29
1630415972765,-17.13
1630415972781,-18.94
1630415972796,-20.17
1630415972812,-20.34
1630415972828,-19.1
1630415972843,-16.45
1630415972859,-12.65
1630415972875,-8.15
1630415972890,-3.45
1630415972906,1.01
1630415972921,4.95
1630415972937,8.22
1630415972953,10.77
1630415972968,12.58
1630415972984,13.7
1630415973000,14.23
1630415973015,14.29
1630415973031,14.07
1630415973046,13.75
1630415973062,13.45
1630415973078,13.25
1630415973093,13.13
1630415973109,13.06
1630415973125,12.95
1630415973140,12.72
1630415973156,12.28
1630415973171,11.57
1630415973187,10.6
1630415973203,9.47
1630415973218,8.3
1630415973234,7.22
1630415973250,6.24
1630415973265,5.26
1630415973281,4.08
1630415973296,2.5
1630415973312,0.48
1630415973328,-1.9
1630415973343,-4.42
1630415973359,-6.87
1630415973375,-9.13
1630415973390,-11.17
1630415973406,-13.06
1630415973421,-14.8
1630415973437,-16.35
1630415973453,-17.66
1630415973468,-18.74
1630415973484,-19.69
1630415973500,-20.66
1630415973515,-21.71
1630415973531,-22.74
1630415973546,-23.44
1630415973562,-23.44
1630415973578,-22.47
1630415973593,-20.46
1630415973609,-17.56
1630415973625,-14.02
1630415973640,-10.14
1630415973656,-6.12
1630415973671,-2.14
1630415973687,1.62
1630415973703,4.98
1630415973718,7.77
1630415973734,9.9
1630415973750,11.4
1630415973765,12.31
1630415973781,12.72
1630415973796,12.66
1630415973812,12.13
1630415973828,11.17
1630415973843,9.9
1630415973859,8.57
1630415973875,7.44
1630415973890,6.66
1630415973906,6.27
1630415973921,6.09
1630415973937,5.89
1630415973953,5.45
1630415973968,4.69
1630415973984,3.68
1630415974000,2.59
1630415974015,1.55
1630415974031,0.61
1630415974046,-0.27
1630415974062,-1.16
1630415974078,-2.15
1630415974093,-3.26
1630415974109,-4.46
1630415974125,-5.67
1630415974140,-6.8
1630415974156,-7.76
1630415974171,-8.47
1630415974187,-8.88
1630415974203,-9.04
1630415974218,-9.04
1630415974234,-9.09
1630415974250,-9.34
1630415974265,-9.9
1630415974281,-10.66
1630415974296,-11.37
1630415974312,-11.67
1630415974328,-11.17
1630415974343,-9.64
1630415974359,-7.06
1630415974375,-3.64
1630415974390,0.3
1630415974406,4.31
1630415974421,8.04
1630415974437,11.19
1630415974453,13.61
1630415974468,15.29
1630415974484,16.32
1630415974500,16.87
1630415974515,17.11
1630415974531,17.19
1630415974546,17.16
1630415974562,17.01
1630415974578,16.69
1630415974593,16.23
1630415974609,15.68
1630415974625,15.13
1630415974640,14.62
1630415974656,14.07
1630415974671,13.39
1630415974687,12.45
1630415974703,11.24
1630415974718,9.8
1630415974734,8.25
1630415974750,6.69
1630415974765,5.16
1630415974781,3.66
1630415974796,2.17
1630415974812,0.7
1630415974828,-0.78
1630415974843,-2.24
1630415974859,-3.68
1630415974875,-5.12
1630415974890,-6.54
1630415974906,-7.89
1630415974921,-9.11
1630415974937,-10.13
1630415974953,-11.0
1630415974968,-11.86
1630415974984,-12.92
1630415975000,-14.31
1630415975015,-16.01
1630415975031,-17.77
1630415975046,-19.14
1630415975062,-19.67
1630415975078,-18.99
1630415975093,-17.0
1630415975109,-13.88
1630415975125,-9.98
1630415975140,-5.73
1630415975156,-1.5
1630415975171,2.44
1630415975187,5.92
1630415975203,8.85
1630415975218,11.14
1630415975234,12.75
1630415975250,13.65
1630415975265,13.88
1630415975281,13.57
1630415975296,12.9
1630415975312,12.14
1630415975328,11.51
1630415975343,11.12
1630415975359,10.96
1630415975375,10.87
1630415975390,10.64
1630415975406,10.11
1630415975421,9.26
1630415975437,8.21
1630415975453,7.12
1630415975468,6.13
1630415975484,5.2
1630415975500,4.21
1630415975515,3.0
1630415975531,1.49
1630415975546,-0.27
1630415975562,-2.07
1630415975578,-3.67
1630415975593,-4.89
1630415975609,-5.69
1630415975625,-6.14
1630415975640,-6.44
1630415975656,-6.74
1630415975671,-7.24
1630415975687,-8.02
1630415975703,-9.16
1630415975718,-10.69
1630415975734,-12.64
1630415975750,-14.9
1630415975765,-17.27
1630415975781,-19.35
1630415975796,-20.65
1630415975812,-20.72
1630415975828,-19.27
1630415975843,-16.35
1630415975859,-12.3
1630415975875,-7.72
1630415975890,-3.19
1630415975906,0.84
1630415975921,4.18
1630415975937,6.87
1630415975953,8.99
1630415975968,10.6
1630415975984,11.66
1630415976000,12.06
1630415976015,11.73
1630415976031,10.75
1630415976046,9.31
1630415976062,7.75
1630415976078,6.36
1630415976093,5.4
1630415976109,4.95
1630415976125,4.94
1630415976140,5.18
1630415976156,5.43
1630415976171,5.47
1630415976187,5.19
1630415976203,4.59
1630415976218,3.72
1630415976234,2.68
1630415976250,1.5
1630415976265,0.2
1630415976281,-1.23
1630415976296,-2.79
1630415976312,-4.38
1630415976328,-5.88
1630415976343,-7.17
1630415976359,-8.18
1630415976375,-8.97
1630415976390,-9.68
1630415976406,-10.51
1630415976421,-11.62
1630415976437,-13.1
1630415976453,-14.91
1630415976468,-16.93
1630415976484,-18.96
1630415976500,-20.76
1630415976515,-22.11
1630415976531,-22.76
1630415976546,-22.53
1630415976562,-21.23
1630415976578,-18.79
1630415976593,-15.26
1630415976609,-10.88
1630415976625,-6.03
1630415976640,-1.13
1630415976656,3.42
1630415976671,7.41
1630415976687,10.75
1630415976703,13.48
1630415976718,15.65
1630415976734,17.32
1630415976750,18.51
1630415976765,19.24
1630415976781,19.59
1630415976796,19.64
1630415976812,19.48
1630415976828,19.16
1630415976843,18.66
1630415976859,17.95
1630415976875,17.0
1630415976890,15.83
1630415976906,14.52
1630415976921,13.19
1630415976937,11.9
1630415976953,10.69
1630415976968,9.53
1630415976984,8.39
1630415977000,7.23
1630415977015,6.02
1630415977031,4.76
1630415977046,3.44
1630415977062,2.04
1630415977078,0.62
1630415977093,-0.75
1630415977109,-1.99
1630415977125,-3.04
1630415977140,-3.93
1630415977156,-4.78
1630415977171,-5.8
1630415977187,-7.11
1630415977203,-8.75
1630415977218,-10.6
1630415977234,-12.41
1630415977250,-13.89
1630415977265,-14.8
1630415977281,-14.99
1630415977296,-14.38
1630415977312,-12.94
1630415977328,-10.68
1630415977343,-7.67
1630415977359,-4.06
1630415977375,-0.11
1630415977390,3.86
1630415977406,7.47
1630415977421,10.45
1630415977437,12.61
1630415977453,13.91
1630415977468,14.44
1630415977484,14.38
1630415977500,13.93
1630415977515,13.25
1630415977531,12.49
1630415977546,11.7
1630415977562,10.94
1630415977578,10.2
1630415977593,9.45
1630415977609,8.68
1630415977625,7.83
1630415977640,6.88
1630415977656,5.85
1630415977671,4.81
1630415977687,3.83
1630415977703,2.98
1630415977718,2.26
1630415977734,1.59
1630415977750,0.84
1630415977765,-0.1
1630415977781,-1.28
1630415977796,-2.71
1630415977812,-4.25
1630415977828,-5.79
1630415977843,-7.18
1630415977859,-8.36
1630415977875,-9.3
1630415977890,-10.08
1630415977906,-10.88
1630415977921,-11.87
1630415977937,-13.2
1630415977953,-14.92
1630415977968,-16.9
1630415977984,-18.83
1630415978000,-20.3
1630415978015,-20.9
1630415978031,-20.31
1630415978046,-18.43
1630415978062,-15.39
1630415978078,-11.48
1630415978093,-7.11
1630415978109,-2.72
1630415978125,1.35
1630415978140,4.85
1630415978156,7.66
1630415978171,9.79
1630415978187,11.32
1630415978203,12.34
1630415978218,12.95
1630415978234,13.21
1630415978250,13.17
1630415978265,12.86
1630415978281,12.35
1630415978296,11.69
1630415978312,11.01
1630415978328,10.35
1630415978343,9.71
1630415978359,9.05
1630415978375,8.32
1630415978390,7.52
1630415978406,6.71
1630415978421,6.02
1630415978437,5.51
1630415978453,5.2
1630415978468,4.97
1630415978484,4.62
1630415978500,3.94
1630415978515,2.79
1630415978531,1.16
1630415978546,-0.83
1630415978562,-2.96
1630415978578,-5.0
1630415978593,-6.78
1630415978609,-8.24
1630415978625,-9.43
1630415978640,-10.49
1630415978656,-11.62
1630415978671,-12.98
1630415978687,-14.68
1630415978703,-16.74
1630415978718,-19.03
1630415978734,-21.26
1630415978750,-23.04
1630415978765,-23.93
1630415978781,-23.53
1630415978796,-21.63
1630415978812,-18.32
1630415978828,-13.97
1630415978843,-9.16
1630415978859,-4.5
1630415978875,-0.43
1630415978890,2.85
1630415978906,5.38
1630415978921,7.33
1630415978937,8.88
1630415978953,10.12
1630415978968,11.07
1630415978984,11.7
1630415979000,11.98
1630415979015,11.95
1630415979031,11.7
1630415979046,11.28
1630415979062,10.78
1630415979078,10.23
1630415979093,9.67
1630415979109,9.13
1630415979125,8.65
1630415979140,8.22
1630415979156,7.78
1630415979171,7.28
1630415979187,6.64
1630415979203,5.85
1630415979218,4.94
1630415979234,3.96
1630415979250,2.97
1630415979265,2.0
1630415979281,1.05
1630415979296,0.09
1630415979312,-0.88
1630415979328,-1.81
1630415979343,-2.66
1630415979359,-3.41
1630415979375,-4.08
1630415979390,-4.73
1630415979406,-5.45
1630415979421,-6.3
1630415979437,-7.31
1630415979453,-8.46
1630415979468,-9.68
1630415979484,-10.79
1630415979500,-11.57
1630415979515,-11.78
1630415979531,-11.22
1630415979546,-9.84
1630415979562,-7.71
1630415979578,-5.04
1630415979593,-2.09
1630415979609,0.91
1630415979625,3.8
1630415979640,6.47
1630415979656,8.82
1630415979671,10.73
1630415979687,12.09
1630415979703,12.77
1630415979718,12.71
1630415979734,11.96
1630415979750,10.69
1630415979765,9.17
1630415979781,7.71
1630415979796,6.52
1630415979812,5.73
1630415979828,5.32
1630415979843,5.23
1630415979859,5.37
1630415979875,5.67
1630415979890,6.04
1630415979906,6.37
1630415979921,6.51
1630415979937,6.33
1630415979953,5.79
1630415979968,5.01
1630415979984,4.12
1630415980000,3.25
1630415980015,2.37
1630415980031,1.3
1630415980046,-0.12
1630415980062,-1.96
1630415980078,-4.03
1630415980093,-6.01
1630415980109,-7.61
1630415980125,-8.71
1630415980140,-9.48
1630415980156,-10.24
1630415980171,-11.33
1630415980187,-12.89
1630415980203,-14.85
1630415980218,-16.93
1630415980234,-18.77
1630415980250,-20.01
1630415980265,-20.34
1630415980281,-19.54
1630415980296,-17.55
1630415980312,-14.38
1630415980328,-10.24
1630415980343,-5.44
1630415980359,-0.39
1630415980375,4.49
1630415980390,8.85
1630415980406,12.43
1630415980421,15.06
1630415980437,16.68
1630415980453,17.34
1630415980468,17.24
1630415980484,16.63
1630415980500,15.77
1630415980515,14.85
1630415980531,13.97
1630415980546,13.12
1630415980562,12.26
1630415980578,11.36
1630415980593,10.45
1630415980609,9.59
1630415980625,8.8
1630415980640,8.08
1630415980656,7.36
1630415980671,6.56
1630415980687,5.66
1630415980703,4.67
1630415980718,3.65
1630415980734,2.68
1630415980750,1.75
1630415980765,0.8
1630415980781,-0.24
1630415980796,-1.43
1630415980812,-2.78
1630415980828,-4.21
1630415980843,-5.64
1630415980859,-6.99
1630415980875,-8.24
1630415980890,-9.44
1630415980906,-10.71
1630415980921,-12.11
1630415980937,-13.72
1630415980953,-15.48
1630415980968,-17.29
1630415980984,-18.93
1630415981000,-20.12
1630415981015,-20.57
1630415981031,-20.01
1630415981046,-18.3
1630415981062,-15.47
1630415981078,-11.73
1630415981093,-7.46
1630415981109,-3.08
1630415981125,1.02
1630415981140,4.59
1630415981156,7.51
1630415981171,9.72
1630415981187,11.17
1630415981203,11.88
1630415981218,11.89
1630415981234,11.35
1630415981250,10.51
1630415981265,9.64
1630415981281,8.91
1630415981296,8.37
1630415981312,7.92
1630415981328,7.39
1630415981343,6.67
1630415981359,5.76
1630415981375,4.7
1630415981390,3.59
1630415981406,2.44
1630415981421,1.26
1630415981437,0.02
1630415981453,-1.27
1630415981468,-2.53
1630415981484,-3.67
1630415981500,-4.61
1630415981515,-5.36
1630415981531,-5.99
1630415981546,-6.63
1630415981562,-7.37
1630415981578,-8.25
1630415981593,-9.19
1630415981609,-10.08
1630415981625,-10.8
1630415981640,-11.34
1630415981656,-11.76
1630415981671,-12.18
1630415981687,-12.69
1630415981703,-13.31
1630415981718,-13.87
1630415981734,-14.12
1630415981750,-13.75
1630415981765,-12.48
1630415981781,-10.21
1630415981796,-6.97
1630415981812,-3.0
1630415981828,1.36
1630415981843,5.72
1630415981859,9.7
1630415981875,13.03
1630415981890,15.56
1630415981906,17.25
1630415981921,18.15
1630415981937,18.37
1630415981953,18.07
1630415981968,17.43
1630415981984,16.64
1630415982000,15.87
1630415982015,15.24
1630415982031,14.79
1630415982046,14.49
1630415982062,14.21
1630415982078,13.77
1630415982093,13.03
1630415982109,11.93
1630415982125,10.56
1630415982140,9.11
1630415982156,7.76
1630415982171,6.63
1630415982187,5.65
1630415982203,4.64
1630415982218,3.41
1630415982234,1.85
1630415982250,0.05
1630415982265,-1.81
1630415982281,-3.52
1630415982296,-4.95
1630415982312,-6.12
1630415982328,-7.1
1630415982343,-8.06
1630415982359,-9.07
1630415982375,-10.22
1630415982390,-11.55
1630415982406,-13.09
1630415982421,-14.84
1630415982437,-16.65
1630415982453,-18.26
1630415982468,-19.27
1630415982484,-19.28
1630415982500,-18.0
1630415982515,-15.41
1630415982531,-11.74
1630415982546,-7.47
1630415982562,-3.14
1630415982578,0.82
1630415982593,4.17
1630415982609,6.87
1630415982625,8.99
1630415982640,10.62
1630415982656,11.77
1630415982671,12.38
1630415982687,12.44
1630415982703,12.02
1630415982718,11.33
1630415982734,10.6
1630415982750,10.0
1630415982765,9.58
1630415982781,9.21
1630415982796,8.73
1630415982812,8.0
1630415982828,7.01
1630415982843,5.89
1630415982859,4.8
1630415982875,3.89
1630415982890,3.21
1630415982906,2.74
1630415982921,2.35
1630415982937,1.87
1630415982953,1.18
1630415982968,0.2
1630415982984,-1.03
1630415983000,-2.42
1630415983015,-3.82
1630415983031,-5.14
1630415983046,-6.34
1630415983062,-7.44
1630415983078,-8.5
1630415983093,-9.54
1630415983109,-10.6
1630415983125,-11.71
1630415983140,-12.97
1630415983156,-14.39
1630415983171,-15.83
1630415983187,-16.99
1630415983203,-17.38
1630415983218,-16.58
1630415983234,-14.43
1630415983250,-11.09
1630415983265,-7.05
1630415983281,-2.88
1630415983296,1.01
1630415983312,4.43
1630415983328,7.39
1630415983343,9.95
1630415983359,12.09
1630415983375,13.69
1630415983390,14.6
1630415983406,14.74
1630415983421,14.22
1630415983437,13.23
1630415983453,12.04
1630415983468,10.88
1630415983484,9.89
1630415983500,9.13
1630415983515,8.57
1630415983531,8.17
1630415983546,7.84
1630415983562,7.48
1630415983578,7.03
1630415983593,6.43
1630415983609,5.64
1630415983625,4.67
1630415983640,3.5
1630415983656,2.14
1630415983671,0.59
1630415983687,-1.14
1630415983703,-2.98
1630415983718,-4.85
1630415983734,-6.62
1630415983750,-8.16
1630415983765,-9.42
1630415983781,-10.42
1630415983796,-11.27
1630415983812,-12.13
1630415983828,-13.15
1630415983843,-14.41
1630415983859,-15.88
1630415983875,-17.42
1630415983890,-18.86
1630415983906,-20.01
1630415983921,-20.62
1630415983937,-20.47
1630415983953,-19.35
1630415983968,-17.17
1630415983984,-13.99
1630415984000,-10.05
1630415984015,-5.74
1630415984031,-1.5
1630415984046,2.3
1630415984062,5.39
1630415984078,7.68
1630415984093,9.18
1630415984109,10.0
1630415984125,10.28
1630415984140,10.19
1630415984156,9.92
1630415984171,9.62
1630415984187,9.45
1630415984203,9.44
1630415984218,9.54
1630415984234,9.59
1630415984250,9.43
1630415984265,8.94
1630415984281,8.11
1630415984296,7.06
1630415984312,5.97
1630415984328,5.02
1630415984343,4.34
1630415984359,3.94
1630415984375,3.76
1630415984390,3.66
1630415984406,3.46
1630415984421,3.03
1630415984437,2.28
1630415984453,1.19
1630415984468,-0.13
1630415984484,-1.5
1630415984500,-2.74
1630415984515,-3.73
1630415984531,-4.52
1630415984546,-5.25
1630415984562,-6.16
1630415984578,-7.43
1630415984593,-9.07
1630415984609,-10.91
1630415984625,-12.62
1630415984640,-13.79
1630415984656,-14.05
1630415984671,-13.2
1630415984687,-11.22
1630415984703,-8.25
1630415984718,-4.6
1630415984734,-0.63
1630415984750,3.29
1630415984765,6.87
1630415984781,9.91
1630415984796,12.38
1630415984812,14.3
1630415984828,15.73
1630415984843,16.64
1630415984859,16.98
1630415984875,16.62
1630415984890,15.52
1630415984906,13.8
1630415984921,11.73
1630415984937,9.66
1630415984953,7.95
1630415984968,6.85
1630415984984,6.37
1630415985000,6.38
1630415985015,6.64
1630415985031,6.89
1630415985046,6.95
1630415985062,6.72
1630415985078,6.19
1630415985093,5.35
1630415985109,4.27
1630415985125,3.04
1630415985140,1.72
1630415985156,0.38
1630415985171,-0.98
1630415985187,-2.39
1630415985203,-3.9
1630415985218,-5.48
1630415985234,-7.04
1630415985250,-8.39
1630415985265,-9.46
1630415985281,-10.3
1630415985296,-11.11
1630415985312,-12.14
1630415985328,-13.49
1630415985343,-15.01
1630415985359,-16.24
1630415985375,-16.56
1630415985390,-15.47
1630415985406,-12.76
1630415985421,-8.58
1630415985437,-3.44
1630415985453,1.98
1630415985468,6.97
1630415985484,10.93
1630415985500,13.42
1630415985515,14.31
1630415985531,13.81
1630415985546,12.5
1630415985562,11.18
1630415985578,10.65
1630415985593,11.38
1630415985609,13.36
1630415985625,16.2
1630415985640,19.31
1630415985656,22.27
1630415985671,24.97
1630415985687,27.57
1630415985703,30.31
1630415985718,33.29
1630415985734,36.33
1630415985750,39.14
1630415985765,41.44
1630415985781,43.16
1630415985796,44.53
1630415985812,45.99
1630415985828,48.04
1630415985843,50.99
1630415985859,54.79
1630415985875,58.83
1630415985890,62.0
1630415985906,62.88
1630415985921,60.21
1630415985937,53.22
1630415985953,41.81
1630415985968,26.47
1630415985984,8.13
1630415986000,-12.14
1630415986015,-33.13
1630415986031,-53.57
1630415986046,-72.17
1630415986062,-87.83
1630415986078,-100.07
1630415986093,-109.21
1630415986109,-116.28
1630415986125,-122.47
1630415986140,-128.36
1630415986156,-133.51
1630415986171,-136.54
1630415986187,-135.76
1630415986203,-130.02
1630415986218,-119.25
1630415986234,-104.42
1630415986250,-87.03
1630415986265,-68.36
1630415986281,-49.1
1630415986296,-29.4
1630415986312,-9.41
1630415986328,10.21
1630415986343,28.09
1630415986359,42.53
1630415986375,52.18
1630415986390,56.68
1630415986406,56.81
1630415986421,54.07
1630415986437,49.97
1630415986453,45.4
1630415986468,40.6
1630415986484,35.64
1630415986500,31.01
1630415986515,27.78
1630415986531,27.09
1630415986546,29.31
1630415986562,33.48
1630415986578,37.55
1630415986593,39.29
1630415986609,37.39
1630415986625,32.0
1630415986640,24.34
1630415986656,15.73
1630415986671,6.6
1630415986687,-3.69
1630415986703,-16.18
1630415986718,-31.27
1630415986734,-47.95
1630415986750,-63.92
1630415986765,-76.44
1630415986781,-83.48
1630415986796,-84.46
1630415986812,-80.28
1630415986828,-72.67
1630415986843,-63.39
1630415986859,-53.64
1630415986875,-43.89
1630415986890,-34.08
1630415986906,-24.1
1630415986921,-14.15
1630415986937,-4.7
1630415986953,3.71
1630415986968,10.8
1630415986984,16.75
1630415987000,22.07
1630415987015,27.31
1630415987031,32.7
1630415987046,37.9
1630415987062,42.19
1630415987078,44.69
1630415987093,44.86
1630415987109,42.69
1630415987125,38.71
1630415987140,33.79
1630415987156,28.8
1630415987171,24.35
1630415987187,20.66
1630415987203,17.61
1630415987218,14.94
1630415987234,12.42
1630415987250,10.01
1630415987265,7.88
1630415987281,6.31
1630415987296,5.59
1630415987312,5.77
1630415987328,6.67
1630415987343,7.81
1630415987359,8.63
1630415987375,8.65
1630415987390,7.62
1630415987406,5.62
1630415987421,2.95
1630415987437,0.04
1630415987453,-2.8
1630415987468,-5.39
1630415987484,-7.74
1630415987500,-9.92
1630415987515,-12.0
1630415987531,-14.0
1630415987546,-15.82
1630415987562,-17.34
1630415987578,-18.39
1630415987593,-18.78
1630415987609,-18.32
1630415987625,-16.9
1630415987640,-14.5
1630415987656,-11.25
1630415987671,-7.45
1630415987687,-3.46
1630415987703,0.35
1630415987718,3.69
1630415987734,6.41
1630415987750,8.47
1630415987765,10.0
1630415987781,11.14
1630415987796,12.05
1630415987812,12.81
1630415987828,13.46
1630415987843,13.94
1630415987859,14.19
1630415987875,14.2
1630415987890,13.99
1630415987906,13.66
1630415987921,13.24
1630415987937,12.76
1630415987953,12.14
1630415987968,11.38
1630415987984,10.46
1630415988000,9.49
1630415988015,8.53
1630415988031,7.63
1630415988046,6.77
1630415988062,5.85
1630415988078,4.8
1630415988093,3.57
1630415988109,2.2
1630415988125,0.75
1630415988140,-0.7
1630415988156,-2.02
1630415988171,-3.13
1630415988187,-3.95
1630415988203,-4.5
1630415988218,-4.92
1630415988234,-5.45
1630415988250,-6.29
1630415988265,-7.53
1630415988281,-9.0
1630415988296,-10.34
1630415988312,-11.1
1630415988328,-10.92
1630415988343,-9.66
1630415988359,-7.42
1630415988375,-4.48
1630415988390,-1.19
1630415988406,2.13
1630415988421,5.25
1630415988437,8.02
1630415988453,10.4
1630415988468,12.43
1630415988484,14.16
1630415988500,15.64
1630415988515,16.84
1630415988531,17.65
1630415988546,17.96
1630415988562,17.73
1630415988578,17.0
1630415988593,15.92
1630415988609,14.66
1630415988625,13.36
1630415988640,12.09
1630415988656,10.86
1630415988671,9.63
1630415988687,8.41
1630415988703,7.2
1630415988718,6.04
1630415988734,4.91
1630415988750,3.79
1630415988765,2.66
1630415988781,1.52
1630415988796,0.44
1630415988812,-0.52
1630415988828,-1.33
1630415988843,-2.04
1630415988859,-2.76
1630415988875,-3.65
1630415988890,-4.82
1630415988906,-6.3
1630415988921,-8.01
1630415988937,-9.81
1630415988953,-11.59
1630415988968,-13.29
1630415988984,-14.91
1630415989000,-16.47
1630415989015,-17.92
1630415989031,-19.05
1630415989046,-19.63
1630415989062,-19.38
1630415989078,-18.11
1630415989093,-15.83
1630415989109,-12.77
1630415989125,-9.3
1630415989140,-5.85
1630415989156,-2.77
1630415989171,-0.2
1630415989187,1.88
1630415989203,3.64
1630415989218,5.21
1630415989234,6.64
1630415989250,7.88
1630415989265,8.77
1630415989281,9.24
1630415989296,9.29
1630415989312,9.04
1630415989328,8.66
1630415989343,8.29
1630415989359,8.01
1630415989375,7.83
1630415989390,7.77
1630415989406,7.82
1630415989421,8.0
1630415989437,8.3
1630415989453,8.61
1630415989468,8.81
1630415989484,8.74
1630415989500,8.28
1630415989515,7.43
1630415989531,6.26
1630415989546,4.89
1630415989562,3.44
1630415989578,2.02
1630415989593,0.67
1630415989609,-0.53
1630415989625,-1.54
1630415989640,-2.35
1630415989656,-3.02
1630415989671,-3.69
1630415989687,-4.52
1630415989703,-5.67
1630415989718,-7.17
1630415989734,-8.91
1630415989750,-10.63
1630415989765,-11.98
1630415989781,-12.65
1630415989796,-12.41
1630415989812,-11.19
1630415989828,-9.1
1630415989843,-6.36
1630415989859,-3.23
1630415989875,0.05
1630415989890,3.34
1630415989906,6.53
1630415989921,9.51
1630415989937,12.14
1630415989953,14.22
1630415989968,15.57
1630415989984,16.15
1630415990000,16.1
1630415990015,15.68
1630415990031,15.21
1630415990046,14.85
1630415990062,14.62
1630415990078,14.36
1630415990093,13.93
1630415990109,13.25
1630415990125,12.44
1630415990140,11.64
1630415990156,10.98
1630415990171,10.43
1630415990187,9.83
1630415990203,8.99
1630415990218,7.81
1630415990234,6.35
1630415990250,4.78
1630415990265,3.28
1630415990281,1.88
1630415990296,0.54
1630415990312,-0.86
1630415990328,-2.33
1630415990343,-3.75
1630415990359,-4.96
1630415990375,-5.84
1630415990390,-6.5
1630415990406,-7.22
1630415990421,-8.34
1630415990437,-10.06
1630415990453,-12.27
1630415990468,-14.57
1630415990484,-16.44
1630415990500,-17.35
1630415990515,-17.02
1630415990531,-15.4
1630415990546,-12.68
1630415990562,-9.17
1630415990578,-5.25
1630415990593,-1.23
1630415990609,2.62
1630415990625,6.14
1630415990640,9.27
1630415990656,11.97
1630415990671,14.16
1630415990687,15.76
1630415990703,16.68
1630415990718,16.89
1630415990734,16.5
1630415990750,15.7
1630415990765,14.7
1630415990781,13.69
1630415990796,12.72
1630415990812,11.81
1630415990828,10.91
1630415990843,10.0
1630415990859,9.09
1630415990875,8.24
1630415990890,7.49
1630415990906,6.85
1630415990921,6.29
1630415990937,5.73
1630415990953,5.05
1630415990968,4.13
1630415990984,2.9
1630415991000,1.37
1630415991015,-0.34
1630415991031,-2.04
1630415991046,-3.52
1630415991062,-4.66
1630415991078,-5.49
1630415991093,-6.12
1630415991109,-6.75
1630415991125,-7.57
1630415991140,-8.69
1630415991156,-10.14
1630415991171,-11.86
1630415991187,-13.75
1630415991203,-15.61
1630415991218,-17.21
1630415991234,-18.25
1630415991250,-18.4
1630415991265,-17.46
1630415991281,-15.39
1630415991296,-12.37
1630415991312,-8.8
1630415991328,-5.13
1630415991343,-1.69
1630415991359,1.33
1630415991375,3.89
1630415991390,6.07
1630415991406,7.89
1630415991421,9.38
1630415991437,10.48
1630415991453,11.17
1630415991468,11.44
1630415991484,11.31
1630415991500,10.82
1630415991515,10.04
1630415991531,9.06
1630415991546,8.05
1630415991562,7.12
1630415991578,6.39
1630415991593,5.87
1630415991609,5.5
1630415991625,5.17
1630415991640,4.76
1630415991656,4.19
1630415991671,3.43
1630415991687,2.5
1630415991703,1.43
1630415991718,0.3
1630415991734,-0.86
1630415991750,-2.0
1630415991765,-3.09
1630415991781,-4.09
1630415991796,-4.91
1630415991812,-5.51
1630415991828,-5.91
1630415991843,-6.26
1630415991859,-6.81
1630415991875,-7.8
1630415991890,-9.39
1630415991906,-11.56
1630415991921,-14.04
1630415991937,-16.42
1630415991953,-18.28
1630415991968,-19.23
1630415991984,-19.03
1630415992000,-17.57
1630415992015,-14.91
1630415992031,-11.25
1630415992046,-6.92
1630415992062,-2.31
1630415992078,2.17
1630415992093,6.2
1630415992109,9.58
1630415992125,12.24
1630415992140,14.2
1630415992156,15.53
1630415992171,16.32
1630415992187,16.67
1630415992203,16.7
1630415992218,16.52
1630415992234,16.22
1630415992250,15.8
1630415992265,15.22
1630415992281,14.42
1630415992296,13.38
1630415992312,12.13
1630415992328,10.78
1630415992343,9.49
1630415992359,8.35
1630415992375,7.4
1630415992390,6.65
1630415992406,6.07
1630415992421,5.63
1630415992437,5.28
1630415992453,4.93
1630415992468,4.38
1630415992484,3.47
1630415992500,2.06
1630415992515,0.22
1630415992531,-1.84
1630415992546,-3.79
1630415992562,-5.39
1630415992578,-6.53
1630415992593,-7.35
1630415992609,-8.09
1630415992625,-8.98
1630415992640,-10.12
1630415992656,-11.45
1630415992671,-12.8
1630415992687,-13.96
1630415992703,-14.73
1630415992718,-14.93
1630415992734,-14.36
1630415992750,-12.85
1630415992765,-10.3
1630415992781,-6.76
1630415992796,-2.5
1630415992812,2.02
1630415992828,6.3
1630415992843,9.89
1630415992859,12.57
1630415992875,14.32
1630415992890,15.3
1630415992906,15.7
1630415992921,15.69
1630415992937,15.35
1630415992953,14.73
1630415992968,13.85
1630415992984,12.8
1630415993000,11.67
1630415993015,10.56
1630415993031,9.52
1630415993046,8.52
1630415993062,7.51
1630415993078,6.47
1630415993093,5.37
1630415993109,4.25
1630415993125,3.15
1630415993140,2.11
1630415993156,1.14
1630415993171,0.18
1630415993187,-0.83
1630415993203,-1.96
1630415993218,-3.21
1630415993234,-4.51
1630415993250,-5.78
1630415993265,-6.95
1630415993281,-7.96
1630415993296,-8.82
1630415993312,-9.58
1630415993328,-10.31
1630415993343,-11.12
1630415993359,-12.09
1630415993375,-13.31
1630415993390,-14.8
1630415993406,-16.45
1630415993421,-18.03
1630415993437,-19.2
1630415993453,-19.6
1630415993468,-18.91
1630415993484,-17.01
1630415993500,-13.97
1630415993515,-10.04
1630415993531,-5.59
1630415993546,-1.01
1630415993562,3.31
1630415993578,7.08
1630415993593,10.14
1630415993609,12.42
1630415993625,13.97
1630415993640,14.89
1630415993656,15.27
1630415993671,15.18
1630415993687,14.7
1630415993703,13.93
1630415993718,13.02
1630415993734,12.11
1630415993750,11.34
1630415993765,10.76
1630415993781,10.36
1630415993796,10.05
1630415993812,9.76
1630415993828,9.38
1630415993843,8.82
1630415993859,8.02
1630415993875,6.95
1630415993890,5.62
1630415993906,4.1
1630415993921,2.51
1630415993937,0.94
1630415993953,-0.55
1630415993968,-1.97
1630415993984,-3.34
1630415994000,-4.69
1630415994015,-6.0
1630415994031,-7.18
1630415994046,-8.17
1630415994062,-8.96
1630415994078,-9.6
1630415994093,-10.19
1630415994109,-10.86
1630415994125,-11.72
1630415994140,-12.81
1630415994156,-14.13
1630415994171,-15.56
1630415994187,-16.91
1630415994203,-17.95
1630415994218,-18.37
1630415994234,-17.93
1630415994250,-16.46
1630415994265,-13.92
1630415994281,-10.45
1630415994296,-6.36
1630415994312,-2.04
1630415994328,2.07
1630415994343,5.6
1630415994359,8.28
1630415994375,10.03
1630415994390,10.91
1630415994406,11.09
1630415994421,10.83
1630415994437,10.34
1630415994453,9.76
1630415994468,9.15
1630415994484,8.53
1630415994500,7.92
1630415994515,7.39
1630415994531,7.0
1630415994546,6.78
1630415994562,6.68
1630415994578,6.57
1630415994593,6.32
1630415994609,5.82
1630415994625,5.08
1630415994640,4.16
1630415994656,3.12
1630415994671,1.99
1630415994687,0.77
1630415994703,-0.57
1630415994718,-1.99
1630415994734,-3.4
1630415994750,-4.69
1630415994765,-5.77
1630415994781,-6.65
1630415994796,-7.44
1630415994812,-8.27
1630415994828,-9.24
1630415994843,-10.35
1630415994859,-11.53
1630415994875,-12.68
1630415994890,-13.72
1630415994906,-14.64
1630415994921,-15.4
1630415994937,-15.91
1630415994953,-15.98
1630415994968,-15.37
1630415994984,-13.88
1630415995000,-11.46
1630415995015,-8.26
1630415995031,-4.56
1630415995046,-0.73
1630415995062,2.97
1630415995078,6.32
1630415995093,9.22
1630415995109,11.64
1630415995125,13.53
1630415995140,14.83
1630415995156,15.53
1630415995171,15.64
1630415995187,15.26
1630415995203,14.56
1630415995218,13.72
1630415995234,12.86
1630415995250,12.07
1630415995265,11.32
1630415995281,10.58
1630415995296,9.83
1630415995312,9.09
1630415995328,8.42
1630415995343,7.86
1630415995359,7.37
1630415995375,6.87
1630415995390,6.23
1630415995406,5.37
1630415995421,4.25
1630415995437,2.93
1630415995453,1.5
1630415995468,0.01
1630415995484,-1.51
1630415995500,-3.06
1630415995515,-4.61
1630415995531,-6.1
1630415995546,-7.4
1630415995562,-8.44
1630415995578,-9.2
1630415995593,-9.79
1630415995609,-10.4
1630415995625,-11.21
1630415995640,-12.31
1630415995656,-13.65
1630415995671,-15.0
1630415995687,-16.06
1630415995703,-16.48
1630415995718,-16.02
1630415995734,-14.55
1630415995750,-12.14
1630415995765,-9.01
1630415995781,-5.48
1630415995796,-1.85
1630415995812,1.64
1630415995828,4.83
1630415995843,7.6
1630415995859,9.85
1630415995875,11.45
1630415995890,12.32
1630415995906,12.45
1630415995921,11.96
1630415995937,11.07
1630415995953,10.0
1630415995968,8.92
1630415995984,7.92
1630415996000,7.02
1630415996015,6.25
1630415996031,5.68
1630415996046,5.39
1630415996062,5.39
1630415996078,5.57
1630415996093,5.73
1630415996109,5.64
1630415996125,5.15
1630415996140,4.29
1630415996156,3.19
1630415996171,2.04
1630415996187,0.94
1630415996203,-0.11
1630415996218,-1.22
1630415996234,-2.44
1630415996250,-3.78
1630415996265,-5.1
1630415996281,-6.29
1630415996296,-7.29
1630415996312,-8.14
1630415996328,-8.97
1630415996343,-9.93
1630415996359,-11.09
1630415996375,-12.43
1630415996390,-13.82
1630415996406,-15.13
1630415996421,-16.23
1630415996437,-16.98
1630415996453,-17.21
1630415996468,-16.72
1630415996484,-15.33
1630415996500,-12.95
1630415996515,-9.66
1630415996531,-5.77
1630415996546,-1.69
1630415996562,2.13
1630415996578,5.39
1630415996593,7.98
1630415996609,10.01
1630415996625,11.61
1630415996640,12.89
1630415996656,13.82
1630415996671,14.27
1630415996687,14.11
1630415996703,13.35
1630415996718,12.18
1630415996734,10.91
1630415996750,9.83
1630415996765,9.1
1630415996781,8.7
1630415996796,8.46
1630415996812,8.18
1630415996828,7.75
1630415996843,7.15
1630415996859,6.41
1630415996875,5.59
1630415996890,4.65
1630415996906,3.57
1630415996921,2.34
1630415996937,0.97
1630415996953,-0.51
1630415996968,-2.05
1630415996984,-3.63
1630415997000,-5.26
1630415997015,-6.92
1630415997031,-8.54
1630415997046,-9.98
1630415997062,-11.15
1630415997078,-12.01
1630415997093,-12.61
1630415997109,-13.14
1630415997125,-13.74
1630415997140,-14.53
1630415997156,-15.53
1630415997171,-16.68
1630415997187,-17.88
1630415997203,-18.97
1630415997218,-19.75
1630415997234,-19.93
1630415997250,-19.25
1630415997265,-17.53
1630415997281,-14.76
1630415997296,-11.14
1630415997312,-7.04
1630415997328,-2.88
1630415997343,0.99
1630415997359,4.3
1630415997375,6.94
1630415997390,8.9
1630415997406,10.24
1630415997421,11.07
1630415997437,11.49
1630415997453,11.63
1630415997468,11.58
1630415997484,11.42
1630415997500,11.15
1630415997515,10.82
1630415997531,10.42
1630415997546,9.98
1630415997562,9.48
1630415997578,8.92
1630415997593,8.27
1630415997609,7.53
1630415997625,6.77
1630415997640,6.07
1630415997656,5.49
1630415997671,5.02
1630415997687,4.55
1630415997703,3.96
1630415997718,3.16
1630415997734,2.16
1630415997750,1.06
1630415997765,0.03
1630415997781,-0.85
1630415997796,-1.54
1630415997812,-2.12
1630415997828,-2.68
1630415997843,-3.3
1630415997859,-4.0
1630415997875,-4.78
1630415997890,-5.69
1630415997906,-6.76
1630415997921,-8.05
1630415997937,-9.55
1630415997953,-11.09
1630415997968,-12.33
1630415997984,-12.86
1630415998000,-12.39
1630415998015,-10.81
1630415998031,-8.29
1630415998046,-5.19
1630415998062,-1.93
1630415998078,1.22
1630415998093,4.16
1630415998109,6.88
1630415998125,9.38
1630415998140,11.54
1630415998156,13.15
1630415998171,14.0
1630415998187,14.02
1630415998203,13.34
1630415998218,12.22
1630415998234,10.98
1630415998250,9.79
1630415998265,8.73
1630415998281,7.78
1630415998296,6.93
1630415998312,6.22
1630415998328,5.72
1630415998343,5.45
1630415998359,5.34
1630415998375,5.23
1630415998390,4.92
1630415998406,4.32
1630415998421,3.44
1630415998437,2.41
1630415998453,1.39
1630415998468,0.41
1630415998484,-0.58
1630415998500,-1.71
1630415998515,-3.08
1630415998531,-4.66
1630415998546,-6.36
1630415998562,-8.02
1630415998578,-9.55
1630415998593,-10.89
1630415998609,-12.04
1630415998625,-13.01
1630415998640,-13.78
1630415998656,-14.33
1630415998671,-14.7
1630415998687,-15.01
1630415998703,-15.39
1630415998718,-15.93
1630415998734,-16.57
1630415998750,-17.07
1630415998765,-17.04
1630415998781,-16.15
1630415998796,-14.21
1630415998812,-11.24
1630415998828,-7.49
1630415998843,-3.33
1630415998859,0.86
1630415998875,4.79
1630415998890,8.23
1630415998906,11.01
1630415998921,12.99
1630415998937,14.07
1630415998953,14.26
1630415998968,13.71
1630415998984,12.7
1630415999000,11.56
1630415999015,10.57
1630415999031,9.88
1630415999046,9.51
1630415999062,9.38
1630415999078,9.4
1630415999093,9.51
1630415999109,9.63
1630415999125,9.66
1630415999140,9.44
1630415999156,8.84
1630415999171,7.81
1630415999187,6.4
1630415999203,4.78
1630415999218,3.15
1630415999234,1.63
1630415999250,0.25
1630415999265,-1.03
1630415999281,-2.3
1630415999296,-3.59
1630415999312,-4.9
1630415999328,-6.18
1630415999343,-7.42
1630415999359,-8.6
1630415999375,-9.79
1630415999390,-11.05
1630415999406,-12.43
1630415999421,-13.97
1630415999437,-15.65
1630415999453,-17.4
1630415999468,-19.13
1630415999484,-20.67
1630415999500,-21.82
1630415999515,-22.32
1630415999531,-21.93
1630415999546,-20.52
1630415999562,-18.07
1630415999578,-14.77
1630415999593,-10.9
1630415999609,-6.86
1630415999625,-2.96
1630415999640,0.52
1630415999656,3.5
1630415999671,5.95
1630415999687,7.93
1630415999703,9.51
1630415999718,10.72
1630415999734,11.55
1630415999750,11.98
1630415999765,12.01
1630415999781,11.7
1630415999796,11.14
1630415999812,10.46
1630415999828,9.75
1630415999843,9.07
1630415999859,8.41
1630415999875,7.79
1630415999890,7.21
1630415999906,6.72
1630415999921,6.33
1630415999937,5.96
1630415999953,5.49
1630415999968,4.72
1630415999984,3.55
1630416000000,2.02
1630416000015,0.33
1630416000031,-1.25
1630416000046,-2.51
1630416000062,-3.42
1630416000078,-4.09
1630416000093,-4.67
1630416000109,-5.31
1630416000125,-6.0
1630416000140,-6.67
1630416000156,-7.25
1630416000171,-7.73
1630416000187,-8.18
1630416000203,-8.73
1630416000218,-9.43
1630416000234,-10.27
1630416000250,-11.16
1630416000265,-11.91
1630416000281,-12.37
1630416000296,-12.34
1630416000312,-11.64
1630416000328,-10.1
1630416000343,-7.66
1630416000359,-4.38
1630416000375,-0.51
1630416000390,3.6
1630416000406,7.53
1630416000421,10.96
1630416000437,13.7
1630416000453,15.67
1630416000468,16.93
1630416000484,17.57
1630416000500,17.69
1630416000515,17.4
1630416000531,16.81
1630416000546,16.05
1630416000562,15.24
1630416000578,14.46
1630416000593,13.76
1630416000609,13.14
1630416000625,12.55
1630416000640,11.92
1630416000656,11.2
1630416000671,10.34
1630416000687,9.32
1630416000703,8.16
1630416000718,6.92
1630416000734,5.65
1630416000750,4.37
1630416000765,3.03
1630416000781,1.56
1630416000796,-0.13
1630416000812,-2.07
1630416000828,-4.16
1630416000843,-6.22
1630416000859,-8.02
1630416000875,-9.37
1630416000890,-10.18
1630416000906,-10.5
1630416000921,-10.49
1630416000937,-10.37
1630416000953,-10.36
1630416000968,-10.65
1630416000984,-11.36
1630416001000,-12.51
1630416001015,-14.01
1630416001031,-15.61
1630416001046,-16.96
1630416001062,-17.66
1630416001078,-17.37
1630416001093,-15.93
1630416001109,-13.44
1630416001125,-10.27
1630416001140,-6.95
1630416001156,-3.97
1630416001171,-1.67
1630416001187,-0.1
1630416001203,0.98
1630416001218,1.91
1630416001234,3.0
1630416001250,4.36
1630416001265,5.88
1630416001281,7.32
1630416001296,8.42
1630416001312,9.06
1630416001328,9.32
1630416001343,9.38
1630416001359,9.47
1630416001375,9.73
1630416001390,10.19
1630416001406,10.78
1630416001421,11.38
1630416001437,11.88
1630416001453,12.16
1630416001468,12.05
1630416001484,11.43
1630416001500,10.22
1630416001515,8.45
1630416001531,6.35
1630416001546,4.25
1630416001562,2.42
1630416001578,1.02
1630416001593,-0.01
1630416001609,-0.86
1630416001625,-1.74
1630416001640,-2.75
1630416001656,-3.88
1630416001671,-5.02
1630416001687,-6.06
1630416001703,-6.95
1630416001718,-7.79
1630416001734,-8.73
1630416001750,-9.95
1630416001765,-11.53
1630416001781,-13.41
1630416001796,-15.36
1630416001812,-17.07
1630416001828,-18.21
1630416001843,-18.51
1630416001859,-17.83
1630416001875,-16.12
1630416001890,-13.45
1630416001906,-10.01
1630416001921,-6.06
1630416001937,-1.98
1630416001953,1.88
1630416001968,5.19
1630416001984,7.8
1630416002000,9.64
1630416002015,10.79
1630416002031,11.35
1630416002046,11.46
1630416002062,11.25
1630416002078,10.85
1630416002093,10.39
1630416002109,9.92
1630416002125,9.46
1630416002140,8.92
1630416002156,8.26
1630416002171,7.45
1630416002187,6.56
1630416002203,5.68
1630416002218,4.92
1630416002234,4.29
1630416002250,3.72
1630416002265,3.12
1630416002281,2.44
1630416002296,1.68
1630416002312,0.88
1630416002328,0.09
1630416002343,-0.7
1630416002359,-1.51
1630416002375,-2.42
1630416002390,-3.47
1630416002406,-4.63
1630416002421,-5.85
1630416002437,-7.02
1630416002453,-8.02
1630416002468,-8.79
1630416002484,-9.3
1630416002500,-9.6
1630416002515,-9.78
1630416002531,-9.98
1630416002546,-10.33
1630416002562,-10.95
1630416002578,-11.85
1630416002593,-12.92
1630416002609,-13.88
1630416002625,-14.37
1630416002640,-14.03
1630416002656,-12.62
1630416002671,-10.15
1630416002687,-6.84
1630416002703,-3.08
1630416002718,0.68
1630416002734,4.09
1630416002750,6.92
1630416002765,9.08
1630416002781,10.63
1630416002796,11.64
1630416002812,12.19
1630416002828,12.34
1630416002843,12.12
1630416002859,11.61
1630416002875,10.94
1630416002890,10.29
1630416002906,9.87
1630416002921,9.77
1630416002937,9.95
1630416002953,10.24
1630416002968,10.42
1630416002984,10.32
1630416003000,9.91
1630416003015,9.28
1630416003031,8.6
1630416003046,7.99
1630416003062,7.46
1630416003078,6.91
1630416003093,6.24
1630416003109,5.4
1630416003125,4.41
1630416003140,3.35
1630416003156,2.22
1630416003171,0.98
1630416003187,-0.47
1630416003203,-2.18
1630416003218,-4.06
1630416003234,-5.95
1630416003250,-7.59
1630416003265,-8.84
1630416003281,-9.68
1630416003296,-10.27
1630416003312,-10.83
1630416003328,-11.56
1630416003343,-12.53
1630416003359,-13.61
1630416003375,-14.51
1630416003390,-14.84
1630416003406,-14.24
1630416003421,-12.45
1630416003437,-9.48
1630416003453,-5.54
1630416003468,-1.07
1630416003484,3.41
1630416003500,7.43
1630416003515,10.66
1630416003531,12.91
1630416003546,14.19
1630416003562,14.6
1630416003578,14.33
1630416003593,13.6
1630416003609,12.63
1630416003625,11.63
1630416003640,10.73
1630416003656,10.04
1630416003671,9.54
1630416003687,9.2
1630416003703,8.9
1630416003718,8.54
1630416003734,8.06
1630416003750,7.45
1630416003765,6.77
1630416003781,6.07
1630416003796,5.37
1630416003812,4.63
1630416003828,3.78
1630416003843,2.79
1630416003859,1.71
1630416003875,0.62
1630416003890,-0.37
1630416003906,-1.28
1630416003921,-2.16
1630416003937,-3.11
1630416003953,-4.21
1630416003968,-5.45
1630416003984,-6.77
1630416004000,-8.09
1630416004015,-9.43
1630416004031,-10.81
1630416004046,-12.3
1630416004062,-13.92
1630416004078,-15.59
1630416004093,-17.2
1630416004109,-18.54
1630416004125,-19.4
1630416004140,-19.59
1630416004156,-18.94
1630416004171,-17.37
1630416004187,-14.9
1630416004203,-11.63
1630416004218,-7.81
1630416004234,-3.73
1630416004250,0.28
1630416004265,3.95
1630416004281,7.07
1630416004296,9.57
1630416004312,11.45
1630416004328,12.75
1630416004343,13.5
1630416004359,13.72
1630416004375,13.41
1630416004390,12.66
1630416004406,11.64
1630416004421,10.62
1630416004437,9.8
1630416004453,9.28
1630416004468,8.97
1630416004484,8.69
1630416004500,8.29
1630416004515,7.7
1630416004531,7.01
1630416004546,6.35
1630416004562,5.82
1630416004578,5.39
1630416004593,4.93
1630416004609,4.26
1630416004625,3.25
1630416004640,1.89
1630416004656,0.25
1630416004671,-1.54
1630416004687,-3.33
1630416004703,-5.02
1630416004718,-6.56
1630416004734,-7.93
1630416004750,-9.14
1630416004765,-10.24
1630416004781,-11.3
1630416004796,-12.42
1630416004812,-13.68
1630416004828,-15.17
1630416004843,-16.91
1630416004859,-18.78
1630416004875,-20.53
1630416004890,-21.77
1630416004906,-22.1
1630416004921,-21.16
1630416004937,-18.84
1630416004953,-15.31
1630416004968,-10.99
1630416004984,-6.45
1630416005000,-2.21
1630416005015,1.37
1630416005031,4.2
1630416005046,6.33
1630416005062,7.89
1630416005078,8.97
1630416005093,9.62
1630416005109,9.84
1630416005125,9.67
1630416005140,9.26
1630416005156,8.78
1630416005171,8.35
1630416005187,8.02
1630416005203,7.72
1630416005218,7.33
1630416005234,6.77
1630416005250,6.09
1630416005265,5.4
1630416005281,4.86
1630416005296,4.54
1630416005312,4.43
1630416005328,4.42
1630416005343,4.38
1630416005359,4.15
1630416005375,3.64
1630416005390,2.73
1630416005406,1.39
1630416005421,-0.35
1630416005437,-2.3
1630416005453,-4.16
1630416005468,-5.63
1630416005484,-6.48
1630416005500,-6.73
1630416005515,-6.57
1630416005531,-6.35
1630416005546,-6.4
1630416005562,-6.88
1630416005578,-7.81
1630416005593,-9.03
1630416005609,-10.31
1630416005625,-11.41
1630416005640,-12.04
1630416005656,-11.94
1630416005671,-10.85
1630416005687,-8.62
1630416005703,-5.32
1630416005718,-1.23
1630416005734,3.15
1630416005750,7.23
1630416005765,10.52
1630416005781,12.78
1630416005796,14.05
1630416005812,14.57
1630416005828,14.67
1630416005843,14.55
1630416005859,14.26
1630416005875,13.73
1630416005890,12.89
1630416005906,11.77
1630416005921,10.5
1630416005937,9.28
1630416005953,8.28
1630416005968,7.57
1630416005984,7.07
1630416006000,6.67
1630416006015,6.25
1630416006031,5.77
1630416006046,5.24
1630416006062,4.69
1630416006078,4.16
1630416006093,3.6
1630416006109,2.94
1630416006125,2.09
1630416006140,1.02
1630416006156,-0.27
1630416006171,-1.69
1630416006187,-3.09
1630416006203,-4.34
1630416006218,-5.34
1630416006234,-6.1
1630416006250,-6.73
1630416006265,-7.41
1630416006281,-8.32
1630416006296,-9.56
1630416006312,-11.13
1630416006328,-12.88
1630416006343,-14.55
1630416006359,-15.84
1630416006375,-16.44
1630416006390,-16.12
1630416006406,-14.75
1630416006421,-12.31
1630416006437,-8.94
1630416006453,-4.93
1630416006468,-0.71
1630416006484,3.25
1630416006500,6.61
1630416006515,9.19
1630416006531,11.02
1630416006546,12.29
1630416006562,13.14
1630416006578,13.69
