timestamp,bvp
1630573698890,0.25
1630573698906,-0.31
1630573698921,-0.86
1630573698937,-1.3
1630573698953,-1.63
1630573698968,-1.89
1630573698984,-2.17
1630573699000,-2.54
1630573699015,-2.99
1630573699031,-3.53
1630573699046,-4.09
1630573699062,-4.64
1630573699078,-5.16
1630573699093,-5.61
1630573699109,-5.95
1630573699125,-6.14
1630573699140,-6.17
1630573699156,-5.99
1630573699171,-5.63
1630573699187,-5.09
1630573699203,-4.41
1630573699218,-3.63
1630573699234,-2.78
1630573699250,-1.89
1630573699265,-1.0
1630573699281,-0.15
1630573699296,0.62
1630573699312,1.24
1630573699328,1.7
1630573699343,1.99
1630573699359,2.16
1630573699375,2.3
1630573699390,2.44
1630573699406,2.6
1630573699421,2.71
1630573699437,2.72
1630573699453,2.64
1630573699468,2.55
1630573699484,2.54
1630573699500,2.69
1630573699515,2.95
1630573699531,3.21
1630573699546,3.36
1630573699562,3.37
1630573699578,3.29
1630573699593,3.22
1630573699609,3.21
1630573699625,3.25
1630573699640,3.23
1630573699656,3.07
1630573699671,2.75
1630573699687,2.34
1630573699703,1.97
1630573699718,1.73
1630573699734,1.64
1630573699750,1.62
1630573699765,1.58
1630573699781,1.41
1630573699796,1.05
1630573699812,0.49
1630573699828,-0.2
1630573699843,-0.94
1630573699859,-1.59
1630573699875,-2.1
1630573699890,-2.45
1630573699906,-2.68
1630573699921,-2.9
1630573699937,-3.16
1630573699953,-3.5
1630573699968,-3.88
1630573699984,-4.3
1630573700000,-4.74
1630573700015,-5.23
1630573700031,-5.78
1630573700046,-6.35
1630573700062,-6.85
1630573700078,-7.14
1630573700093,-7.12
1630573700109,-6.78
1630573700125,-6.21
1630573700140,-5.55
1630573700156,-4.92
1630573700171,-4.35
1630573700187,-3.77
1630573700203,-3.11
1630573700218,-2.29
1630573700234,-1.36
1630573700250,-0.42
1630573700265,0.42
1630573700281,1.09
1630573700296,1.67
1630573700312,2.25
1630573700328,2.94
1630573700343,3.69
1630573700359,4.38
1630573700375,4.8
1630573700390,4.85
1630573700406,4.55
1630573700421,4.07
1630573700437,3.65
1630573700453,3.45
1630573700468,3.5
1630573700484,3.71
1630573700500,3.95
1630573700515,4.15
1630573700531,4.28
1630573700546,4.36
1630573700562,4.36
1630573700578,4.22
1630573700593,3.87
1630573700609,3.32
1630573700625,2.66
1630573700640,2.01
1630573700656,1.49
1630573700671,1.12
1630573700687,0.87
1630573700703,0.65
1630573700718,0.43
1630573700734,0.2
1630573700750,-0.01
1630573700765,-0.21
1630573700781,-0.44
1630573700796,-0.77
1630573700812,-1.22
1630573700828,-1.78
1630573700843,-2.35
1630573700859,-2.86
1630573700875,-3.27
1630573700890,-3.55
1630573700906,-3.72
1630573700921,-3.8
1630573700937,-3.8
1630573700953,-3.8
1630573700968,-3.88
1630573700984,-4.11
1630573701000,-4.53
1630573701015,-5.11
1630573701031,-5.78
1630573701046,-6.41
1630573701062,-6.9
1630573701078,-7.19
1630573701093,-7.24
1630573701109,-7.09
1630573701125,-6.77
1630573701140,-6.34
1630573701156,-5.9
1630573701171,-5.48
1630573701187,-5.13
1630573701203,-4.78
1630573701218,-4.33
1630573701234,-3.65
1630573701250,-2.7
1630573701265,-1.54
1630573701281,-0.34
1630573701296,0.71
1630573701312,1.48
1630573701328,1.92
1630573701343,2.13
1630573701359,2.24
1630573701375,2.42
1630573701390,2.71
1630573701406,3.08
1630573701421,3.44
1630573701437,3.67
1630573701453,3.74
1630573701468,3.67
1630573701484,3.54
1630573701500,3.42
1630573701515,3.31
1630573701531,3.19
1630573701546,3.05
1630573701562,2.9
1630573701578,2.83
1630573701593,2.92
1630573701609,3.18
1630573701625,3.5
1630573701640,3.75
1630573701656,3.79
1630573701671,3.6
1630573701687,3.27
1630573701703,2.93
1630573701718,2.66
1630573701734,2.47
1630573701750,2.27
1630573701765,1.98
1630573701781,1.58
1630573701796,1.13
1630573701812,0.69
1630573701828,0.29
1630573701843,-0.1
1630573701859,-0.53
1630573701875,-1.04
1630573701890,-1.57
1630573701906,-2.04
1630573701921,-2.37
1630573701937,-2.56
1630573701953,-2.64
1630573701968,-2.69
1630573701984,-2.75
1630573702000,-2.86
1630573702015,-3.03
1630573702031,-3.28
1630573702046,-3.66
1630573702062,-4.2
1630573702078,-4.89
1630573702093,-5.6
1630573702109,-6.16
1630573702125,-6.39
1630573702140,-6.25
1630573702156,-5.78
1630573702171,-5.11
1630573702187,-4.35
1630573702203,-3.56
1630573702218,-2.7
1630573702234,-1.73
1630573702250,-0.65
1630573702265,0.45
1630573702281,1.46
1630573702296,2.26
1630573702312,2.83
1630573702328,3.23
1630573702343,3.57
1630573702359,3.92
1630573702375,4.31
1630573702390,4.68
1630573702406,4.99
1630573702421,5.23
1630573702437,5.41
1630573702453,5.6
1630573702468,5.8
1630573702484,5.98
1630573702500,6.05
1630573702515,5.93
1630573702531,5.6
1630573702546,5.14
1630573702562,4.67
1630573702578,4.33
1630573702593,4.17
1630573702609,4.13
1630573702625,4.08
1630573702640,3.85
1630573702656,3.41
1630573702671,2.81
1630573702687,2.2
1630573702703,1.69
1630573702718,1.31
1630573702734,1.02
1630573702750,0.72
1630573702765,0.44
1630573702781,0.22
1630573702796,0.15
1630573702812,0.25
1630573702828,0.42
1630573702843,0.49
1630573702859,0.31
1630573702875,-0.18
1630573702890,-0.86
1630573702906,-1.55
1630573702921,-2.11
1630573702937,-2.48
1630573702953,-2.75
1630573702968,-3.03
1630573702984,-3.36
1630573703000,-3.75
1630573703015,-4.14
1630573703031,-4.5
1630573703046,-4.82
1630573703062,-5.15
1630573703078,-5.45
1630573703093,-5.64
1630573703109,-5.59
1630573703125,-5.19
1630573703140,-4.47
1630573703156,-3.54
1630573703171,-2.6
1630573703187,-1.79
1630573703203,-1.16
1630573703218,-0.64
1630573703234,-0.12
1630573703250,0.46
1630573703265,1.09
1630573703281,1.7
1630573703296,2.24
1630573703312,2.68
1630573703328,3.06
1630573703343,3.42
1630573703359,3.79
1630573703375,4.14
1630573703390,4.38
1630573703406,4.48
1630573703421,4.4
1630573703437,4.22
1630573703453,4.01
1630573703468,3.84
1630573703484,3.76
1630573703500,3.72
1630573703515,3.67
1630573703531,3.55
1630573703546,3.34
1630573703562,3.07
1630573703578,2.79
1630573703593,2.53
1630573703609,2.28
1630573703625,2.03
1630573703640,1.76
1630573703656,1.47
1630573703671,1.2
1630573703687,0.99
1630573703703,0.89
1630573703718,0.87
1630573703734,0.86
1630573703750,0.77
1630573703765,0.51
1630573703781,0.06
1630573703796,-0.48
1630573703812,-0.96
1630573703828,-1.27
1630573703843,-1.41
1630573703859,-1.49
1630573703875,-1.67
1630573703890,-2.08
1630573703906,-2.7
1630573703921,-3.39
1630573703937,-3.98
1630573703953,-4.34
1630573703968,-4.49
1630573703984,-4.55
1630573704000,-4.68
1630573704015,-4.97
1630573704031,-5.41
1630573704046,-5.91
1630573704062,-6.35
1630573704078,-6.63
1630573704093,-6.72
1630573704109,-6.61
1630573704125,-6.3
1630573704140,-5.81
1630573704156,-5.16
1630573704171,-4.4
1630573704187,-3.54
1630573704203,-2.6
1630573704218,-1.61
1630573704234,-0.63
1630573704250,0.29
1630573704265,1.09
1630573704281,1.75
1630573704296,2.27
1630573704312,2.69
1630573704328,3.07
1630573704343,3.41
1630573704359,3.72
1630573704375,3.98
1630573704390,4.16
1630573704406,4.28
1630573704421,4.33
1630573704437,4.33
1630573704453,4.27
1630573704468,4.16
1630573704484,4.03
1630573704500,3.93
1630573704515,3.93
1630573704531,4.01
1630573704546,4.14
1630573704562,4.21
1630573704578,4.14
1630573704593,3.87
1630573704609,3.43
1630573704625,2.9
1630573704640,2.4
1630573704656,2.03
1630573704671,1.84
1630573704687,1.82
1630573704703,1.86
1630573704718,1.85
1630573704734,1.67
1630573704750,1.26
1630573704765,0.64
1630573704781,-0.1
1630573704796,-0.8
1630573704812,-1.31
1630573704828,-1.57
1630573704843,-1.59
1630573704859,-1.49
1630573704875,-1.43
1630573704890,-1.54
1630573704906,-1.93
1630573704921,-2.62
1630573704937,-3.52
1630573704953,-4.52
1630573704968,-5.47
1630573704984,-6.25
1630573705000,-6.81
1630573705015,-7.18
1630573705031,-7.43
1630573705046,-7.67
1630573705062,-7.96
1630573705078,-8.29
1630573705093,-8.58
1630573705109,-8.73
1630573705125,-8.62
1630573705140,-8.22
1630573705156,-7.54
1630573705171,-6.67
1630573705187,-5.71
1630573705203,-4.71
1630573705218,-3.66
1630573705234,-2.52
1630573705250,-1.26
1630573705265,0.06
1630573705281,1.28
1630573705296,2.22
1630573705312,2.7
1630573705328,2.7
1630573705343,2.37
1630573705359,1.97
1630573705375,1.77
1630573705390,1.87
1630573705406,2.25
1630573705421,2.75
1630573705437,3.18
1630573705453,3.46
1630573705468,3.63
1630573705484,3.79
1630573705500,4.03
1630573705515,4.34
1630573705531,4.66
1630573705546,4.9
1630573705562,4.99
1630573705578,4.94
1630573705593,4.79
1630573705609,4.62
1630573705625,4.44
1630573705640,4.25
1630573705656,4.02
1630573705671,3.71
1630573705687,3.3
1630573705703,2.81
1630573705718,2.31
1630573705734,1.86
1630573705750,1.51
1630573705765,1.26
1630573705781,1.03
1630573705796,0.73
1630573705812,0.31
1630573705828,-0.25
1630573705843,-0.84
1630573705859,-1.34
1630573705875,-1.65
1630573705890,-1.75
1630573705906,-1.72
1630573705921,-1.69
1630573705937,-1.74
1630573705953,-1.94
1630573705968,-2.28
1630573705984,-2.69
1630573706000,-3.17
1630573706015,-3.67
1630573706031,-4.19
1630573706046,-4.67
1630573706062,-5.04
1630573706078,-5.24
1630573706093,-5.21
1630573706109,-4.97
1630573706125,-4.57
1630573706140,-4.06
1630573706156,-3.45
1630573706171,-2.77
1630573706187,-2.02
1630573706203,-1.19
1630573706218,-0.31
1630573706234,0.59
1630573706250,1.44
1630573706265,2.2
1630573706281,2.82
1630573706296,3.31
1630573706312,3.7
1630573706328,4.05
1630573706343,4.4
1630573706359,4.75
1630573706375,5.03
1630573706390,5.17
1630573706406,5.13
1630573706421,4.91
1630573706437,4.58
1630573706453,4.22
1630573706468,3.9
1630573706484,3.69
1630573706500,3.6
1630573706515,3.66
1630573706531,3.87
1630573706546,4.15
1630573706562,4.43
1630573706578,4.59
1630573706593,4.56
1630573706609,4.33
1630573706625,3.96
1630573706640,3.54
1630573706656,3.11
1630573706671,2.7
1630573706687,2.27
1630573706703,1.82
1630573706718,1.35
1630573706734,0.89
1630573706750,0.45
1630573706765,0.02
1630573706781,-0.42
1630573706796,-0.88
1630573706812,-1.31
1630573706828,-1.63
1630573706843,-1.79
1630573706859,-1.77
1630573706875,-1.65
1630573706890,-1.58
1630573706906,-1.68
1630573706921,-1.99
1630573706937,-2.47
1630573706953,-3.01
1630573706968,-3.51
1630573706984,-3.93
1630573707000,-4.28
1630573707015,-4.58
1630573707031,-4.8
1630573707046,-4.89
1630573707062,-4.77
1630573707078,-4.46
1630573707093,-4.03
1630573707109,-3.59
1630573707125,-3.2
1630573707140,-2.85
1630573707156,-2.43
1630573707171,-1.84
1630573707187,-1.06
1630573707203,-0.19
1630573707218,0.63
1630573707234,1.26
1630573707250,1.66
1630573707265,1.89
1630573707281,2.04
1630573707296,2.21
1630573707312,2.44
1630573707328,2.75
1630573707343,3.09
1630573707359,3.42
1630573707375,3.66
1630573707390,3.75
1630573707406,3.66
1630573707421,3.44
1630573707437,3.19
1630573707453,3.03
1630573707468,3.06
1630573707484,3.24
1630573707500,3.49
1630573707515,3.67
1630573707531,3.68
1630573707546,3.49
1630573707562,3.16
1630573707578,2.76
1630573707593,2.35
1630573707609,1.99
1630573707625,1.72
1630573707640,1.57
1630573707656,1.53
1630573707671,1.56
1630573707687,1.55
1630573707703,1.4
1630573707718,1.02
1630573707734,0.41
1630573707750,-0.34
1630573707765,-1.13
1630573707781,-1.84
1630573707796,-2.4
1630573707812,-2.81
1630573707828,-3.04
1630573707843,-3.13
1630573707859,-3.1
1630573707875,-3.01
1630573707890,-2.99
1630573707906,-3.14
1630573707921,-3.54
1630573707937,-4.15
1630573707953,-4.83
1630573707968,-5.4
1630573707984,-5.72
1630573708000,-5.76
1630573708015,-5.62
1630573708031,-5.45
1630573708046,-5.39
1630573708062,-5.47
1630573708078,-5.59
1630573708093,-5.61
1630573708109,-5.38
1630573708125,-4.85
1630573708140,-4.12
1630573708156,-3.33
1630573708171,-2.62
1630573708187,-2.06
1630573708203,-1.59
1630573708218,-1.08
1630573708234,-0.45
1630573708250,0.33
1630573708265,1.16
1630573708281,1.88
1630573708296,2.39
1630573708312,2.66
1630573708328,2.77
1630573708343,2.82
1630573708359,2.88
1630573708375,2.95
1630573708390,3.02
1630573708406,3.06
1630573708421,3.1
1630573708437,3.19
1630573708453,3.38
1630573708468,3.69
1630573708484,4.03
1630573708500,4.28
1630573708515,4.31
1630573708531,4.08
1630573708546,3.63
1630573708562,3.11
1630573708578,2.65
1630573708593,2.36
1630573708609,2.2
1630573708625,2.09
1630573708640,1.92
1630573708656,1.64
1630573708671,1.3
1630573708687,0.98
1630573708703,0.79
1630573708718,0.71
1630573708734,0.67
1630573708750,0.54
1630573708765,0.27
1630573708781,-0.11
1630573708796,-0.47
1630573708812,-0.75
1630573708828,-0.94
1630573708843,-1.14
1630573708859,-1.45
1630573708875,-1.93
1630573708890,-2.5
1630573708906,-3.03
1630573708921,-3.4
1630573708937,-3.6
1630573708953,-3.69
1630573708968,-3.85
1630573708984,-4.19
1630573709000,-4.76
1630573709015,-5.5
1630573709031,-6.29
1630573709046,-7.01
1630573709062,-7.59
1630573709078,-7.95
1630573709093,-8.08
1630573709109,-7.96
1630573709125,-7.58
1630573709140,-6.98
1630573709156,-6.21
1630573709171,-5.34
1630573709187,-4.45
1630573709203,-3.6
1630573709218,-2.79
1630573709234,-2.03
1630573709250,-1.31
1630573709265,-0.62
1630573709281,0.04
1630573709296,0.69
1630573709312,1.3
1630573709328,1.86
1630573709343,2.33
1630573709359,2.68
1630573709375,2.9
1630573709390,3.01
1630573709406,3.04
1630573709421,3.06
1630573709437,3.12
1630573709453,3.27
1630573709468,3.52
1630573709484,3.84
1630573709500,4.14
1630573709515,4.31
1630573709531,4.25
1630573709546,3.94
1630573709562,3.46
1630573709578,2.97
1630573709593,2.62
1630573709609,2.49
1630573709625,2.53
1630573709640,2.63
1630573709656,2.64
1630573709671,2.49
1630573709687,2.18
1630573709703,1.75
1630573709718,1.27
1630573709734,0.78
1630573709750,0.32
1630573709765,-0.06
1630573709781,-0.33
1630573709796,-0.44
1630573709812,-0.4
1630573709828,-0.32
1630573709843,-0.3
1630573709859,-0.45
1630573709875,-0.79
1630573709890,-1.25
1630573709906,-1.69
1630573709921,-2.0
1630573709937,-2.13
1630573709953,-2.17
1630573709968,-2.22
1630573709984,-2.36
1630573710000,-2.6
1630573710015,-2.89
1630573710031,-3.15
1630573710046,-3.39
1630573710062,-3.66
1630573710078,-4.02
1630573710093,-4.45
1630573710109,-4.8
1630573710125,-4.9
1630573710140,-4.61
1630573710156,-3.9
1630573710171,-2.92
1630573710187,-1.84
1630573710203,-0.82
1630573710218,0.11
1630573710234,1.0
1630573710250,1.9
1630573710265,2.82
1630573710281,3.68
1630573710296,4.37
1630573710312,4.79
1630573710328,4.98
1630573710343,5.01
1630573710359,5.0
1630573710375,5.02
1630573710390,5.07
1630573710406,5.1
1630573710421,5.03
1630573710437,4.84
1630573710453,4.57
1630573710468,4.3
1630573710484,4.08
1630573710500,3.93
1630573710515,3.8
1630573710531,3.64
1630573710546,3.42
1630573710562,3.14
1630573710578,2.84
1630573710593,2.57
1630573710609,2.36
1630573710625,2.19
1630573710640,2.04
1630573710656,1.87
1630573710671,1.64
1630573710687,1.37
1630573710703,1.06
1630573710718,0.77
1630573710734,0.5
1630573710750,0.28
1630573710765,0.09
1630573710781,-0.12
1630573710796,-0.38
1630573710812,-0.71
1630573710828,-1.09
1630573710843,-1.48
1630573710859,-1.83
1630573710875,-2.12
1630573710890,-2.38
1630573710906,-2.64
1630573710921,-2.9
1630573710937,-3.17
1630573710953,-3.46
1630573710968,-3.77
1630573710984,-4.12
1630573711000,-4.53
1630573711015,-5.01
1630573711031,-5.54
1630573711046,-6.06
1630573711062,-6.47
1630573711078,-6.65
1630573711093,-6.48
1630573711109,-5.93
1630573711125,-5.04
1630573711140,-3.95
1630573711156,-2.84
1630573711171,-1.83
1630573711187,-0.96
1630573711203,-0.19
1630573711218,0.55
1630573711234,1.26
1630573711250,1.87
1630573711265,2.3
1630573711281,2.46
1630573711296,2.41
1630573711312,2.29
1630573711328,2.27
1630573711343,2.46
1630573711359,2.88
1630573711375,3.44
1630573711390,4.0
1630573711406,4.44
1630573711421,4.65
1630573711437,4.62
1630573711453,4.4
1630573711468,4.11
1630573711484,3.91
1630573711500,3.87
1630573711515,3.97
1630573711531,4.11
1630573711546,4.16
1630573711562,4.01
1630573711578,3.68
1630573711593,3.21
1630573711609,2.71
1630573711625,2.22
1630573711640,1.76
1630573711656,1.34
1630573711671,0.97
1630573711687,0.71
1630573711703,0.58
1630573711718,0.55
1630573711734,0.51
1630573711750,0.35
1630573711765,-0.01
1630573711781,-0.54
1630573711796,-1.12
1630573711812,-1.62
1630573711828,-1.96
1630573711843,-2.16
1630573711859,-2.31
1630573711875,-2.51
1630573711890,-2.85
1630573711906,-3.29
1630573711921,-3.75
1630573711937,-4.16
1630573711953,-4.51
1630573711968,-4.88
1630573711984,-5.37
1630573712000,-6.04
1630573712015,-6.84
1630573712031,-7.61
1630573712046,-8.16
1630573712062,-8.32
1630573712078,-8.04
1630573712093,-7.39
1630573712109,-6.5
1630573712125,-5.51
1630573712140,-4.51
1630573712156,-3.55
1630573712171,-2.65
1630573712187,-1.82
1630573712203,-1.06
1630573712218,-0.35
1630573712234,0.37
1630573712250,1.1
1630573712265,1.86
1630573712281,2.58
1630573712296,3.19
1630573712312,3.61
1630573712328,3.83
1630573712343,3.89
1630573712359,3.9
1630573712375,3.95
1630573712390,4.07
1630573712406,4.22
1630573712421,4.35
1630573712437,4.42
1630573712453,4.44
1630573712468,4.43
1630573712484,4.44
1630573712500,4.42
1630573712515,4.33
1630573712531,4.12
1630573712546,3.8
1630573712562,3.45
1630573712578,3.15
1630573712593,2.98
1630573712609,2.94
1630573712625,2.97
1630573712640,3.0
1630573712656,2.97
1630573712671,2.88
1630573712687,2.71
1630573712703,2.46
1630573712718,2.12
1630573712734,1.67
1630573712750,1.13
1630573712765,0.56
1630573712781,0.03
1630573712796,-0.41
1630573712812,-0.78
1630573712828,-1.13
1630573712843,-1.51
1630573712859,-1.96
1630573712875,-2.42
1630573712890,-2.8
1630573712906,-3.04
1630573712921,-3.09
1630573712937,-3.02
1630573712953,-2.95
1630573712968,-3.06
1630573712984,-3.45
1630573713000,-4.12
1630573713015,-5.01
1630573713031,-5.93
1630573713046,-6.74
1630573713062,-7.26
1630573713078,-7.42
1630573713093,-7.19
1630573713109,-6.61
1630573713125,-5.76
1630573713140,-4.73
1630573713156,-3.61
1630573713171,-2.46
1630573713187,-1.35
1630573713203,-0.34
1630573713218,0.51
1630573713234,1.21
1630573713250,1.79
1630573713265,2.32
1630573713281,2.89
1630573713296,3.5
1630573713312,4.09
1630573713328,4.56
1630573713343,4.84
1630573713359,4.9
1630573713375,4.82
1630573713390,4.7
1630573713406,4.63
1630573713421,4.64
1630573713437,4.66
1630573713453,4.64
1630573713468,4.56
1630573713484,4.44
1630573713500,4.31
1630573713515,4.2
1630573713531,4.08
1630573713546,3.88
1630573713562,3.56
1630573713578,3.1
1630573713593,2.57
1630573713609,2.09
1630573713625,1.73
1630573713640,1.53
1630573713656,1.44
1630573713671,1.37
1630573713687,1.2
1630573713703,0.85
1630573713718,0.32
1630573713734,-0.32
1630573713750,-0.97
1630573713765,-1.55
1630573713781,-2.01
1630573713796,-2.39
1630573713812,-2.73
1630573713828,-3.07
1630573713843,-3.41
1630573713859,-3.72
1630573713875,-3.95
1630573713890,-4.11
1630573713906,-4.22
1630573713921,-4.36
1630573713937,-4.59
1630573713953,-4.94
1630573713968,-5.35
1630573713984,-5.76
1630573714000,-6.09
1630573714015,-6.32
1630573714031,-6.49
1630573714046,-6.67
1630573714062,-6.91
1630573714078,-7.18
1630573714093,-7.41
1630573714109,-7.46
1630573714125,-7.21
1630573714140,-6.63
1630573714156,-5.79
1630573714171,-4.8
1630573714187,-3.79
1630573714203,-2.85
1630573714218,-1.99
1630573714234,-1.21
1630573714250,-0.47
1630573714265,0.28
1630573714281,1.08
1630573714296,1.92
1630573714312,2.77
1630573714328,3.58
1630573714343,4.29
1630573714359,4.87
1630573714375,5.34
1630573714390,5.76
1630573714406,6.16
1630573714421,6.55
1630573714437,6.86
1630573714453,7.03
1630573714468,7.03
1630573714484,6.89
1630573714500,6.68
1630573714515,6.48
1630573714531,6.34
1630573714546,6.25
1630573714562,6.19
1630573714578,6.13
1630573714593,6.05
1630573714609,5.94
1630573714625,5.79
1630573714640,5.55
1630573714656,5.24
1630573714671,4.86
1630573714687,4.48
1630573714703,4.12
1630573714718,3.81
1630573714734,3.55
1630573714750,3.28
1630573714765,2.98
1630573714781,2.63
1630573714796,2.28
1630573714812,1.97
1630573714828,1.7
1630573714843,1.45
1630573714859,1.17
1630573714875,0.77
1630573714890,0.23
1630573714906,-0.4
1630573714921,-1.07
1630573714937,-1.66
1630573714953,-2.13
1630573714968,-2.5
1630573714984,-2.88
1630573715000,-3.38
1630573715015,-4.11
1630573715031,-5.07
1630573715046,-6.15
1630573715062,-7.13
1630573715078,-7.81
1630573715093,-8.02
1630573715109,-7.76
1630573715125,-7.09
1630573715140,-6.19
1630573715156,-5.19
1630573715171,-4.23
1630573715187,-3.34
1630573715203,-2.53
1630573715218,-1.79
1630573715234,-1.11
1630573715250,-0.49
1630573715265,0.06
1630573715281,0.57
1630573715296,1.06
1630573715312,1.59
1630573715328,2.2
1630573715343,2.88
1630573715359,3.57
1630573715375,4.12
1630573715390,4.44
1630573715406,4.46
1630573715421,4.24
1630573715437,3.9
1630573715453,3.62
1630573715468,3.52
1630573715484,3.65
1630573715500,3.97
1630573715515,4.39
1630573715531,4.78
1630573715546,5.07
1630573715562,5.24
1630573715578,5.32
1630573715593,5.36
1630573715609,5.39
1630573715625,5.39
1630573715640,5.28
1630573715656,4.95
1630573715671,4.36
1630573715687,3.57
1630573715703,2.72
1630573715718,2.03
1630573715734,1.61
1630573715750,1.46
1630573715765,1.44
1630573715781,1.38
1630573715796,1.11
1630573715812,0.62
1630573715828,0.02
1630573715843,-0.53
1630573715859,-0.95
1630573715875,-1.21
1630573715890,-1.4
1630573715906,-1.62
1630573715921,-1.91
1630573715937,-2.23
1630573715953,-2.52
1630573715968,-2.72
1630573715984,-2.83
1630573716000,-2.89
1630573716015,-2.96
1630573716031,-3.09
1630573716046,-3.22
1630573716062,-3.29
1630573716078,-3.21
1630573716093,-2.95
1630573716109,-2.51
1630573716125,-1.95
1630573716140,-1.32
1630573716156,-0.67
1630573716171,-0.0
1630573716187,0.68
1630573716203,1.37
1630573716218,2.06
1630573716234,2.72
1630573716250,3.24
1630573716265,3.52
1630573716281,3.46
1630573716296,3.05
1630573716312,2.39
1630573716328,1.65
1630573716343,1.05
1630573716359,0.74
1630573716375,0.73
1630573716390,0.88
1630573716406,1.0
1630573716421,0.93
1630573716437,0.65
1630573716453,0.26
1630573716468,-0.07
1630573716484,-0.26
1630573716500,-0.28
1630573716515,-0.25
1630573716531,-0.28
1630573716546,-0.41
1630573716562,-0.59
1630573716578,-0.73
1630573716593,-0.73
1630573716609,-0.57
1630573716625,-0.34
1630573716640,-0.12
1630573716656,-0.04
1630573716671,-0.13
1630573716687,-0.39
1630573716703,-0.72
1630573716718,-1.03
1630573716734,-1.19
1630573716750,-1.15
1630573716765,-0.91
1630573716781,-0.58
1630573716796,-0.28
1630573716812,-0.13
1630573716828,-0.21
1630573716843,-0.48
1630573716859,-0.88
1630573716875,-1.34
1630573716890,-1.81
1630573716906,-2.29
1630573716921,-2.79
1630573716937,-3.32
1630573716953,-3.81
1630573716968,-4.22
1630573716984,-4.46
1630573717000,-4.52
1630573717015,-4.47
1630573717031,-4.4
1630573717046,-4.42
1630573717062,-4.57
1630573717078,-4.78
1630573717093,-4.89
1630573717109,-4.73
1630573717125,-4.2
1630573717140,-3.34
1630573717156,-2.32
1630573717171,-1.32
1630573717187,-0.49
1630573717203,0.16
1630573717218,0.7
1630573717234,1.22
1630573717250,1.8
1630573717265,2.39
1630573717281,2.95
1630573717296,3.42
1630573717312,3.83
1630573717328,4.26
1630573717343,4.79
1630573717359,5.44
1630573717375,6.16
1630573717390,6.81
1630573717406,7.25
1630573717421,7.36
1630573717437,7.15
1630573717453,6.65
1630573717468,5.97
1630573717484,5.21
1630573717500,4.41
1630573717515,3.63
1630573717531,2.87
1630573717546,2.16
1630573717562,1.51
1630573717578,0.91
1630573717593,0.38
1630573717609,-0.1
1630573717625,-0.49
1630573717640,-0.79
1630573717656,-1.01
1630573717671,-1.22
1630573717687,-1.54
1630573717703,-2.13
1630573717718,-3.09
1630573717734,-4.39
1630573717750,-5.91
1630573717765,-7.37
1630573717781,-8.51
1630573717796,-9.1
1630573717812,-9.13
1630573717828,-8.72
1630573717843,-8.11
1630573717859,-7.59
1630573717875,-7.31
1630573717890,-7.32
1630573717906,-7.52
1630573717921,-7.76
1630573717937,-7.94
1630573717953,-7.99
1630573717968,-7.96
1630573717984,-7.88
1630573718000,-7.81
1630573718015,-7.77
1630573718031,-7.8
1630573718046,-7.93
1630573718062,-8.19
1630573718078,-8.54
1630573718093,-8.91
1630573718109,-9.15
1630573718125,-9.13
1630573718140,-8.78
1630573718156,-8.1
1630573718171,-7.21
1630573718187,-6.23
1630573718203,-5.29
1630573718218,-4.43
1630573718234,-3.65
1630573718250,-2.88
1630573718265,-2.07
1630573718281,-1.16
1630573718296,-0.15
1630573718312,0.96
1630573718328,2.14
1630573718343,3.36
1630573718359,4.54
1630573718375,5.59
1630573718390,6.38
1630573718406,6.83
1630573718421,6.94
1630573718437,6.83
1630573718453,6.66
1630573718468,6.62
1630573718484,6.78
1630573718500,7.13
1630573718515,7.57
1630573718531,7.96
1630573718546,8.25
1630573718562,8.4
1630573718578,8.44
1630573718593,8.37
1630573718609,8.17
1630573718625,7.82
1630573718640,7.28
1630573718656,6.6
1630573718671,5.83
1630573718687,5.08
1630573718703,4.41
1630573718718,3.83
1630573718734,3.28
1630573718750,2.69
1630573718765,1.98
1630573718781,1.14
1630573718796,0.24
1630573718812,-0.6
1630573718828,-1.32
1630573718843,-1.86
1630573718859,-2.28
1630573718875,-2.64
1630573718890,-3.01
1630573718906,-3.41
1630573718921,-3.82
1630573718937,-4.22
1630573718953,-4.61
1630573718968,-4.99
1630573718984,-5.37
1630573719000,-5.76
1630573719015,-6.18
1630573719031,-6.62
1630573719046,-7.1
1630573719062,-7.61
1630573719078,-8.13
1630573719093,-8.57
1630573719109,-8.81
1630573719125,-8.78
1630573719140,-8.46
1630573719156,-7.91
1630573719171,-7.23
1630573719187,-6.51
1630573719203,-5.76
1630573719218,-4.97
1630573719234,-4.1
1630573719250,-3.12
1630573719265,-2.07
1630573719281,-1.03
1630573719296,-0.11
1630573719312,0.64
1630573719328,1.17
1630573719343,1.52
1630573719359,1.76
1630573719375,1.97
1630573719390,2.26
1630573719406,2.69
1630573719421,3.31
1630573719437,4.07
1630573719453,4.82
1630573719468,5.43
1630573719484,5.76
1630573719500,5.79
1630573719515,5.61
1630573719531,5.37
1630573719546,5.22
1630573719562,5.17
1630573719578,5.12
1630573719593,4.94
1630573719609,4.55
1630573719625,4.02
1630573719640,3.53
1630573719656,3.29
1630573719671,3.34
1630573719687,3.59
1630573719703,3.82
1630573719718,3.79
1630573719734,3.45
1630573719750,2.89
1630573719765,2.26
1630573719781,1.72
1630573719796,1.31
1630573719812,0.94
1630573719828,0.55
1630573719843,0.11
1630573719859,-0.29
1630573719875,-0.6
1630573719890,-0.77
1630573719906,-0.9
1630573719921,-1.1
1630573719937,-1.44
1630573719953,-1.9
1630573719968,-2.38
1630573719984,-2.78
1630573720000,-3.08
1630573720015,-3.32
1630573720031,-3.63
1630573720046,-4.08
1630573720062,-4.64
1630573720078,-5.21
1630573720093,-5.64
1630573720109,-5.84
1630573720125,-5.76
1630573720140,-5.41
1630573720156,-4.86
1630573720171,-4.15
1630573720187,-3.31
1630573720203,-2.36
1630573720218,-1.27
1630573720234,-0.07
1630573720250,1.21
1630573720265,2.47
1630573720281,3.62
1630573720296,4.55
1630573720312,5.25
1630573720328,5.8
1630573720343,6.37
1630573720359,7.09
1630573720375,8.02
1630573720390,9.05
1630573720406,9.98
1630573720421,10.6
1630573720437,10.8
1630573720453,10.63
1630573720468,10.27
1630573720484,9.91
1630573720500,9.7
1630573720515,9.67
1630573720531,9.75
1630573720546,9.84
1630573720562,9.85
1630573720578,9.76
1630573720593,9.58
1630573720609,9.35
1630573720625,9.09
1630573720640,8.83
1630573720656,8.55
1630573720671,8.25
1630573720687,7.93
1630573720703,7.56
1630573720718,7.15
1630573720734,6.69
1630573720750,6.18
1630573720765,5.58
1630573720781,4.9
1630573720796,4.17
1630573720812,3.44
1630573720828,2.79
1630573720843,2.25
1630573720859,1.82
1630573720875,1.47
1630573720890,1.11
1630573720906,0.66
1630573720921,0.08
1630573720937,-0.6
1630573720953,-1.32
1630573720968,-2.01
1630573720984,-2.61
1630573721000,-3.14
1630573721015,-3.66
1630573721031,-4.3
1630573721046,-5.11
1630573721062,-6.07
1630573721078,-7.11
1630573721093,-8.11
1630573721109,-9.01
1630573721125,-9.8
1630573721140,-10.55
1630573721156,-11.28
1630573721171,-11.96
1630573721187,-12.48
1630573721203,-12.72
1630573721218,-12.64
1630573721234,-12.27
1630573721250,-11.72
1630573721265,-11.06
1630573721281,-10.33
1630573721296,-9.48
1630573721312,-8.49
1630573721328,-7.36
1630573721343,-6.18
1630573721359,-5.09
1630573721375,-4.23
1630573721390,-3.67
1630573721406,-3.42
1630573721421,-3.37
1630573721437,-3.37
1630573721453,-3.28
1630573721468,-3.03
1630573721484,-2.61
1630573721500,-2.08
1630573721515,-1.55
1630573721531,-1.1
1630573721546,-0.75
1630573721562,-0.47
1630573721578,-0.19
1630573721593,0.12
1630573721609,0.45
1630573721625,0.73
1630573721640,0.92
1630573721656,1.02
1630573721671,1.13
1630573721687,1.36
1630573721703,1.79
1630573721718,2.41
1630573721734,3.1
1630573721750,3.67
1630573721765,3.97
1630573721781,3.87
1630573721796,3.4
1630573721812,2.63
1630573721828,1.73
1630573721843,0.84
1630573721859,0.12
1630573721875,-0.34
1630573721890,-0.5
1630573721906,-0.4
1630573721921,-0.19
1630573721937,-0.08
1630573721953,-0.26
1630573721968,-0.88
1630573721984,-1.92
1630573722000,-3.24
1630573722015,-4.6
1630573722031,-5.76
1630573722046,-6.59
1630573722062,-7.04
1630573722078,-7.14
1630573722093,-6.93
1630573722109,-6.43
1630573722125,-5.66
1630573722140,-4.67
1630573722156,-3.54
1630573722171,-2.41
1630573722187,-1.38
1630573722203,-0.45
1630573722218,0.46
1630573722234,1.47
1630573722250,2.65
1630573722265,3.97
1630573722281,5.32
1630573722296,6.54
1630573722312,7.49
1630573722328,8.1
1630573722343,8.4
1630573722359,8.51
1630573722375,8.55
1630573722390,8.6
1630573722406,8.72
1630573722421,8.9
1630573722437,9.08
1630573722453,9.22
1630573722468,9.33
1630573722484,9.44
1630573722500,9.58
1630573722515,9.76
1630573722531,9.83
1630573722546,9.66
1630573722562,9.09
1630573722578,8.14
1630573722593,6.93
1630573722609,5.68
1630573722625,4.57
1630573722640,3.65
1630573722656,2.87
1630573722671,2.14
1630573722687,1.41
1630573722703,0.73
1630573722718,0.16
1630573722734,-0.24
1630573722750,-0.56
1630573722765,-0.94
1630573722781,-1.55
1630573722796,-2.44
1630573722812,-3.49
1630573722828,-4.45
1630573722843,-5.08
1630573722859,-5.26
1630573722875,-5.06
1630573722890,-4.71
1630573722906,-4.45
1630573722921,-4.41
1630573722937,-4.56
1630573722953,-4.8
1630573722968,-5.01
1630573722984,-5.14
1630573723000,-5.25
1630573723015,-5.42
1630573723031,-5.7
1630573723046,-6.04
1630573723062,-6.34
1630573723078,-6.46
1630573723093,-6.32
1630573723109,-5.93
1630573723125,-5.37
1630573723140,-4.7
1630573723156,-3.97
1630573723171,-3.19
1630573723187,-2.37
1630573723203,-1.58
1630573723218,-0.92
1630573723234,-0.47
1630573723250,-0.28
1630573723265,-0.32
1630573723281,-0.49
1630573723296,-0.68
1630573723312,-0.8
1630573723328,-0.83
1630573723343,-0.75
1630573723359,-0.57
1630573723375,-0.26
1630573723390,0.16
1630573723406,0.65
1630573723421,1.11
1630573723437,1.45
1630573723453,1.62
1630573723468,1.67
1630573723484,1.66
1630573723500,1.7
1630573723515,1.8
1630573723531,1.94
1630573723546,2.04
1630573723562,2.06
1630573723578,1.97
1630573723593,1.8
1630573723609,1.6
1630573723625,1.4
1630573723640,1.24
1630573723656,1.15
1630573723671,1.16
1630573723687,1.28
1630573723703,1.46
1630573723718,1.63
1630573723734,1.73
1630573723750,1.73
1630573723765,1.64
1630573723781,1.49
1630573723796,1.3
1630573723812,1.04
1630573723828,0.68
1630573723843,0.23
1630573723859,-0.24
1630573723875,-0.63
1630573723890,-0.86
1630573723906,-0.93
1630573723921,-0.92
1630573723937,-0.98
1630573723953,-1.21
1630573723968,-1.65
1630573723984,-2.26
1630573724000,-2.98
1630573724015,-3.75
1630573724031,-4.52
1630573724046,-5.23
1630573724062,-5.78
1630573724078,-6.08
1630573724093,-6.03
1630573724109,-5.64
1630573724125,-4.95
1630573724140,-4.11
1630573724156,-3.24
1630573724171,-2.43
1630573724187,-1.72
1630573724203,-1.09
1630573724218,-0.49
1630573724234,0.1
1630573724250,0.71
1630573724265,1.32
1630573724281,1.93
1630573724296,2.5
1630573724312,3.03
1630573724328,3.51
1630573724343,3.91
1630573724359,4.18
1630573724375,4.3
1630573724390,4.27
1630573724406,4.15
1630573724421,4.02
1630573724437,3.93
1630573724453,3.9
1630573724468,3.88
1630573724484,3.84
1630573724500,3.74
1630573724515,3.6
1630573724531,3.43
1630573724546,3.23
1630573724562,2.96
1630573724578,2.59
1630573724593,2.1
1630573724609,1.57
1630573724625,1.08
1630573724640,0.68
1630573724656,0.32
1630573724671,-0.12
1630573724687,-0.75
1630573724703,-1.56
1630573724718,-2.43
1630573724734,-3.13
1630573724750,-3.48
1630573724765,-3.43
1630573724781,-3.1
1630573724796,-2.7
1630573724812,-2.43
1630573724828,-2.36
1630573724843,-2.42
1630573724859,-2.49
1630573724875,-2.46
1630573724890,-2.31
1630573724906,-2.14
1630573724921,-2.04
1630573724937,-2.09
1630573724953,-2.29
1630573724968,-2.63
1630573724984,-3.12
1630573725000,-3.75
1630573725015,-4.52
1630573725031,-5.34
1630573725046,-6.04
1630573725062,-6.45
1630573725078,-6.44
1630573725093,-6.01
1630573725109,-5.28
1630573725125,-4.4
1630573725140,-3.51
1630573725156,-2.66
1630573725171,-1.83
1630573725187,-1.0
1630573725203,-0.17
1630573725218,0.61
1630573725234,1.3
1630573725250,1.88
1630573725265,2.39
1630573725281,2.91
1630573725296,3.47
1630573725312,4.05
1630573725328,4.59
1630573725343,4.99
1630573725359,5.18
1630573725375,5.16
1630573725390,5.0
1630573725406,4.79
1630573725421,4.62
1630573725437,4.5
1630573725453,4.41
1630573725468,4.3
1630573725484,4.14
1630573725500,3.92
1630573725515,3.67
1630573725531,3.42
1630573725546,3.19
1630573725562,2.97
1630573725578,2.71
1630573725593,2.4
1630573725609,2.03
1630573725625,1.66
1630573725640,1.38
1630573725656,1.27
1630573725671,1.34
1630573725687,1.52
1630573725703,1.66
1630573725718,1.64
1630573725734,1.43
1630573725750,1.1
1630573725765,0.75
1630573725781,0.48
1630573725796,0.29
1630573725812,0.11
1630573725828,-0.15
1630573725843,-0.5
1630573725859,-0.9
1630573725875,-1.25
1630573725890,-1.46
1630573725906,-1.55
1630573725921,-1.64
1630573725937,-1.85
1630573725953,-2.31
1630573725968,-3.0
1630573725984,-3.83
1630573726000,-4.65
1630573726015,-5.35
1630573726031,-5.87
1630573726046,-6.25
1630573726062,-6.53
1630573726078,-6.72
1630573726093,-6.81
1630573726109,-6.76
1630573726125,-6.53
1630573726140,-6.11
1630573726156,-5.54
1630573726171,-4.84
1630573726187,-4.04
1630573726203,-3.14
1630573726218,-2.18
1630573726234,-1.21
1630573726250,-0.3
1630573726265,0.54
1630573726281,1.27
1630573726296,1.9
1630573726312,2.45
1630573726328,2.87
1630573726343,3.15
1630573726359,3.27
1630573726375,3.24
1630573726390,3.12
1630573726406,2.95
1630573726421,2.77
1630573726437,2.59
1630573726453,2.46
1630573726468,2.43
1630573726484,2.54
1630573726500,2.81
1630573726515,3.14
1630573726531,3.41
1630573726546,3.48
1630573726562,3.29
1630573726578,2.93
1630573726593,2.54
1630573726609,2.29
1630573726625,2.25
1630573726640,2.41
1630573726656,2.67
1630573726671,2.92
1630573726687,3.09
1630573726703,3.16
1630573726718,3.12
1630573726734,3.0
1630573726750,2.82
1630573726765,2.6
1630573726781,2.35
1630573726796,2.09
1630573726812,1.81
1630573726828,1.5
1630573726843,1.11
1630573726859,0.61
1630573726875,-0.03
1630573726890,-0.8
1630573726906,-1.65
1630573726921,-2.47
1630573726937,-3.16
1630573726953,-3.67
1630573726968,-4.02
1630573726984,-4.28
1630573727000,-4.61
1630573727015,-5.07
1630573727031,-5.66
1630573727046,-6.3
1630573727062,-6.83
1630573727078,-7.13
1630573727093,-7.11
1630573727109,-6.76
1630573727125,-6.13
1630573727140,-5.25
1630573727156,-4.18
1630573727171,-3.03
1630573727187,-1.89
1630573727203,-0.86
1630573727218,-0.04
1630573727234,0.56
1630573727250,0.97
1630573727265,1.24
1630573727281,1.44
1630573727296,1.65
1630573727312,1.89
1630573727328,2.17
1630573727343,2.48
1630573727359,2.76
1630573727375,2.95
1630573727390,3.02
1630573727406,3.01
1630573727421,3.0
1630573727437,3.08
1630573727453,3.32
1630573727468,3.68
1630573727484,4.07
1630573727500,4.37
1630573727515,4.46
1630573727531,4.34
1630573727546,4.07
1630573727562,3.77
1630573727578,3.54
1630573727593,3.43
1630573727609,3.42
1630573727625,3.43
1630573727640,3.37
1630573727656,3.18
1630573727671,2.84
1630573727687,2.38
1630573727703,1.83
1630573727718,1.22
1630573727734,0.56
1630573727750,-0.08
1630573727765,-0.62
1630573727781,-0.95
1630573727796,-1.01
1630573727812,-0.78
1630573727828,-0.39
1630573727843,-0.02
1630573727859,0.14
1630573727875,-0.03
1630573727890,-0.52
1630573727906,-1.24
1630573727921,-2.07
1630573727937,-2.88
1630573727953,-3.6
1630573727968,-4.2
1630573727984,-4.71
1630573728000,-5.13
1630573728015,-5.5
1630573728031,-5.87
1630573728046,-6.26
1630573728062,-6.69
1630573728078,-7.12
1630573728093,-7.51
1630573728109,-7.77
1630573728125,-7.81
1630573728140,-7.59
1630573728156,-7.09
1630573728171,-6.34
1630573728187,-5.35
1630573728203,-4.17
1630573728218,-2.82
1630573728234,-1.36
1630573728250,0.1
1630573728265,1.43
1630573728281,2.51
1630573728296,3.26
1630573728312,3.69
1630573728328,3.93
1630573728343,4.13
1630573728359,4.44
1630573728375,4.88
1630573728390,5.37
1630573728406,5.82
1630573728421,6.14
1630573728437,6.29
1630573728453,6.29
1630573728468,6.16
1630573728484,5.91
1630573728500,5.53
1630573728515,5.04
1630573728531,4.5
1630573728546,4.01
1630573728562,3.66
1630573728578,3.47
1630573728593,3.4
1630573728609,3.33
1630573728625,3.16
1630573728640,2.8
1630573728656,2.27
1630573728671,1.61
1630573728687,0.91
1630573728703,0.24
1630573728718,-0.36
1630573728734,-0.85
1630573728750,-1.25
1630573728765,-1.55
1630573728781,-1.76
1630573728796,-1.88
1630573728812,-1.92
1630573728828,-1.92
1630573728843,-1.93
1630573728859,-1.97
1630573728875,-2.09
1630573728890,-2.29
1630573728906,-2.53
1630573728921,-2.77
1630573728937,-2.99
1630573728953,-3.14
1630573728968,-3.23
1630573728984,-3.26
1630573729000,-3.27
1630573729015,-3.31
1630573729031,-3.46
1630573729046,-3.78
1630573729062,-4.29
1630573729078,-4.95
1630573729093,-5.65
1630573729109,-6.22
1630573729125,-6.5
1630573729140,-6.39
1630573729156,-5.84
1630573729171,-4.92
1630573729187,-3.75
1630573729203,-2.5
1630573729218,-1.31
1630573729234,-0.26
1630573729250,0.68
1630573729265,1.6
1630573729281,2.57
1630573729296,3.62
1630573729312,4.63
1630573729328,5.43
1630573729343,5.86
1630573729359,5.9
1630573729375,5.67
1630573729390,5.39
1630573729406,5.26
1630573729421,5.32
1630573729437,5.47
1630573729453,5.54
1630573729468,5.42
1630573729484,5.13
1630573729500,4.8
1630573729515,4.53
1630573729531,4.37
1630573729546,4.23
1630573729562,4.0
1630573729578,3.62
1630573729593,3.12
1630573729609,2.61
1630573729625,2.22
1630573729640,1.98
1630573729656,1.86
1630573729671,1.74
1630573729687,1.52
1630573729703,1.14
1630573729718,0.66
1630573729734,0.16
1630573729750,-0.25
1630573729765,-0.55
1630573729781,-0.8
1630573729796,-1.11
1630573729812,-1.54
1630573729828,-2.12
1630573729843,-2.76
1630573729859,-3.34
1630573729875,-3.77
1630573729890,-4.02
1630573729906,-4.18
1630573729921,-4.35
1630573729937,-4.55
1630573729953,-4.76
1630573729968,-4.88
1630573729984,-4.83
1630573730000,-4.65
1630573730015,-4.48
1630573730031,-4.48
1630573730046,-4.79
1630573730062,-5.39
1630573730078,-6.15
1630573730093,-6.83
1630573730109,-7.28
1630573730125,-7.43
1630573730140,-7.34
1630573730156,-7.11
1630573730171,-6.78
1630573730187,-6.28
1630573730203,-5.49
1630573730218,-4.37
1630573730234,-2.96
1630573730250,-1.49
1630573730265,-0.17
1630573730281,0.85
1630573730296,1.57
1630573730312,2.16
1630573730328,2.81
1630573730343,3.62
1630573730359,4.59
1630573730375,5.58
1630573730390,6.42
1630573730406,7.02
1630573730421,7.32
1630573730437,7.4
1630573730453,7.36
1630573730468,7.34
1630573730484,7.39
1630573730500,7.52
1630573730515,7.62
1630573730531,7.61
1630573730546,7.43
1630573730562,7.12
1630573730578,6.8
1630573730593,6.61
1630573730609,6.6
1630573730625,6.67
1630573730640,6.67
1630573730656,6.43
1630573730671,5.9
1630573730687,5.17
1630573730703,4.41
1630573730718,3.8
1630573730734,3.43
1630573730750,3.26
1630573730765,3.16
1630573730781,3.02
1630573730796,2.73
1630573730812,2.29
1630573730828,1.73
1630573730843,1.1
1630573730859,0.47
1630573730875,-0.13
1630573730890,-0.68
1630573730906,-1.14
1630573730921,-1.5
1630573730937,-1.78
1630573730953,-2.02
1630573730968,-2.31
1630573730984,-2.73
1630573731000,-3.31
1630573731015,-4.01
1630573731031,-4.74
1630573731046,-5.39
1630573731062,-5.93
1630573731078,-6.34
1630573731093,-6.65
1630573731109,-6.84
1630573731125,-6.85
1630573731140,-6.59
1630573731156,-6.05
1630573731171,-5.29
1630573731187,-4.5
1630573731203,-3.87
1630573731218,-3.48
1630573731234,-3.28
1630573731250,-3.1
1630573731265,-2.76
1630573731281,-2.18
1630573731296,-1.39
1630573731312,-0.53
1630573731328,0.28
1630573731343,0.92
1630573731359,1.33
1630573731375,1.52
1630573731390,1.5
1630573731406,1.34
1630573731421,1.15
1630573731437,1.05
1630573731453,1.13
1630573731468,1.4
1630573731484,1.82
1630573731500,2.27
1630573731515,2.66
1630573731531,2.93
1630573731546,3.07
1630573731562,3.1
1630573731578,3.05
1630573731593,2.96
1630573731609,2.91
1630573731625,2.98
1630573731640,3.2
1630573731656,3.54
1630573731671,3.92
1630573731687,4.23
1630573731703,4.45
1630573731718,4.61
1630573731734,4.81
1630573731750,5.1
1630573731765,5.46
1630573731781,5.77
1630573731796,5.87
1630573731812,5.63
1630573731828,5.09
1630573731843,4.34
1630573731859,3.57
1630573731875,2.9
1630573731890,2.34
1630573731906,1.81
1630573731921,1.18
1630573731937,0.36
1630573731953,-0.6
1630573731968,-1.57
1630573731984,-2.37
1630573732000,-2.89
1630573732015,-3.15
1630573732031,-3.28
1630573732046,-3.45
1630573732062,-3.81
1630573732078,-4.38
1630573732093,-5.13
1630573732109,-5.94
1630573732125,-6.71
1630573732140,-7.32
1630573732156,-7.67
1630573732171,-7.72
1630573732187,-7.44
1630573732203,-6.89
1630573732218,-6.15
1630573732234,-5.35
1630573732250,-4.54
1630573732265,-3.74
1630573732281,-2.89
1630573732296,-1.95
1630573732312,-0.92
1630573732328,0.16
1630573732343,1.19
1630573732359,2.07
1630573732375,2.76
1630573732390,3.27
1630573732406,3.61
1630573732421,3.81
1630573732437,3.86
1630573732453,3.8
1630573732468,3.67
1630573732484,3.55
1630573732500,3.56
1630573732515,3.73
1630573732531,4.02
1630573732546,4.35
1630573732562,4.57
1630573732578,4.61
1630573732593,4.47
1630573732609,4.21
1630573732625,3.93
1630573732640,3.65
1630573732656,3.36
1630573732671,3.03
1630573732687,2.64
1630573732703,2.21
1630573732718,1.85
1630573732734,1.64
1630573732750,1.59
1630573732765,1.65
1630573732781,1.69
1630573732796,1.59
1630573732812,1.31
1630573732828,0.9
1630573732843,0.48
1630573732859,0.15
1630573732875,-0.07
1630573732890,-0.24
1630573732906,-0.43
1630573732921,-0.7
1630573732937,-1.08
1630573732953,-1.56
1630573732968,-2.12
1630573732984,-2.77
1630573733000,-3.5
1630573733015,-4.26
1630573733031,-4.97
1630573733046,-5.55
1630573733062,-5.98
1630573733078,-6.31
1630573733093,-6.63
1630573733109,-7.05
1630573733125,-7.59
1630573733140,-8.22
1630573733156,-8.88
1630573733171,-9.49
1630573733187,-10.04
1630573733203,-10.47
1630573733218,-10.7
1630573733234,-10.61
1630573733250,-10.1
1630573733265,-9.19
1630573733281,-8.01
1630573733296,-6.73
1630573733312,-5.55
1630573733328,-4.53
1630573733343,-3.59
1630573733359,-2.6
1630573733375,-1.46
1630573733390,-0.18
1630573733406,1.13
1630573733421,2.29
1630573733437,3.19
1630573733453,3.8
1630573733468,4.17
1630573733484,4.37
1630573733500,4.47
1630573733515,4.52
1630573733531,4.57
1630573733546,4.68
1630573733562,4.88
1630573733578,5.18
1630573733593,5.52
1630573733609,5.79
1630573733625,5.9
1630573733640,5.78
1630573733656,5.49
1630573733671,5.11
1630573733687,4.75
1630573733703,4.52
1630573733718,4.43
1630573733734,4.45
1630573733750,4.54
1630573733765,4.63
1630573733781,4.64
1630573733796,4.52
1630573733812,4.26
1630573733828,3.86
1630573733843,3.37
1630573733859,2.83
1630573733875,2.31
1630573733890,1.82
1630573733906,1.39
1630573733921,1.02
1630573733937,0.69
1630573733953,0.41
1630573733968,0.17
1630573733984,-0.07
1630573734000,-0.33
1630573734015,-0.65
1630573734031,-1.01
1630573734046,-1.41
1630573734062,-1.8
1630573734078,-2.16
1630573734093,-2.48
1630573734109,-2.8
1630573734125,-3.16
1630573734140,-3.6
1630573734156,-4.14
1630573734171,-4.75
1630573734187,-5.38
1630573734203,-5.93
1630573734218,-6.34
1630573734234,-6.51
1630573734250,-6.39
1630573734265,-5.95
1630573734281,-5.23
1630573734296,-4.28
1630573734312,-3.21
1630573734328,-2.1
1630573734343,-1.05
1630573734359,-0.12
1630573734375,0.68
1630573734390,1.33
1630573734406,1.86
1630573734421,2.31
1630573734437,2.71
1630573734453,3.1
1630573734468,3.5
1630573734484,3.92
1630573734500,4.38
1630573734515,4.85
1630573734531,5.3
1630573734546,5.63
1630573734562,5.76
1630573734578,5.62
1630573734593,5.23
1630573734609,4.71
1630573734625,4.21
1630573734640,3.89
1630573734656,3.81
1630573734671,3.94
1630573734687,4.14
1630573734703,4.27
1630573734718,4.23
1630573734734,4.01
1630573734750,3.65
1630573734765,3.2
1630573734781,2.69
1630573734796,2.14
1630573734812,1.58
1630573734828,1.06
1630573734843,0.67
1630573734859,0.45
1630573734875,0.39
1630573734890,0.38
1630573734906,0.29
1630573734921,0.03
1630573734937,-0.39
1630573734953,-0.89
1630573734968,-1.35
1630573734984,-1.69
1630573735000,-1.95
1630573735015,-2.24
1630573735031,-2.69
1630573735046,-3.37
1630573735062,-4.25
1630573735078,-5.2
1630573735093,-6.07
1630573735109,-6.77
1630573735125,-7.31
1630573735140,-7.77
1630573735156,-8.24
1630573735171,-8.75
1630573735187,-9.25
1630573735203,-9.61
1630573735218,-9.69
1630573735234,-9.41
1630573735250,-8.79
1630573735265,-7.89
1630573735281,-6.8
1630573735296,-5.6
1630573735312,-4.36
1630573735328,-3.19
1630573735343,-2.17
1630573735359,-1.36
1630573735375,-0.75
1630573735390,-0.24
1630573735406,0.3
1630573735421,0.96
1630573735437,1.76
1630573735453,2.62
1630573735468,3.41
1630573735484,4.07
1630573735500,4.59
1630573735515,5.01
1630573735531,5.35
1630573735546,5.58
1630573735562,5.65
1630573735578,5.53
1630573735593,5.28
1630573735609,4.99
1630573735625,4.78
1630573735640,4.71
1630573735656,4.73
1630573735671,4.78
1630573735687,4.78
1630573735703,4.66
1630573735718,4.44
1630573735734,4.14
1630573735750,3.82
1630573735765,3.52
1630573735781,3.31
1630573735796,3.22
1630573735812,3.26
1630573735828,3.39
1630573735843,3.49
1630573735859,3.48
1630573735875,3.32
1630573735890,3.02
1630573735906,2.65
1630573735921,2.27
1630573735937,1.89
1630573735953,1.48
1630573735968,1.01
1630573735984,0.47
1630573736000,-0.08
1630573736015,-0.56
1630573736031,-0.93
1630573736046,-1.19
1630573736062,-1.42
1630573736078,-1.71
1630573736093,-2.14
1630573736109,-2.75
1630573736125,-3.48
1630573736140,-4.29
1630573736156,-5.08
1630573736171,-5.81
1630573736187,-6.41
1630573736203,-6.82
1630573736218,-7.01
1630573736234,-6.94
1630573736250,-6.62
1630573736265,-6.07
1630573736281,-5.34
1630573736296,-4.48
1630573736312,-3.54
1630573736328,-2.54
1630573736343,-1.55
1630573736359,-0.58
1630573736375,0.31
1630573736390,1.11
1630573736406,1.8
1630573736421,2.4
1630573736437,2.9
1630573736453,3.28
1630573736468,3.5
1630573736484,3.58
1630573736500,3.56
1630573736515,3.51
1630573736531,3.51
1630573736546,3.59
1630573736562,3.69
1630573736578,3.7
1630573736593,3.53
1630573736609,3.16
1630573736625,2.68
1630573736640,2.25
1630573736656,2.0
1630573736671,1.99
1630573736687,2.13
1630573736703,2.3
1630573736718,2.36
1630573736734,2.27
1630573736750,2.08
1630573736765,1.86
1630573736781,1.7
1630573736796,1.59
1630573736812,1.44
1630573736828,1.15
1630573736843,0.68
1630573736859,0.05
1630573736875,-0.59
1630573736890,-1.08
1630573736906,-1.3
1630573736921,-1.25
1630573736937,-0.98
1630573736953,-0.61
1630573736968,-0.26
1630573736984,-0.0
1630573737000,0.09
1630573737015,-0.01
1630573737031,-0.31
1630573737046,-0.83
1630573737062,-1.52
1630573737078,-2.29
1630573737093,-3.04
1630573737109,-3.67
1630573737125,-4.09
1630573737140,-4.34
1630573737156,-4.47
1630573737171,-4.62
1630573737187,-4.93
1630573737203,-5.5
1630573737218,-6.32
1630573737234,-7.26
1630573737250,-8.1
1630573737265,-8.58
1630573737281,-8.51
1630573737296,-7.84
1630573737312,-6.66
1630573737328,-5.19
1630573737343,-3.66
1630573737359,-2.32
1630573737375,-1.31
1630573737390,-0.69
1630573737406,-0.41
1630573737421,-0.35
1630573737437,-0.32
1630573737453,-0.17
1630573737468,0.22
1630573737484,0.83
1630573737500,1.52
1630573737515,2.13
1630573737531,2.51
1630573737546,2.63
1630573737562,2.54
1630573737578,2.38
1630573737593,2.24
1630573737609,2.17
1630573737625,2.15
1630573737640,2.16
1630573737656,2.2
1630573737671,2.26
1630573737687,2.36
1630573737703,2.49
1630573737718,2.58
1630573737734,2.58
1630573737750,2.44
1630573737765,2.19
1630573737781,1.89
1630573737796,1.61
1630573737812,1.37
1630573737828,1.16
1630573737843,0.98
1630573737859,0.8
1630573737875,0.63
1630573737890,0.53
1630573737906,0.49
1630573737921,0.5
1630573737937,0.54
1630573737953,0.52
1630573737968,0.41
1630573737984,0.18
1630573738000,-0.15
1630573738015,-0.56
1630573738031,-1.0
1630573738046,-1.41
1630573738062,-1.74
1630573738078,-1.97
1630573738093,-2.11
1630573738109,-2.23
1630573738125,-2.38
1630573738140,-2.61
1630573738156,-2.9
1630573738171,-3.22
1630573738187,-3.54
1630573738203,-3.83
1630573738218,-4.09
1630573738234,-4.36
1630573738250,-4.64
1630573738265,-4.89
1630573738281,-5.08
1630573738296,-5.11
1630573738312,-4.94
1630573738328,-4.55
1630573738343,-3.97
1630573738359,-3.24
1630573738375,-2.38
1630573738390,-1.4
1630573738406,-0.3
1630573738421,0.9
1630573738437,2.18
1630573738453,3.46
1630573738468,4.64
1630573738484,5.65
1630573738500,6.43
1630573738515,6.95
1630573738531,7.26
1630573738546,7.42
1630573738562,7.52
1630573738578,7.6
1630573738593,7.68
1630573738609,7.71
1630573738625,7.67
1630573738640,7.57
1630573738656,7.45
1630573738671,7.37
1630573738687,7.36
1630573738703,7.37
1630573738718,7.32
1630573738734,7.13
1630573738750,6.78
1630573738765,6.34
1630573738781,5.87
1630573738796,5.44
1630573738812,5.04
1630573738828,4.64
1630573738843,4.19
1630573738859,3.69
1630573738875,3.16
1630573738890,2.64
1630573738906,2.15
1630573738921,1.68
1630573738937,1.22
1630573738953,0.75
1630573738968,0.26
1630573738984,-0.25
1630573739000,-0.84
1630573739015,-1.52
1630573739031,-2.27
1630573739046,-3.02
1630573739062,-3.68
1630573739078,-4.2
1630573739093,-4.58
1630573739109,-4.89
1630573739125,-5.21
1630573739140,-5.55
1630573739156,-5.89
1630573739171,-6.18
1630573739187,-6.44
1630573739203,-6.75
1630573739218,-7.17
1630573739234,-7.7
1630573739250,-8.23
1630573739265,-8.54
1630573739281,-8.4
1630573739296,-7.7
1630573739312,-6.53
1630573739328,-5.11
1630573739343,-3.71
1630573739359,-2.55
1630573739375,-1.69
1630573739390,-1.05
1630573739406,-0.49
1630573739421,0.18
1630573739437,1.03
1630573739453,2.06
1630573739468,3.18
1630573739484,4.27
1630573739500,5.25
1630573739515,6.04
1630573739531,6.64
1630573739546,7.02
1630573739562,7.17
1630573739578,7.09
1630573739593,6.8
1630573739609,6.35
1630573739625,5.87
1630573739640,5.46
1630573739656,5.24
1630573739671,5.21
1630573739687,5.31
1630573739703,5.4
1630573739718,5.3
1630573739734,4.9
1630573739750,4.19
1630573739765,3.24
1630573739781,2.22
1630573739796,1.32
1630573739812,0.7
1630573739828,0.41
1630573739843,0.4
1630573739859,0.56
1630573739875,0.74
1630573739890,0.8
1630573739906,0.69
1630573739921,0.4
1630573739937,-0.03
1630573739953,-0.53
1630573739968,-1.01
1630573739984,-1.4
1630573740000,-1.65
1630573740015,-1.77
1630573740031,-1.8
1630573740046,-1.84
1630573740062,-2.0
1630573740078,-2.36
1630573740093,-2.94
1630573740109,-3.67
1630573740125,-4.44
1630573740140,-5.1
1630573740156,-5.61
1630573740171,-6.0
1630573740187,-6.38
1630573740203,-6.86
1630573740218,-7.47
1630573740234,-8.09
1630573740250,-8.55
1630573740265,-8.66
1630573740281,-8.35
1630573740296,-7.68
1630573740312,-6.76
1630573740328,-5.79
1630573740343,-4.88
1630573740359,-4.07
1630573740375,-3.36
1630573740390,-2.72
1630573740406,-2.06
1630573740421,-1.32
1630573740437,-0.39
1630573740453,0.75
1630573740468,2.08
1630573740484,3.45
1630573740500,4.7
1630573740515,5.67
1630573740531,6.25
1630573740546,6.47
1630573740562,6.41
1630573740578,6.23
1630573740593,6.05
1630573740609,5.95
1630573740625,5.96
1630573740640,6.06
1630573740656,6.18
1630573740671,6.25
1630573740687,6.18
1630573740703,5.92
1630573740718,5.45
1630573740734,4.81
1630573740750,4.09
1630573740765,3.39
1630573740781,2.79
1630573740796,2.36
1630573740812,2.11
1630573740828,2.0
1630573740843,1.97
1630573740859,1.95
1630573740875,1.91
1630573740890,1.83
1630573740906,1.66
1630573740921,1.37
1630573740937,0.91
1630573740953,0.27
1630573740968,-0.5
1630573740984,-1.27
1630573741000,-1.88
1630573741015,-2.22
1630573741031,-2.29
1630573741046,-2.19
1630573741062,-2.14
1630573741078,-2.28
1630573741093,-2.68
1630573741109,-3.28
1630573741125,-3.93
1630573741140,-4.5
1630573741156,-4.94
1630573741171,-5.27
1630573741187,-5.59
1630573741203,-5.93
1630573741218,-6.32
1630573741234,-6.71
1630573741250,-7.1
1630573741265,-7.46
1630573741281,-7.82
1630573741296,-8.17
1630573741312,-8.48
1630573741328,-8.62
1630573741343,-8.48
1630573741359,-7.96
1630573741375,-7.05
1630573741390,-5.84
1630573741406,-4.52
1630573741421,-3.24
1630573741437,-2.12
1630573741453,-1.17
1630573741468,-0.32
1630573741484,0.52
1630573741500,1.38
1630573741515,2.24
1630573741531,3.03
1630573741546,3.66
1630573741562,4.11
1630573741578,4.4
1630573741593,4.57
1630573741609,4.66
1630573741625,4.65
1630573741640,4.54
1630573741656,4.3
1630573741671,3.97
1630573741687,3.59
1630573741703,3.21
1630573741718,2.88
1630573741734,2.61
1630573741750,2.36
1630573741765,2.11
1630573741781,1.81
1630573741796,1.45
1630573741812,1.03
1630573741828,0.59
1630573741843,0.19
1630573741859,-0.13
1630573741875,-0.34
1630573741890,-0.43
1630573741906,-0.43
1630573741921,-0.37
1630573741937,-0.32
1630573741953,-0.33
1630573741968,-0.43
1630573741984,-0.68
1630573742000,-1.06
1630573742015,-1.56
1630573742031,-2.08
1630573742046,-2.56
1630573742062,-2.91
1630573742078,-3.1
1630573742093,-3.16
1630573742109,-3.13
1630573742125,-3.07
1630573742140,-3.05
1630573742156,-3.09
1630573742171,-3.2
1630573742187,-3.4
1630573742203,-3.65
1630573742218,-3.93
1630573742234,-4.21
1630573742250,-4.46
1630573742265,-4.65
1630573742281,-4.77
1630573742296,-4.79
1630573742312,-4.66
1630573742328,-4.34
1630573742343,-3.79
1630573742359,-3.03
1630573742375,-2.1
1630573742390,-1.08
1630573742406,-0.04
1630573742421,1.03
1630573742437,2.13
1630573742453,3.29
1630573742468,4.44
1630573742484,5.5
1630573742500,6.37
1630573742515,6.99
1630573742531,7.42
1630573742546,7.75
1630573742562,8.05
1630573742578,8.32
1630573742593,8.47
1630573742609,8.42
1630573742625,8.09
1630573742640,7.55
1630573742656,6.94
1630573742671,6.43
1630573742687,6.12
1630573742703,6.0
1630573742718,5.95
1630573742734,5.82
1630573742750,5.56
1630573742765,5.17
1630573742781,4.77
1630573742796,4.5
1630573742812,4.4
1630573742828,4.39
1630573742843,4.29
1630573742859,3.95
1630573742875,3.32
1630573742890,2.51
1630573742906,1.7
1630573742921,1.08
1630573742937,0.7
1630573742953,0.47
1630573742968,0.25
1630573742984,-0.07
1630573743000,-0.49
1630573743015,-0.92
1630573743031,-1.27
1630573743046,-1.5
1630573743062,-1.66
1630573743078,-1.83
1630573743093,-2.1
1630573743109,-2.48
1630573743125,-2.94
1630573743140,-3.39
1630573743156,-3.76
1630573743171,-4.03
1630573743187,-4.25
1630573743203,-4.52
1630573743218,-4.97
1630573743234,-5.63
1630573743250,-6.45
1630573743265,-7.26
1630573743281,-7.84
1630573743296,-8.04
1630573743312,-7.82
1630573743328,-7.27
1630573743343,-6.57
1630573743359,-5.86
1630573743375,-5.23
1630573743390,-4.65
1630573743406,-4.08
1630573743421,-3.44
1630573743437,-2.73
1630573743453,-1.94
1630573743468,-1.07
1630573743484,-0.16
1630573743500,0.78
1630573743515,1.68
1630573743531,2.46
1630573743546,3.04
1630573743562,3.38
1630573743578,3.53
1630573743593,3.57
1630573743609,3.64
1630573743625,3.79
1630573743640,4.08
1630573743656,4.43
1630573743671,4.74
1630573743687,4.92
1630573743703,4.9
1630573743718,4.68
1630573743734,4.36
1630573743750,4.05
1630573743765,3.85
1630573743781,3.78
1630573743796,3.81
1630573743812,3.86
1630573743828,3.88
1630573743843,3.85
1630573743859,3.82
1630573743875,3.83
1630573743890,3.86
1630573743906,3.85
1630573743921,3.69
1630573743937,3.32
1630573743953,2.73
1630573743968,2.0
1630573743984,1.25
1630573744000,0.58
1630573744015,0.07
1630573744031,-0.29
1630573744046,-0.52
1630573744062,-0.67
1630573744078,-0.83
1630573744093,-1.07
1630573744109,-1.49
1630573744125,-2.15
1630573744140,-3.01
1630573744156,-3.98
1630573744171,-4.89
1630573744187,-5.62
1630573744203,-6.08
1630573744218,-6.31
1630573744234,-6.38
1630573744250,-6.42
1630573744265,-6.52
1630573744281,-6.74
1630573744296,-7.08
1630573744312,-7.54
1630573744328,-8.05
1630573744343,-8.55
1630573744359,-8.89
1630573744375,-8.92
1630573744390,-8.51
1630573744406,-7.64
1630573744421,-6.39
1630573744437,-4.98
1630573744453,-3.65
1630573744468,-2.54
1630573744484,-1.72
1630573744500,-1.1
1630573744515,-0.58
1630573744531,-0.05
1630573744546,0.5
1630573744562,1.05
1630573744578,1.56
1630573744593,2.03
1630573744609,2.53
1630573744625,3.12
1630573744640,3.8
1630573744656,4.48
1630573744671,4.97
1630573744687,5.14
1630573744703,4.92
1630573744718,4.39
1630573744734,3.74
1630573744750,3.18
1630573744765,2.85
1630573744781,2.74
1630573744796,2.78
1630573744812,2.86
1630573744828,2.89
1630573744843,2.87
1630573744859,2.79
1630573744875,2.66
1630573744890,2.46
1630573744906,2.14
1630573744921,1.7
1630573744937,1.15
1630573744953,0.54
1630573744968,-0.06
1630573744984,-0.6
1630573745000,-1.03
1630573745015,-1.32
1630573745031,-1.46
1630573745046,-1.49
1630573745062,-1.45
1630573745078,-1.46
1630573745093,-1.61
1630573745109,-1.96
1630573745125,-2.48
1630573745140,-3.09
1630573745156,-3.65
1630573745171,-4.05
1630573745187,-4.21
1630573745203,-4.15
1630573745218,-3.95
1630573745234,-3.76
1630573745250,-3.73
1630573745265,-3.96
1630573745281,-4.48
1630573745296,-5.22
1630573745312,-6.03
1630573745328,-6.74
1630573745343,-7.17
1630573745359,-7.24
1630573745375,-6.96
1630573745390,-6.39
1630573745406,-5.67
1630573745421,-4.88
1630573745437,-4.11
1630573745453,-3.42
1630573745468,-2.78
1630573745484,-2.14
1630573745500,-1.41
1630573745515,-0.5
1630573745531,0.63
1630573745546,1.91
1630573745562,3.2
1630573745578,4.28
1630573745593,5.01
1630573745609,5.32
1630573745625,5.3
1630573745640,5.11
1630573745656,4.9
1630573745671,4.75
1630573745687,4.62
1630573745703,4.44
1630573745718,4.17
1630573745734,3.81
1630573745750,3.42
1630573745765,3.08
1630573745781,2.86
1630573745796,2.76
1630573745812,2.81
1630573745828,2.99
1630573745843,3.28
1630573745859,3.65
1630573745875,4.07
1630573745890,4.48
1630573745906,4.83
1630573745921,5.08
1630573745937,5.21
1630573745953,5.21
1630573745968,5.07
1630573745984,4.8
1630573746000,4.43
1630573746015,4.0
1630573746031,3.56
1630573746046,3.19
1630573746062,2.91
1630573746078,2.7
1630573746093,2.5
1630573746109,2.24
1630573746125,1.83
1630573746140,1.26
1630573746156,0.52
1630573746171,-0.28
1630573746187,-1.02
1630573746203,-1.59
1630573746218,-1.91
1630573746234,-2.03
1630573746250,-2.06
1630573746265,-2.17
1630573746281,-2.51
1630573746296,-3.17
1630573746312,-4.1
1630573746328,-5.15
1630573746343,-6.14
1630573746359,-6.87
1630573746375,-7.23
1630573746390,-7.2
1630573746406,-6.81
1630573746421,-6.14
1630573746437,-5.26
1630573746453,-4.28
1630573746468,-3.26
1630573746484,-2.28
1630573746500,-1.38
1630573746515,-0.58
1630573746531,0.16
1630573746546,0.9
1630573746562,1.68
1630573746578,2.51
1630573746593,3.32
1630573746609,4.0
1630573746625,4.45
1630573746640,4.62
1630573746656,4.58
1630573746671,4.44
1630573746687,4.36
1630573746703,4.38
1630573746718,4.48
1630573746734,4.54
1630573746750,4.49
1630573746765,4.31
1630573746781,4.07
1630573746796,3.89
1630573746812,3.86
1630573746828,4.01
1630573746843,4.3
1630573746859,4.6
1630573746875,4.8
1630573746890,4.81
1630573746906,4.59
1630573746921,4.18
1630573746937,3.64
1630573746953,3.07
1630573746968,2.55
1630573746984,2.16
1630573747000,1.91
1630573747015,1.79
1630573747031,1.7
1630573747046,1.54
1630573747062,1.21
1630573747078,0.65
1630573747093,-0.1
1630573747109,-0.96
1630573747125,-1.79
1630573747140,-2.51
1630573747156,-3.06
1630573747171,-3.45
1630573747187,-3.73
1630573747203,-3.95
1630573747218,-4.15
1630573747234,-4.37
1630573747250,-4.63
1630573747265,-4.95
1630573747281,-5.35
1630573747296,-5.83
1630573747312,-6.42
1630573747328,-7.14
1630573747343,-7.97
1630573747359,-8.8
1630573747375,-9.46
1630573747390,-9.71
1630573747406,-9.38
1630573747421,-8.44
1630573747437,-7.07
1630573747453,-5.55
1630573747468,-4.19
1630573747484,-3.14
1630573747500,-2.4
1630573747515,-1.84
1630573747531,-1.31
1630573747546,-0.75
1630573747562,-0.16
1630573747578,0.43
1630573747593,1.03
1630573747609,1.69
1630573747625,2.46
1630573747640,3.31
1630573747656,4.14
1630573747671,4.84
1630573747687,5.3
1630573747703,5.49
1630573747718,5.43
1630573747734,5.21
1630573747750,4.94
1630573747765,4.73
1630573747781,4.68
1630573747796,4.84
1630573747812,5.21
1630573747828,5.69
1630573747843,6.14
1630573747859,6.44
1630573747875,6.52
1630573747890,6.43
1630573747906,6.27
1630573747921,6.08
1630573747937,5.89
1630573747953,5.67
1630573747968,5.39
1630573747984,5.09
1630573748000,4.84
1630573748015,4.66
1630573748031,4.54
1630573748046,4.4
1630573748062,4.1
1630573748078,3.55
1630573748093,2.74
1630573748109,1.75
1630573748125,0.75
1630573748140,-0.11
1630573748156,-0.73
1630573748171,-1.07
1630573748187,-1.22
1630573748203,-1.3
1630573748218,-1.45
1630573748234,-1.75
1630573748250,-2.27
1630573748265,-2.97
1630573748281,-3.79
1630573748296,-4.65
1630573748312,-5.47
1630573748328,-6.18
1630573748343,-6.74
1630573748359,-7.13
1630573748375,-7.38
1630573748390,-7.55
1630573748406,-7.7
1630573748421,-7.87
1630573748437,-8.02
1630573748453,-8.08
1630573748468,-7.95
1630573748484,-7.59
1630573748500,-6.96
1630573748515,-6.12
1630573748531,-5.11
1630573748546,-3.98
1630573748562,-2.78
1630573748578,-1.55
1630573748593,-0.33
1630573748609,0.81
1630573748625,1.8
1630573748640,2.62
1630573748656,3.23
1630573748671,3.66
1630573748687,3.96
1630573748703,4.16
1630573748718,4.3
1630573748734,4.35
1630573748750,4.31
1630573748765,4.13
1630573748781,3.84
1630573748796,3.5
1630573748812,3.22
1630573748828,3.07
1630573748843,3.02
1630573748859,2.98
1630573748875,2.8
1630573748890,2.38
1630573748906,1.72
1630573748921,0.96
1630573748937,0.31
1630573748953,-0.04
1630573748968,-0.0
1630573748984,0.35
1630573749000,0.86
1630573749015,1.29
1630573749031,1.47
1630573749046,1.29
1630573749062,0.8
1630573749078,0.09
1630573749093,-0.69
1630573749109,-1.44
1630573749125,-2.1
1630573749140,-2.64
1630573749156,-3.09
1630573749171,-3.41
1630573749187,-3.63
1630573749203,-3.73
1630573749218,-3.75
1630573749234,-3.78
1630573749250,-3.92
1630573749265,-4.24
1630573749281,-4.71
1630573749296,-5.26
1630573749312,-5.75
1630573749328,-6.07
1630573749343,-6.16
1630573749359,-6.08
1630573749375,-5.96
1630573749390,-5.94
1630573749406,-6.12
1630573749421,-6.45
1630573749437,-6.83
1630573749453,-7.07
1630573749468,-7.0
1630573749484,-6.53
1630573749500,-5.67
1630573749515,-4.49
1630573749531,-3.11
1630573749546,-1.61
1630573749562,-0.11
1630573749578,1.29
1630573749593,2.52
1630573749609,3.53
1630573749625,4.34
1630573749640,5.04
1630573749656,5.78
1630573749671,6.64
1630573749687,7.61
1630573749703,8.6
1630573749718,9.42
1630573749734,9.97
1630573749750,10.2
1630573749765,10.2
1630573749781,10.1
1630573749796,10.0
1630573749812,9.92
1630573749828,9.79
1630573749843,9.54
1630573749859,9.13
1630573749875,8.59
1630573749890,8.01
1630573749906,7.45
1630573749921,6.93
1630573749937,6.41
1630573749953,5.82
1630573749968,5.15
1630573749984,4.41
1630573750000,3.67
1630573750015,3.03
1630573750031,2.54
1630573750046,2.21
1630573750062,1.96
1630573750078,1.67
1630573750093,1.23
1630573750109,0.57
1630573750125,-0.23
1630573750140,-1.04
1630573750156,-1.68
1630573750171,-2.06
1630573750187,-2.2
1630573750203,-2.22
1630573750218,-2.25
1630573750234,-2.36
1630573750250,-2.58
1630573750265,-2.87
1630573750281,-3.21
1630573750296,-3.62
1630573750312,-4.13
1630573750328,-4.77
1630573750343,-5.48
1630573750359,-6.17
1630573750375,-6.75
1630573750390,-7.16
1630573750406,-7.4
1630573750421,-7.47
1630573750437,-7.37
1630573750453,-7.07
1630573750468,-6.55
1630573750484,-5.83
1630573750500,-4.99
1630573750515,-4.13
1630573750531,-3.34
1630573750546,-2.62
1630573750562,-1.92
1630573750578,-1.16
1630573750593,-0.28
1630573750609,0.7
1630573750625,1.69
1630573750640,2.58
1630573750656,3.26
1630573750671,3.72
1630573750687,3.99
1630573750703,4.17
1630573750718,4.34
1630573750734,4.55
1630573750750,4.77
1630573750765,4.93
1630573750781,4.96
1630573750796,4.81
1630573750812,4.5
1630573750828,4.07
1630573750843,3.58
1630573750859,3.09
1630573750875,2.61
1630573750890,2.1
1630573750906,1.57
1630573750921,1.01
1630573750937,0.48
1630573750953,0.08
1630573750968,-0.12
1630573750984,-0.13
1630573751000,-0.04
1630573751015,-0.01
1630573751031,-0.18
1630573751046,-0.58
1630573751062,-1.1
1630573751078,-1.58
1630573751093,-1.85
1630573751109,-1.89
1630573751125,-1.77
1630573751140,-1.62
1630573751156,-1.54
1630573751171,-1.53
1630573751187,-1.58
1630573751203,-1.68
1630573751218,-1.86
1630573751234,-2.18
1630573751250,-2.65
1630573751265,-3.2
1630573751281,-3.71
1630573751296,-4.05
1630573751312,-4.18
1630573751328,-4.14
1630573751343,-4.03
1630573751359,-3.93
1630573751375,-3.89
1630573751390,-3.92
1630573751406,-4.04
1630573751421,-4.26
1630573751437,-4.58
1630573751453,-4.95
1630573751468,-5.25
1630573751484,-5.36
1630573751500,-5.16
1630573751515,-4.67
1630573751531,-3.94
1630573751546,-3.03
1630573751562,-1.98
1630573751578,-0.82
1630573751593,0.41
1630573751609,1.64
1630573751625,2.7
1630573751640,3.47
1630573751656,3.88
1630573751671,3.96
1630573751687,3.83
1630573751703,3.68
1630573751718,3.63
1630573751734,3.76
1630573751750,4.04
1630573751765,4.41
1630573751781,4.8
1630573751796,5.12
1630573751812,5.35
1630573751828,5.47
1630573751843,5.49
1630573751859,5.45
1630573751875,5.33
1630573751890,5.16
1630573751906,4.94
1630573751921,4.7
1630573751937,4.44
1630573751953,4.19
1630573751968,3.9
1630573751984,3.5
1630573752000,2.94
1630573752015,2.23
1630573752031,1.44
1630573752046,0.72
1630573752062,0.17
1630573752078,-0.14
1630573752093,-0.28
1630573752109,-0.36
1630573752125,-0.54
1630573752140,-0.92
1630573752156,-1.52
1630573752171,-2.32
1630573752187,-3.22
1630573752203,-4.16
1630573752218,-5.1
1630573752234,-6.03
1630573752250,-6.96
1630573752265,-7.82
1630573752281,-8.55
1630573752296,-9.04
1630573752312,-9.22
1630573752328,-9.16
1630573752343,-9.01
1630573752359,-8.97
1630573752375,-9.19
1630573752390,-9.69
1630573752406,-10.35
1630573752421,-11.02
1630573752437,-11.55
1630573752453,-11.88
1630573752468,-11.98
1630573752484,-11.84
1630573752500,-11.46
1630573752515,-10.84
1630573752531,-10.01
1630573752546,-9.04
1630573752562,-7.98
1630573752578,-6.85
1630573752593,-5.62
1630573752609,-4.28
1630573752625,-2.82
1630573752640,-1.31
1630573752656,0.16
1630573752671,1.5
1630573752687,2.68
1630573752703,3.75
1630573752718,4.76
1630573752734,5.72
1630573752750,6.63
1630573752765,7.41
1630573752781,8.01
1630573752796,8.46
1630573752812,8.79
1630573752828,9.1
1630573752843,9.44
1630573752859,9.84
1630573752875,10.28
1630573752890,10.67
1630573752906,10.93
1630573752921,10.95
1630573752937,10.69
1630573752953,10.19
1630573752968,9.55
1630573752984,8.91
1630573753000,8.39
1630573753015,8.06
1630573753031,7.89
1630573753046,7.8
1630573753062,7.66
1630573753078,7.39
1630573753093,6.95
1630573753109,6.34
1630573753125,5.57
1630573753140,4.72
1630573753156,3.84
1630573753171,3.01
1630573753187,2.31
1630573753203,1.78
1630573753218,1.42
1630573753234,1.16
1630573753250,0.9
1630573753265,0.56
1630573753281,0.14
1630573753296,-0.35
1630573753312,-0.84
1630573753328,-1.28
1630573753343,-1.66
1630573753359,-2.04
1630573753375,-2.51
1630573753390,-3.13
1630573753406,-3.91
1630573753421,-4.79
1630573753437,-5.73
1630573753453,-6.63
1630573753468,-7.47
1630573753484,-8.2
1630573753500,-8.78
1630573753515,-9.14
1630573753531,-9.18
1630573753546,-8.86
1630573753562,-8.19
1630573753578,-7.26
1630573753593,-6.21
1630573753609,-5.16
1630573753625,-4.17
1630573753640,-3.21
1630573753656,-2.22
1630573753671,-1.2
1630573753687,-0.19
1630573753703,0.71
1630573753718,1.41
1630573753734,1.88
1630573753750,2.19
1630573753765,2.46
1630573753781,2.83
1630573753796,3.34
1630573753812,3.96
1630573753828,4.59
1630573753843,5.11
1630573753859,5.49
1630573753875,5.75
1630573753890,5.96
1630573753906,6.15
1630573753921,6.29
1630573753937,6.32
1630573753953,6.2
1630573753968,5.96
1630573753984,5.69
1630573754000,5.49
1630573754015,5.41
1630573754031,5.38
1630573754046,5.33
1630573754062,5.18
1630573754078,4.94
1630573754093,4.68
1630573754109,4.43
1630573754125,4.16
1630573754140,3.8
1630573754156,3.26
1630573754171,2.53
1630573754187,1.73
1630573754203,1.01
1630573754218,0.5
1630573754234,0.2
1630573754250,0.01
1630573754265,-0.23
1630573754281,-0.64
1630573754296,-1.22
1630573754312,-1.91
1630573754328,-2.58
1630573754343,-3.15
1630573754359,-3.61
1630573754375,-4.04
1630573754390,-4.52
1630573754406,-5.13
1630573754421,-5.91
1630573754437,-6.8
1630573754453,-7.7
1630573754468,-8.46
1630573754484,-8.94
1630573754500,-9.05
1630573754515,-8.77
1630573754531,-8.11
1630573754546,-7.15
1630573754562,-5.97
1630573754578,-4.64
1630573754593,-3.23
1630573754609,-1.8
1630573754625,-0.45
1630573754640,0.74
1630573754656,1.75
1630573754671,2.59
1630573754687,3.38
1630573754703,4.18
1630573754718,5.04
1630573754734,5.9
1630573754750,6.65
1630573754765,7.16
1630573754781,7.37
1630573754796,7.3
1630573754812,7.04
1630573754828,6.69
1630573754843,6.33
1630573754859,5.98
1630573754875,5.66
1630573754890,5.39
1630573754906,5.16
1630573754921,4.97
1630573754937,4.78
1630573754953,4.53
1630573754968,4.16
1630573754984,3.63
1630573755000,2.97
1630573755015,2.24
1630573755031,1.54
1630573755046,0.96
1630573755062,0.53
1630573755078,0.23
1630573755093,-0.03
1630573755109,-0.33
1630573755125,-0.7
1630573755140,-1.17
1630573755156,-1.72
1630573755171,-2.31
1630573755187,-2.89
1630573755203,-3.44
1630573755218,-3.91
1630573755234,-4.28
1630573755250,-4.53
1630573755265,-4.66
1630573755281,-4.7
1630573755296,-4.72
1630573755312,-4.82
1630573755328,-5.07
1630573755343,-5.5
1630573755359,-6.05
1630573755375,-6.65
1630573755390,-7.21
1630573755406,-7.69
1630573755421,-8.12
1630573755437,-8.52
1630573755453,-8.92
1630573755468,-9.25
1630573755484,-9.46
1630573755500,-9.47
1630573755515,-9.28
1630573755531,-8.92
1630573755546,-8.41
1630573755562,-7.74
1630573755578,-6.84
1630573755593,-5.67
1630573755609,-4.25
1630573755625,-2.71
1630573755640,-1.21
1630573755656,0.11
1630573755671,1.22
1630573755687,2.18
1630573755703,3.08
1630573755718,4.01
1630573755734,4.94
1630573755750,5.76
1630573755765,6.32
1630573755781,6.54
1630573755796,6.44
1630573755812,6.14
1630573755828,5.8
1630573755843,5.52
1630573755859,5.35
1630573755875,5.18
1630573755890,4.93
1630573755906,4.54
1630573755921,4.06
1630573755937,3.62
1630573755953,3.31
1630573755968,3.16
1630573755984,3.05
1630573756000,2.86
1630573756015,2.48
1630573756031,2.01
1630573756046,1.62
1630573756062,1.53
1630573756078,1.8
1630573756093,2.26
1630573756109,2.66
1630573756125,2.73
1630573756140,2.4
1630573756156,1.78
1630573756171,1.08
1630573756187,0.5
1630573756203,0.06
1630573756218,-0.34
1630573756234,-0.81
1630573756250,-1.39
1630573756265,-1.99
1630573756281,-2.45
1630573756296,-2.67
1630573756312,-2.64
1630573756328,-2.51
1630573756343,-2.47
1630573756359,-2.68
1630573756375,-3.18
1630573756390,-3.93
1630573756406,-4.78
1630573756421,-5.53
1630573756437,-6.04
1630573756453,-6.28
1630573756468,-6.3
1630573756484,-6.26
1630573756500,-6.32
1630573756515,-6.57
1630573756531,-6.95
1630573756546,-7.32
1630573756562,-7.48
1630573756578,-7.29
1630573756593,-6.7
1630573756609,-5.77
1630573756625,-4.61
1630573756640,-3.35
1630573756656,-2.05
1630573756671,-0.79
1630573756687,0.41
1630573756703,1.47
1630573756718,2.37
1630573756734,3.11
1630573756750,3.72
1630573756765,4.26
1630573756781,4.82
1630573756796,5.39
1630573756812,5.98
1630573756828,6.5
1630573756843,6.87
1630573756859,7.03
1630573756875,6.96
1630573756890,6.71
1630573756906,6.39
1630573756921,6.12
1630573756937,6.02
1630573756953,6.15
1630573756968,6.48
1630573756984,6.92
1630573757000,7.34
1630573757015,7.62
1630573757031,7.68
1630573757046,7.53
1630573757062,7.22
1630573757078,6.83
1630573757093,6.45
1630573757109,6.14
1630573757125,5.9
1630573757140,5.69
1630573757156,5.45
1630573757171,5.13
1630573757187,4.7
1630573757203,4.19
1630573757218,3.63
1630573757234,3.07
1630573757250,2.58
1630573757265,2.18
1630573757281,1.91
1630573757296,1.72
1630573757312,1.57
1630573757328,1.35
1630573757343,1.01
1630573757359,0.5
1630573757375,-0.17
1630573757390,-0.96
1630573757406,-1.79
1630573757421,-2.61
1630573757437,-3.4
1630573757453,-4.13
1630573757468,-4.82
1630573757484,-5.49
1630573757500,-6.14
1630573757515,-6.76
1630573757531,-7.3
1630573757546,-7.68
1630573757562,-7.81
1630573757578,-7.69
1630573757593,-7.35
1630573757609,-6.9
1630573757625,-6.42
1630573757640,-5.94
1630573757656,-5.42
1630573757671,-4.79
1630573757687,-4.02
1630573757703,-3.12
1630573757718,-2.18
1630573757734,-1.3
1630573757750,-0.54
1630573757765,0.07
1630573757781,0.59
1630573757796,1.05
1630573757812,1.46
1630573757828,1.8
1630573757843,2.01
1630573757859,2.05
1630573757875,1.9
1630573757890,1.66
1630573757906,1.43
1630573757921,1.36
1630573757937,1.52
1630573757953,1.86
1630573757968,2.25
1630573757984,2.55
1630573758000,2.63
1630573758015,2.5
1630573758031,2.27
1630573758046,2.07
1630573758062,2.01
1630573758078,2.09
1630573758093,2.24
1630573758109,2.33
1630573758125,2.28
1630573758140,2.08
1630573758156,1.77
1630573758171,1.43
1630573758187,1.14
1630573758203,0.94
1630573758218,0.83
1630573758234,0.8
1630573758250,0.81
1630573758265,0.81
1630573758281,0.75
1630573758296,0.61
1630573758312,0.39
1630573758328,0.12
1630573758343,-0.12
1630573758359,-0.25
1630573758375,-0.25
1630573758390,-0.19
1630573758406,-0.16
1630573758421,-0.23
1630573758437,-0.47
1630573758453,-0.89
1630573758468,-1.5
1630573758484,-2.32
1630573758500,-3.32
1630573758515,-4.42
1630573758531,-5.4
1630573758546,-6.04
1630573758562,-6.14
1630573758578,-5.71
1630573758593,-4.9
1630573758609,-3.96
1630573758625,-3.11
1630573758640,-2.43
1630573758656,-1.86
1630573758671,-1.29
1630573758687,-0.61
1630573758703,0.16
1630573758718,0.94
1630573758734,1.62
1630573758750,2.19
1630573758765,2.69
1630573758781,3.18
1630573758796,3.72
1630573758812,4.27
1630573758828,4.76
1630573758843,5.08
1630573758859,5.17
1630573758875,5.07
1630573758890,4.88
1630573758906,4.74
1630573758921,4.75
1630573758937,4.95
1630573758953,5.26
1630573758968,5.59
1630573758984,5.82
1630573759000,5.89
1630573759015,5.76
1630573759031,5.44
1630573759046,4.95
1630573759062,4.31
1630573759078,3.57
1630573759093,2.84
1630573759109,2.18
1630573759125,1.68
1630573759140,1.33
1630573759156,1.05
1630573759171,0.75
1630573759187,0.33
1630573759203,-0.2
1630573759218,-0.8
1630573759234,-1.37
1630573759250,-1.87
1630573759265,-2.34
1630573759281,-2.85
1630573759296,-3.48
1630573759312,-4.23
1630573759328,-5.08
1630573759343,-5.92
1630573759359,-6.66
1630573759375,-7.25
1630573759390,-7.69
1630573759406,-8.01
1630573759421,-8.27
1630573759437,-8.53
1630573759453,-8.89
1630573759468,-9.4
1630573759484,-10.08
1630573759500,-10.85
1630573759515,-11.57
1630573759531,-12.08
1630573759546,-12.25
1630573759562,-12.04
1630573759578,-11.47
1630573759593,-10.58
1630573759609,-9.43
1630573759625,-8.04
1630573759640,-6.45
1630573759656,-4.76
1630573759671,-3.08
1630573759687,-1.51
1630573759703,-0.11
1630573759718,1.12
1630573759734,2.23
1630573759750,3.27
1630573759765,4.25
1630573759781,5.15
1630573759796,5.96
1630573759812,6.65
1630573759828,7.19
1630573759843,7.55
1630573759859,7.66
1630573759875,7.47
1630573759890,6.99
1630573759906,6.33
1630573759921,5.67
1630573759937,5.15
1630573759953,4.86
1630573759968,4.71
1630573759984,4.58
1630573760000,4.33
1630573760015,3.97
1630573760031,3.6
1630573760046,3.36
1630573760062,3.35
1630573760078,3.48
1630573760093,3.59
1630573760109,3.5
1630573760125,3.11
1630573760140,2.49
1630573760156,1.8
1630573760171,1.2
1630573760187,0.76
1630573760203,0.48
1630573760218,0.26
1630573760234,0.02
1630573760250,-0.29
1630573760265,-0.7
1630573760281,-1.21
1630573760296,-1.76
1630573760312,-2.28
1630573760328,-2.66
1630573760343,-2.81
1630573760359,-2.77
1630573760375,-2.65
1630573760390,-2.62
1630573760406,-2.82
1630573760421,-3.23
1630573760437,-3.78
1630573760453,-4.31
1630573760468,-4.77
1630573760484,-5.18
1630573760500,-5.64
1630573760515,-6.16
1630573760531,-6.67
1630573760546,-7.0
1630573760562,-6.93
1630573760578,-6.36
1630573760593,-5.32
1630573760609,-3.94
1630573760625,-2.41
1630573760640,-0.89
1630573760656,0.53
1630573760671,1.81
1630573760687,2.95
1630573760703,4.01
1630573760718,5.0
1630573760734,5.97
1630573760750,6.91
1630573760765,7.82
1630573760781,8.64
1630573760796,9.32
1630573760812,9.82
1630573760828,10.14
1630573760843,10.28
1630573760859,10.22
1630573760875,9.93
1630573760890,9.39
1630573760906,8.67
1630573760921,7.86
1630573760937,7.1
1630573760953,6.51
1630573760968,6.09
1630573760984,5.79
1630573761000,5.52
1630573761015,5.2
1630573761031,4.81
1630573761046,4.39
1630573761062,3.97
1630573761078,3.55
1630573761093,3.12
1630573761109,2.66
1630573761125,2.2
1630573761140,1.78
1630573761156,1.45
1630573761171,1.2
1630573761187,0.95
1630573761203,0.64
1630573761218,0.2
1630573761234,-0.38
1630573761250,-1.03
1630573761265,-1.69
1630573761281,-2.27
1630573761296,-2.7
1630573761312,-2.94
1630573761328,-3.01
1630573761343,-2.98
1630573761359,-2.96
1630573761375,-3.09
1630573761390,-3.46
1630573761406,-4.12
1630573761421,-5.04
1630573761437,-6.16
1630573761453,-7.34
1630573761468,-8.47
1630573761484,-9.41
1630573761500,-10.01
1630573761515,-10.18
1630573761531,-9.86
1630573761546,-9.1
1630573761562,-8.04
1630573761578,-6.86
1630573761593,-5.79
1630573761609,-4.94
1630573761625,-4.34
1630573761640,-3.9
1630573761656,-3.44
1630573761671,-2.8
1630573761687,-1.89
1630573761703,-0.71
1630573761718,0.6
1630573761734,1.91
1630573761750,3.05
1630573761765,3.94
1630573761781,4.54
1630573761796,4.87
1630573761812,5.0
1630573761828,4.99
1630573761843,4.92
1630573761859,4.85
1630573761875,4.82
1630573761890,4.84
1630573761906,4.9
1630573761921,5.01
1630573761937,5.14
1630573761953,5.27
1630573761968,5.36
1630573761984,5.37
1630573762000,5.25
1630573762015,4.99
1630573762031,4.64
1630573762046,4.28
1630573762062,3.97
1630573762078,3.74
1630573762093,3.56
1630573762109,3.36
1630573762125,3.06
1630573762140,2.63
1630573762156,2.11
1630573762171,1.55
1630573762187,0.97
1630573762203,0.39
1630573762218,-0.24
1630573762234,-0.94
1630573762250,-1.68
1630573762265,-2.39
1630573762281,-2.96
1630573762296,-3.32
1630573762312,-3.5
1630573762328,-3.57
1630573762343,-3.67
1630573762359,-3.93
1630573762375,-4.43
1630573762390,-5.2
1630573762406,-6.19
1630573762421,-7.31
1630573762437,-8.37
1630573762453,-9.21
1630573762468,-9.67
1630573762484,-9.66
1630573762500,-9.19
1630573762515,-8.37
1630573762531,-7.36
1630573762546,-6.27
1630573762562,-5.11
1630573762578,-3.89
1630573762593,-2.58
1630573762609,-1.23
1630573762625,0.03
1630573762640,1.06
1630573762656,1.78
1630573762671,2.21
1630573762687,2.47
1630573762703,2.72
1630573762718,3.08
1630573762734,3.59
1630573762750,4.17
1630573762765,4.7
1630573762781,5.07
1630573762796,5.24
1630573762812,5.24
1630573762828,5.15
1630573762843,5.07
1630573762859,5.03
1630573762875,5.0
1630573762890,4.94
1630573762906,4.8
1630573762921,4.59
1630573762937,4.35
1630573762953,4.07
1630573762968,3.76
1630573762984,3.33
1630573763000,2.72
1630573763015,1.92
1630573763031,0.99
1630573763046,0.07
1630573763062,-0.71
1630573763078,-1.25
1630573763093,-1.59
1630573763109,-1.8
1630573763125,-2.0
1630573763140,-2.28
1630573763156,-2.7
1630573763171,-3.25
1630573763187,-3.88
1630573763203,-4.53
1630573763218,-5.1
1630573763234,-5.52
1630573763250,-5.75
1630573763265,-5.79
1630573763281,-5.68
1630573763296,-5.47
1630573763312,-5.25
1630573763328,-5.09
1630573763343,-5.04
1630573763359,-5.13
1630573763375,-5.36
1630573763390,-5.72
1630573763406,-6.19
1630573763421,-6.76
1630573763437,-7.36
1630573763453,-7.92
1630573763468,-8.3
1630573763484,-8.38
1630573763500,-8.06
1630573763515,-7.37
1630573763531,-6.39
1630573763546,-5.26
1630573763562,-4.13
1630573763578,-3.06
1630573763593,-2.06
1630573763609,-1.1
1630573763625,-0.16
1630573763640,0.73
1630573763656,1.53
1630573763671,2.2
1630573763687,2.73
1630573763703,3.18
1630573763718,3.6
1630573763734,4.07
1630573763750,4.57
1630573763765,5.06
1630573763781,5.43
1630573763796,5.59
1630573763812,5.5
1630573763828,5.21
1630573763843,4.81
1630573763859,4.47
1630573763875,4.28
1630573763890,4.28
1630573763906,4.41
1630573763921,4.59
1630573763937,4.7
1630573763953,4.7
1630573763968,4.58
1630573763984,4.4
1630573764000,4.2
1630573764015,4.01
1630573764031,3.81
1630573764046,3.55
1630573764062,3.16
1630573764078,2.63
1630573764093,2.0
1630573764109,1.32
1630573764125,0.65
1630573764140,-0.0
1630573764156,-0.66
1630573764171,-1.35
1630573764187,-2.06
1630573764203,-2.69
1630573764218,-3.12
1630573764234,-3.28
1630573764250,-3.19
1630573764265,-2.99
1630573764281,-2.85
1630573764296,-2.94
1630573764312,-3.31
1630573764328,-3.92
1630573764343,-4.69
1630573764359,-5.5
1630573764375,-6.28
1630573764390,-7.0
1630573764406,-7.62
1630573764421,-8.12
1630573764437,-8.44
1630573764453,-8.54
1630573764468,-8.4
1630573764484,-7.99
1630573764500,-7.34
1630573764515,-6.48
1630573764531,-5.47
1630573764546,-4.36
1630573764562,-3.21
1630573764578,-2.08
1630573764593,-1.01
1630573764609,-0.0
1630573764625,0.93
1630573764640,1.8
1630573764656,2.63
1630573764671,3.46
1630573764687,4.35
1630573764703,5.3
1630573764718,6.31
1630573764734,7.28
1630573764750,8.07
1630573764765,8.56
1630573764781,8.69
1630573764796,8.48
1630573764812,8.07
1630573764828,7.62
1630573764843,7.28
1630573764859,7.12
1630573764875,7.14
1630573764890,7.28
1630573764906,7.45
1630573764921,7.56
1630573764937,7.55
1630573764953,7.35
1630573764968,6.96
1630573764984,6.44
1630573765000,5.88
1630573765015,5.39
1630573765031,5.02
1630573765046,4.75
1630573765062,4.52
1630573765078,4.23
1630573765093,3.85
1630573765109,3.4
1630573765125,2.97
1630573765140,2.6
1630573765156,2.3
1630573765171,2.03
1630573765187,1.73
1630573765203,1.35
1630573765218,0.85
1630573765234,0.21
1630573765250,-0.57
1630573765265,-1.52
1630573765281,-2.59
1630573765296,-3.71
1630573765312,-4.78
1630573765328,-5.68
1630573765343,-6.36
1630573765359,-6.85
1630573765375,-7.28
1630573765390,-7.84
1630573765406,-8.63
1630573765421,-9.65
1630573765437,-10.77
1630573765453,-11.74
1630573765468,-12.31
1630573765484,-12.29
1630573765500,-11.66
1630573765515,-10.55
1630573765531,-9.15
1630573765546,-7.7
1630573765562,-6.34
1630573765578,-5.1
1630573765593,-3.92
1630573765609,-2.74
1630573765625,-1.52
1630573765640,-0.3
1630573765656,0.84
1630573765671,1.81
1630573765687,2.58
1630573765703,3.18
1630573765718,3.74
1630573765734,4.37
1630573765750,5.11
1630573765765,5.91
1630573765781,6.64
1630573765796,7.15
1630573765812,7.34
1630573765828,7.26
1630573765843,7.03
1630573765859,6.86
1630573765875,6.87
1630573765890,7.1
1630573765906,7.46
1630573765921,7.79
1630573765937,7.94
1630573765953,7.82
1630573765968,7.43
1630573765984,6.87
1630573766000,6.27
1630573766015,5.72
1630573766031,5.26
1630573766046,4.88
1630573766062,4.54
1630573766078,4.18
1630573766093,3.79
1630573766109,3.37
1630573766125,2.88
1630573766140,2.25
1630573766156,1.42
1630573766171,0.42
1630573766187,-0.63
1630573766203,-1.52
1630573766218,-2.1
1630573766234,-2.32
1630573766250,-2.34
1630573766265,-2.42
1630573766281,-2.81
1630573766296,-3.6
1630573766312,-4.66
1630573766328,-5.72
1630573766343,-6.54
1630573766359,-7.01
1630573766375,-7.23
1630573766390,-7.43
1630573766406,-7.8
1630573766421,-8.38
1630573766437,-9.0
1630573766453,-9.43
1630573766468,-9.47
1630573766484,-9.09
1630573766500,-8.42
1630573766515,-7.69
1630573766531,-7.02
1630573766546,-6.41
1630573766562,-5.72
1630573766578,-4.78
1630573766593,-3.56
1630573766609,-2.15
1630573766625,-0.74
1630573766640,0.45
1630573766656,1.36
1630573766671,2.02
1630573766687,2.56
1630573766703,3.09
1630573766718,3.66
1630573766734,4.21
1630573766750,4.65
1630573766765,4.94
1630573766781,5.08
1630573766796,5.16
1630573766812,5.27
1630573766828,5.46
1630573766843,5.7
1630573766859,5.94
1630573766875,6.1
1630573766890,6.1
1630573766906,5.93
1630573766921,5.61
1630573766937,5.2
1630573766953,4.78
1630573766968,4.45
1630573766984,4.27
1630573767000,4.23
1630573767015,4.28
1630573767031,4.29
1630573767046,4.2
1630573767062,3.97
1630573767078,3.65
1630573767093,3.27
1630573767109,2.87
1630573767125,2.43
1630573767140,1.9
1630573767156,1.26
1630573767171,0.54
1630573767187,-0.21
1630573767203,-0.94
1630573767218,-1.63
1630573767234,-2.3
1630573767250,-3.01
1630573767265,-3.81
1630573767281,-4.67
1630573767296,-5.52
1630573767312,-6.26
1630573767328,-6.81
1630573767343,-7.16
1630573767359,-7.37
1630573767375,-7.55
1630573767390,-7.83
1630573767406,-8.31
1630573767421,-8.97
1630573767437,-9.7
1630573767453,-10.36
1630573767468,-10.79
1630573767484,-10.91
1630573767500,-10.72
1630573767515,-10.28
1630573767531,-9.64
1630573767546,-8.83
1630573767562,-7.87
1630573767578,-6.77
1630573767593,-5.59
1630573767609,-4.43
1630573767625,-3.38
1630573767640,-2.51
1630573767656,-1.82
1630573767671,-1.23
1630573767687,-0.64
1630573767703,0.01
1630573767718,0.72
1630573767734,1.45
1630573767750,2.09
1630573767765,2.54
1630573767781,2.76
1630573767796,2.74
1630573767812,2.56
1630573767828,2.36
1630573767843,2.31
1630573767859,2.55
1630573767875,3.16
1630573767890,4.12
1630573767906,5.3
1630573767921,6.53
1630573767937,7.64
1630573767953,8.55
1630573767968,9.19
1630573767984,9.55
1630573768000,9.64
1630573768015,9.43
1630573768031,8.94
1630573768046,8.24
1630573768062,7.43
1630573768078,6.61
1630573768093,5.87
1630573768109,5.22
1630573768125,4.64
1630573768140,4.08
1630573768156,3.51
1630573768171,2.96
1630573768187,2.44
1630573768203,1.99
1630573768218,1.6
1630573768234,1.24
1630573768250,0.87
1630573768265,0.46
1630573768281,-0.02
1630573768296,-0.56
1630573768312,-1.15
1630573768328,-1.74
1630573768343,-2.33
1630573768359,-2.92
1630573768375,-3.54
1630573768390,-4.24
1630573768406,-5.02
1630573768421,-5.85
1630573768437,-6.63
1630573768453,-7.26
1630573768468,-7.63
1630573768484,-7.71
1630573768500,-7.51
1630573768515,-7.06
1630573768531,-6.41
1630573768546,-5.61
1630573768562,-4.68
1630573768578,-3.65
1630573768593,-2.57
1630573768609,-1.47
1630573768625,-0.39
1630573768640,0.63
1630573768656,1.57
1630573768671,2.38
1630573768687,3.05
1630573768703,3.58
1630573768718,3.96
1630573768734,4.24
1630573768750,4.4
1630573768765,4.47
1630573768781,4.45
1630573768796,4.35
1630573768812,4.22
1630573768828,4.12
1630573768843,4.1
1630573768859,4.17
1630573768875,4.29
1630573768890,4.43
1630573768906,4.54
1630573768921,4.63
1630573768937,4.71
1630573768953,4.78
1630573768968,4.8
1630573768984,4.71
1630573769000,4.45
1630573769015,4.01
1630573769031,3.48
1630573769046,3.0
1630573769062,2.73
1630573769078,2.75
1630573769093,3.06
1630573769109,3.53
1630573769125,3.94
1630573769140,4.12
1630573769156,3.95
1630573769171,3.44
1630573769187,2.68
1630573769203,1.85
1630573769218,1.13
1630573769234,0.61
1630573769250,0.32
1630573769265,0.19
1630573769281,0.11
1630573769296,-0.02
1630573769312,-0.24
1630573769328,-0.59
1630573769343,-1.08
1630573769359,-1.71
1630573769375,-2.47
1630573769390,-3.32
1630573769406,-4.21
1630573769421,-5.0
1630573769437,-5.6
1630573769453,-5.88
1630573769468,-5.83
1630573769484,-5.47
1630573769500,-4.9
1630573769515,-4.25
1630573769531,-3.6
1630573769546,-2.99
1630573769562,-2.39
1630573769578,-1.71
1630573769593,-0.88
1630573769609,0.12
1630573769625,1.22
1630573769640,2.31
1630573769656,3.24
1630573769671,3.95
1630573769687,4.41
1630573769703,4.67
1630573769718,4.8
1630573769734,4.88
1630573769750,4.89
1630573769765,4.82
1630573769781,4.66
1630573769796,4.39
1630573769812,4.07
1630573769828,3.77
1630573769843,3.52
1630573769859,3.32
1630573769875,3.16
1630573769890,2.97
1630573769906,2.75
1630573769921,2.51
1630573769937,2.28
1630573769953,2.07
1630573769968,1.92
1630573769984,1.85
1630573770000,1.89
1630573770015,2.04
1630573770031,2.25
1630573770046,2.46
1630573770062,2.53
1630573770078,2.39
1630573770093,2.02
1630573770109,1.5
1630573770125,0.94
1630573770140,0.45
1630573770156,0.03
1630573770171,-0.37
1630573770187,-0.82
1630573770203,-1.31
1630573770218,-1.76
1630573770234,-2.08
1630573770250,-2.2
1630573770265,-2.2
1630573770281,-2.23
1630573770296,-2.45
1630573770312,-2.95
1630573770328,-3.66
1630573770343,-4.47
1630573770359,-5.22
1630573770375,-5.86
1630573770390,-6.45
1630573770406,-7.09
1630573770421,-7.84
1630573770437,-8.67
1630573770453,-9.46
1630573770468,-10.02
1630573770484,-10.22
1630573770500,-10.02
1630573770515,-9.5
1630573770531,-8.77
1630573770546,-7.93
1630573770562,-7.02
1630573770578,-6.02
1630573770593,-4.9
1630573770609,-3.73
1630573770625,-2.6
1630573770640,-1.63
1630573770656,-0.92
1630573770671,-0.44
1630573770687,-0.11
1630573770703,0.19
1630573770718,0.56
1630573770734,0.99
1630573770750,1.45
1630573770765,1.89
1630573770781,2.27
1630573770796,2.64
1630573770812,3.02
1630573770828,3.44
1630573770843,3.86
1630573770859,4.24
1630573770875,4.5
1630573770890,4.62
1630573770906,4.6
1630573770921,4.51
1630573770937,4.41
1630573770953,4.29
1630573770968,4.11
1630573770984,3.81
1630573771000,3.38
1630573771015,2.83
1630573771031,2.25
1630573771046,1.7
1630573771062,1.17
1630573771078,0.62
1630573771093,-0.05
1630573771109,-0.9
1630573771125,-1.87
1630573771140,-2.9
1630573771156,-3.9
1630573771171,-4.85
1630573771187,-5.79
1630573771203,-6.75
1630573771218,-7.69
1630573771234,-8.53
1630573771250,-9.19
1630573771265,-9.65
1630573771281,-9.97
1630573771296,-10.25
1630573771312,-10.61
1630573771328,-11.02
1630573771343,-11.42
1630573771359,-11.73
1630573771375,-11.88
1630573771390,-11.89
1630573771406,-11.82
1630573771421,-11.69
1630573771437,-11.47
1630573771453,-11.09
1630573771468,-10.47
1630573771484,-9.59
1630573771500,-8.49
1630573771515,-7.28
1630573771531,-6.05
1630573771546,-4.86
1630573771562,-3.72
1630573771578,-2.57
1630573771593,-1.37
1630573771609,-0.06
1630573771625,1.35
1630573771640,2.83
1630573771656,4.33
1630573771671,5.82
1630573771687,7.23
1630573771703,8.53
1630573771718,9.69
1630573771734,10.64
1630573771750,11.31
1630573771765,11.66
1630573771781,11.7
1630573771796,11.51
1630573771812,11.25
1630573771828,11.03
1630573771843,10.94
1630573771859,10.96
1630573771875,11.03
1630573771890,11.1
1630573771906,11.14
1630573771921,11.15
1630573771937,11.09
1630573771953,10.93
1630573771968,10.6
1630573771984,10.07
1630573772000,9.42
1630573772015,8.79
1630573772031,8.3
1630573772046,7.99
1630573772062,7.76
1630573772078,7.45
1630573772093,6.95
1630573772109,6.28
1630573772125,5.57
1630573772140,4.95
1630573772156,4.47
1630573772171,4.07
1630573772187,3.65
1630573772203,3.15
1630573772218,2.61
1630573772234,2.15
1630573772250,1.85
1630573772265,1.65
1630573772281,1.41
1630573772296,0.96
1630573772312,0.21
1630573772328,-0.78
1630573772343,-1.87
1630573772359,-2.9
1630573772375,-3.8
1630573772390,-4.57
1630573772406,-5.22
1630573772421,-5.68
1630573772437,-5.85
1630573772453,-5.61
1630573772468,-4.94
1630573772484,-3.95
1630573772500,-2.9
1630573772515,-2.03
1630573772531,-1.44
1630573772546,-1.1
1630573772562,-0.77
1630573772578,-0.24
1630573772593,0.6
1630573772609,1.66
1630573772625,2.71
1630573772640,3.46
1630573772656,3.74
1630573772671,3.56
1630573772687,3.08
1630573772703,2.53
1630573772718,2.05
1630573772734,1.68
1630573772750,1.36
1630573772765,1.05
1630573772781,0.76
1630573772796,0.54
1630573772812,0.44
1630573772828,0.41
1630573772843,0.37
1630573772859,0.19
1630573772875,-0.2
1630573772890,-0.8
1630573772906,-1.53
1630573772921,-2.28
1630573772937,-2.93
1630573772953,-3.41
1630573772968,-3.66
1630573772984,-3.68
1630573773000,-3.52
1630573773015,-3.3
1630573773031,-3.16
1630573773046,-3.21
1630573773062,-3.45
1630573773078,-3.81
1630573773093,-4.13
1630573773109,-4.32
1630573773125,-4.34
1630573773140,-4.25
1630573773156,-4.17
1630573773171,-4.21
1630573773187,-4.44
1630573773203,-4.84
1630573773218,-5.35
1630573773234,-5.88
1630573773250,-6.32
1630573773265,-6.65
1630573773281,-6.84
1630573773296,-6.93
1630573773312,-6.98
1630573773328,-6.97
1630573773343,-6.87
1630573773359,-6.61
1630573773375,-6.11
1630573773390,-5.39
1630573773406,-4.56
1630573773421,-3.74
1630573773437,-3.03
1630573773453,-2.44
1630573773468,-1.88
1630573773484,-1.26
1630573773500,-0.57
1630573773515,0.13
1630573773531,0.68
1630573773546,0.98
1630573773562,1.03
1630573773578,0.97
1630573773593,0.95
1630573773609,1.11
1630573773625,1.44
1630573773640,1.8
1630573773656,2.05
1630573773671,2.12
1630573773687,2.04
1630573773703,1.91
1630573773718,1.79
1630573773734,1.67
1630573773750,1.49
1630573773765,1.2
1630573773781,0.77
1630573773796,0.32
1630573773812,-0.07
1630573773828,-0.29
1630573773843,-0.32
1630573773859,-0.19
1630573773875,0.07
1630573773890,0.42
1630573773906,0.85
1630573773921,1.35
1630573773937,1.88
1630573773953,2.4
1630573773968,2.86
1630573773984,3.21
1630573774000,3.42
1630573774015,3.46
1630573774031,3.36
1630573774046,3.18
1630573774062,3.04
1630573774078,3.04
1630573774093,3.16
1630573774109,3.32
1630573774125,3.32
1630573774140,3.01
1630573774156,2.3
1630573774171,1.29
1630573774187,0.11
1630573774203,-1.07
1630573774218,-2.14
1630573774234,-3.06
1630573774250,-3.81
1630573774265,-4.31
1630573774281,-4.47
1630573774296,-4.23
1630573774312,-3.61
1630573774328,-2.76
1630573774343,-1.87
1630573774359,-1.13
1630573774375,-0.6
1630573774390,-0.26
1630573774406,-0.01
1630573774421,0.29
1630573774437,0.73
1630573774453,1.36
1630573774468,2.14
1630573774484,2.99
1630573774500,3.76
1630573774515,4.31
1630573774531,4.54
1630573774546,4.46
1630573774562,4.22
1630573774578,4.03
1630573774593,4.12
1630573774609,4.6
1630573774625,5.45
1630573774640,6.5
1630573774656,7.54
1630573774671,8.4
1630573774687,8.97
1630573774703,9.27
1630573774718,9.4
1630573774734,9.47
1630573774750,9.55
1630573774765,9.69
1630573774781,9.86
1630573774796,9.99
1630573774812,9.99
1630573774828,9.77
1630573774843,9.29
1630573774859,8.57
1630573774875,7.68
1630573774890,6.73
1630573774906,5.8
1630573774921,4.94
1630573774937,4.13
1630573774953,3.34
1630573774968,2.55
1630573774984,1.79
1630573775000,1.13
1630573775015,0.64
1630573775031,0.33
1630573775046,0.13
1630573775062,-0.09
1630573775078,-0.47
1630573775093,-1.11
1630573775109,-1.98
1630573775125,-2.97
1630573775140,-3.92
1630573775156,-4.7
1630573775171,-5.27
1630573775187,-5.65
1630573775203,-5.88
1630573775218,-5.98
1630573775234,-5.91
1630573775250,-5.67
1630573775265,-5.29
1630573775281,-4.9
1630573775296,-4.65
1630573775312,-4.68
1630573775328,-4.96
1630573775343,-5.38
1630573775359,-5.77
1630573775375,-5.98
1630573775390,-6.01
1630573775406,-5.93
1630573775421,-5.87
1630573775437,-5.88
1630573775453,-5.96
1630573775468,-6.01
1630573775484,-5.91
1630573775500,-5.63
1630573775515,-5.19
1630573775531,-4.69
1630573775546,-4.22
1630573775562,-3.82
1630573775578,-3.44
1630573775593,-3.0
1630573775609,-2.47
1630573775625,-1.89
1630573775640,-1.4
1630573775656,-1.12
1630573775671,-1.16
1630573775687,-1.45
1630573775703,-1.83
1630573775718,-2.12
1630573775734,-2.19
1630573775750,-1.99
1630573775765,-1.59
1630573775781,-1.1
1630573775796,-0.58
1630573775812,-0.14
1630573775828,0.18
1630573775843,0.3
1630573775859,0.15
1630573775875,-0.26
1630573775890,-0.83
1630573775906,-1.44
1630573775921,-1.94
1630573775937,-2.28
1630573775953,-2.45
1630573775968,-2.52
1630573775984,-2.55
1630573776000,-2.54
1630573776015,-2.51
1630573776031,-2.46
1630573776046,-2.44
1630573776062,-2.54
1630573776078,-2.81
1630573776093,-3.25
1630573776109,-3.78
1630573776125,-4.26
1630573776140,-4.57
1630573776156,-4.63
1630573776171,-4.42
1630573776187,-3.99
1630573776203,-3.41
1630573776218,-2.75
1630573776234,-2.08
1630573776250,-1.43
1630573776265,-0.83
1630573776281,-0.24
1630573776296,0.37
1630573776312,1.06
1630573776328,1.81
1630573776343,2.59
1630573776359,3.3
1630573776375,3.84
1630573776390,4.12
1630573776406,4.15
1630573776421,3.99
1630573776437,3.75
1630573776453,3.57
1630573776468,3.56
1630573776484,3.74
1630573776500,4.04
1630573776515,4.37
1630573776531,4.6
1630573776546,4.7
1630573776562,4.67
1630573776578,4.61
1630573776593,4.64
1630573776609,4.85
1630573776625,5.26
1630573776640,5.8
1630573776656,6.33
1630573776671,6.72
1630573776687,6.86
1630573776703,6.75
1630573776718,6.51
1630573776734,6.29
1630573776750,6.22
1630573776765,6.34
1630573776781,6.58
1630573776796,6.83
1630573776812,7.01
1630573776828,7.09
1630573776843,7.12
1630573776859,7.11
1630573776875,7.07
1630573776890,6.92
1630573776906,6.63
1630573776921,6.2
1630573776937,5.72
1630573776953,5.27
1630573776968,4.89
1630573776984,4.54
1630573777000,4.08
1630573777015,3.38
1630573777031,2.34
1630573777046,0.94
1630573777062,-0.78
1630573777078,-2.72
1630573777093,-4.74
1630573777109,-6.62
1630573777125,-8.16
1630573777140,-9.19
1630573777156,-9.66
1630573777171,-9.66
1630573777187,-9.43
1630573777203,-9.17
1630573777218,-9.04
1630573777234,-9.06
1630573777250,-9.14
1630573777265,-9.18
1630573777281,-9.1
1630573777296,-8.92
1630573777312,-8.69
1630573777328,-8.47
1630573777343,-8.23
1630573777359,-7.93
1630573777375,-7.51
1630573777390,-6.98
1630573777406,-6.42
1630573777421,-5.95
1630573777437,-5.64
1630573777453,-5.51
1630573777468,-5.46
1630573777484,-5.36
1630573777500,-5.08
1630573777515,-4.6
1630573777531,-3.97
1630573777546,-3.26
1630573777562,-2.54
1630573777578,-1.78
1630573777593,-0.92
1630573777609,0.07
1630573777625,1.11
1630573777640,2.02
1630573777656,2.67
1630573777671,2.99
1630573777687,3.05
1630573777703,2.99
1630573777718,2.99
1630573777734,3.12
1630573777750,3.35
1630573777765,3.57
1630573777781,3.69
1630573777796,3.61
1630573777812,3.35
1630573777828,2.89
1630573777843,2.26
1630573777859,1.44
1630573777875,0.46
1630573777890,-0.63
1630573777906,-1.75
1630573777921,-2.79
1630573777937,-3.67
1630573777953,-4.34
1630573777968,-4.8
1630573777984,-5.09
1630573778000,-5.27
1630573778015,-5.39
1630573778031,-5.43
1630573778046,-5.37
1630573778062,-5.12
1630573778078,-4.66
1630573778093,-4.0
1630573778109,-3.23
1630573778125,-2.44
1630573778140,-1.72
1630573778156,-1.11
1630573778171,-0.61
1630573778187,-0.16
1630573778203,0.29
1630573778218,0.78
1630573778234,1.32
1630573778250,1.88
1630573778265,2.4
1630573778281,2.81
1630573778296,3.07
1630573778312,3.18
1630573778328,3.23
1630573778343,3.33
1630573778359,3.56
1630573778375,3.91
1630573778390,4.23
1630573778406,4.36
1630573778421,4.2
1630573778437,3.75
1630573778453,3.17
1630573778468,2.65
1630573778484,2.31
1630573778500,2.17
1630573778515,2.17
1630573778531,2.16
1630573778546,2.08
1630573778562,1.89
1630573778578,1.63
1630573778593,1.31
1630573778609,0.94
1630573778625,0.51
1630573778640,0.06
1630573778656,-0.3
1630573778671,-0.48
1630573778687,-0.44
1630573778703,-0.25
1630573778718,-0.1
1630573778734,-0.19
1630573778750,-0.64
1630573778765,-1.4
1630573778781,-2.31
1630573778796,-3.17
1630573778812,-3.81
1630573778828,-4.2
1630573778843,-4.38
1630573778859,-4.47
1630573778875,-4.57
1630573778890,-4.74
1630573778906,-5.0
1630573778921,-5.31
1630573778937,-5.61
1630573778953,-5.81
1630573778968,-5.8
1630573778984,-5.52
1630573779000,-4.96
1630573779015,-4.17
1630573779031,-3.25
1630573779046,-2.3
1630573779062,-1.41
1630573779078,-0.6
1630573779093,0.11
1630573779109,0.68
1630573779125,1.12
1630573779140,1.42
1630573779156,1.65
1630573779171,1.89
1630573779187,2.24
1630573779203,2.7
1630573779218,3.22
1630573779234,3.69
1630573779250,4.02
1630573779265,4.19
1630573779281,4.27
1630573779296,4.38
1630573779312,4.58
1630573779328,4.86
1630573779343,5.14
1630573779359,5.29
1630573779375,5.26
1630573779390,5.05
1630573779406,4.74
1630573779421,4.44
1630573779437,4.23
1630573779453,4.11
1630573779468,4.05
1630573779484,3.98
1630573779500,3.87
1630573779515,3.73
1630573779531,3.59
1630573779546,3.46
1630573779562,3.33
1630573779578,3.14
1630573779593,2.83
1630573779609,2.38
1630573779625,1.83
1630573779640,1.28
1630573779656,0.81
1630573779671,0.48
1630573779687,0.3
1630573779703,0.18
1630573779718,0.04
1630573779734,-0.21
1630573779750,-0.61
1630573779765,-1.15
1630573779781,-1.79
1630573779796,-2.44
1630573779812,-3.05
1630573779828,-3.59
1630573779843,-4.05
1630573779859,-4.49
1630573779875,-4.93
1630573779890,-5.37
1630573779906,-5.78
1630573779921,-6.09
1630573779937,-6.23
1630573779953,-6.15
1630573779968,-5.83
1630573779984,-5.27
1630573780000,-4.53
1630573780015,-3.66
1630573780031,-2.75
1630573780046,-1.84
1630573780062,-0.99
1630573780078,-0.2
1630573780093,0.53
1630573780109,1.24
1630573780125,1.92
1630573780140,2.59
1630573780156,3.23
1630573780171,3.82
1630573780187,4.38
1630573780203,4.9
1630573780218,5.38
1630573780234,5.76
1630573780250,6.0
1630573780265,6.05
1630573780281,5.95
1630573780296,5.79
1630573780312,5.7
1630573780328,5.78
1630573780343,6.02
1630573780359,6.35
1630573780375,6.6
1630573780390,6.66
1630573780406,6.48
1630573780421,6.16
1630573780437,5.83
1630573780453,5.59
1630573780468,5.47
1630573780484,5.42
1630573780500,5.33
1630573780515,5.14
1630573780531,4.81
1630573780546,4.39
1630573780562,3.93
1630573780578,3.47
1630573780593,3.01
1630573780609,2.53
1630573780625,2.03
1630573780640,1.49
1630573780656,0.94
1630573780671,0.39
1630573780687,-0.15
1630573780703,-0.68
1630573780718,-1.23
1630573780734,-1.78
1630573780750,-2.36
1630573780765,-2.97
1630573780781,-3.64
1630573780796,-4.43
1630573780812,-5.35
1630573780828,-6.36
1630573780843,-7.36
1630573780859,-8.19
1630573780875,-8.72
1630573780890,-8.93
1630573780906,-8.89
1630573780921,-8.72
1630573780937,-8.51
1630573780953,-8.23
1630573780968,-7.8
1630573780984,-7.09
1630573781000,-6.06
1630573781015,-4.79
1630573781031,-3.46
1630573781046,-2.29
1630573781062,-1.39
1630573781078,-0.8
1630573781093,-0.42
1630573781109,-0.15
1630573781125,0.07
1630573781140,0.24
1630573781156,0.33
1630573781171,0.33
1630573781187,0.27
1630573781203,0.26
1630573781218,0.39
1630573781234,0.72
1630573781250,1.19
1630573781265,1.7
1630573781281,2.09
1630573781296,2.29
1630573781312,2.3
1630573781328,2.21
1630573781343,2.11
1630573781359,2.07
1630573781375,2.11
1630573781390,2.21
1630573781406,2.32
1630573781421,2.38
1630573781437,2.33
1630573781453,2.17
1630573781468,1.9
1630573781484,1.56
1630573781500,1.23
1630573781515,0.93
1630573781531,0.65
1630573781546,0.4
1630573781562,0.15
1630573781578,-0.09
1630573781593,-0.31
1630573781609,-0.51
1630573781625,-0.77
1630573781640,-1.16
1630573781656,-1.73
1630573781671,-2.42
1630573781687,-3.12
1630573781703,-3.68
1630573781718,-4.03
1630573781734,-4.21
1630573781750,-4.36
1630573781765,-4.58
1630573781781,-4.94
1630573781796,-5.39
1630573781812,-5.83
1630573781828,-6.16
1630573781843,-6.33
1630573781859,-6.31
1630573781875,-6.1
1630573781890,-5.69
1630573781906,-5.09
1630573781921,-4.32
1630573781937,-3.42
1630573781953,-2.47
1630573781968,-1.49
1630573781984,-0.52
1630573782000,0.45
1630573782015,1.36
1630573782031,2.17
1630573782046,2.81
1630573782062,3.24
1630573782078,3.49
1630573782093,3.7
1630573782109,3.99
1630573782125,4.41
1630573782140,4.92
1630573782156,5.36
1630573782171,5.54
1630573782187,5.37
1630573782203,4.9
1630573782218,4.29
1630573782234,3.76
1630573782250,3.49
1630573782265,3.49
1630573782281,3.67
1630573782296,3.86
1630573782312,3.9
1630573782328,3.74
1630573782343,3.42
1630573782359,3.03
1630573782375,2.65
1630573782390,2.35
1630573782406,2.12
1630573782421,1.91
1630573782437,1.69
1630573782453,1.44
1630573782468,1.19
1630573782484,0.95
1630573782500,0.77
1630573782515,0.63
1630573782531,0.52
1630573782546,0.38
1630573782562,0.14
1630573782578,-0.2
1630573782593,-0.63
1630573782609,-1.08
1630573782625,-1.51
1630573782640,-1.91
1630573782656,-2.34
1630573782671,-2.82
1630573782687,-3.36
1630573782703,-3.91
1630573782718,-4.41
1630573782734,-4.84
1630573782750,-5.24
1630573782765,-5.69
1630573782781,-6.21
1630573782796,-6.77
1630573782812,-7.23
1630573782828,-7.47
1630573782843,-7.39
1630573782859,-7.04
1630573782875,-6.52
1630573782890,-5.98
1630573782906,-5.43
1630573782921,-4.83
1630573782937,-4.1
1630573782953,-3.19
1630573782968,-2.13
1630573782984,-1.06
1630573783000,-0.12
1630573783015,0.58
1630573783031,1.06
1630573783046,1.38
1630573783062,1.68
1630573783078,2.07
1630573783093,2.61
1630573783109,3.28
1630573783125,3.98
1630573783140,4.59
1630573783156,4.98
1630573783171,5.08
1630573783187,4.93
1630573783203,4.66
1630573783218,4.44
1630573783234,4.41
1630573783250,4.57
1630573783265,4.79
1630573783281,4.89
1630573783296,4.69
1630573783312,4.2
1630573783328,3.55
1630573783343,2.97
1630573783359,2.6
1630573783375,2.5
1630573783390,2.56
1630573783406,2.64
1630573783421,2.62
1630573783437,2.48
1630573783453,2.27
1630573783468,2.07
1630573783484,1.9
1630573783500,1.73
1630573783515,1.55
1630573783531,1.32
1630573783546,1.07
1630573783562,0.84
1630573783578,0.63
1630573783593,0.42
1630573783609,0.14
1630573783625,-0.23
1630573783640,-0.68
1630573783656,-1.17
1630573783671,-1.65
1630573783687,-2.11
1630573783703,-2.6
1630573783718,-3.12
1630573783734,-3.66
1630573783750,-4.18
1630573783765,-4.59
1630573783781,-4.89
1630573783796,-5.16
1630573783812,-5.49
1630573783828,-5.93
1630573783843,-6.41
1630573783859,-6.77
1630573783875,-6.81
1630573783890,-6.46
1630573783906,-5.8
1630573783921,-5.01
1630573783937,-4.25
1630573783953,-3.61
1630573783968,-3.01
1630573783984,-2.33
1630573784000,-1.51
1630573784015,-0.56
1630573784031,0.41
1630573784046,1.27
1630573784062,1.95
1630573784078,2.47
1630573784093,2.93
1630573784109,3.42
1630573784125,3.97
1630573784140,4.53
1630573784156,5.03
1630573784171,5.38
1630573784187,5.52
1630573784203,5.47
1630573784218,5.31
1630573784234,5.14
1630573784250,5.04
1630573784265,5.01
1630573784281,5.01
1630573784296,4.97
1630573784312,4.85
1630573784328,4.68
1630573784343,4.51
1630573784359,4.35
1630573784375,4.2
1630573784390,4.0
1630573784406,3.68
1630573784421,3.23
1630573784437,2.68
1630573784453,2.15
1630573784468,1.72
1630573784484,1.46
1630573784500,1.35
1630573784515,1.3
1630573784531,1.2
1630573784546,0.95
1630573784562,0.55
1630573784578,0.04
1630573784593,-0.5
1630573784609,-0.97
1630573784625,-1.33
1630573784640,-1.57
1630573784656,-1.73
1630573784671,-1.87
1630573784687,-2.06
1630573784703,-2.29
1630573784718,-2.59
1630573784734,-2.92
1630573784750,-3.28
1630573784765,-3.68
1630573784781,-4.18
1630573784796,-4.82
1630573784812,-5.6
1630573784828,-6.44
1630573784843,-7.15
1630573784859,-7.51
1630573784875,-7.35
1630573784890,-6.64
1630573784906,-5.49
1630573784921,-4.15
1630573784937,-2.89
1630573784953,-1.87
1630573784968,-1.1
1630573784984,-0.49
1630573785000,0.1
1630573785015,0.77
1630573785031,1.54
1630573785046,2.35
1630573785062,3.11
1630573785078,3.76
1630573785093,4.26
1630573785109,4.62
1630573785125,4.81
1630573785140,4.8
1630573785156,4.56
1630573785171,4.13
1630573785187,3.61
1630573785203,3.18
1630573785218,3.0
1630573785234,3.13
1630573785250,3.51
1630573785265,3.94
1630573785281,4.19
1630573785296,4.12
1630573785312,3.72
1630573785328,3.14
1630573785343,2.58
1630573785359,2.2
1630573785375,2.07
1630573785390,2.1
1630573785406,2.16
1630573785421,2.12
1630573785437,1.95
1630573785453,1.69
1630573785468,1.42
1630573785484,1.18
1630573785500,0.94
1630573785515,0.64
1630573785531,0.21
1630573785546,-0.35
1630573785562,-0.97
1630573785578,-1.57
1630573785593,-2.06
1630573785609,-2.44
1630573785625,-2.77
1630573785640,-3.12
1630573785656,-3.56
1630573785671,-4.12
1630573785687,-4.77
1630573785703,-5.48
1630573785718,-6.19
1630573785734,-6.86
1630573785750,-7.45
1630573785765,-7.9
1630573785781,-8.16
1630573785796,-8.17
1630573785812,-7.94
1630573785828,-7.52
1630573785843,-6.96
1630573785859,-6.32
1630573785875,-5.63
1630573785890,-4.85
1630573785906,-3.99
1630573785921,-3.04
1630573785937,-2.06
1630573785953,-1.1
1630573785968,-0.22
1630573785984,0.54
1630573786000,1.19
1630573786015,1.7
1630573786031,2.06
1630573786046,2.25
1630573786062,2.29
1630573786078,2.28
1630573786093,2.35
1630573786109,2.62
1630573786125,3.11
1630573786140,3.74
1630573786156,4.34
1630573786171,4.72
1630573786187,4.82
1630573786203,4.67
1630573786218,4.43
1630573786234,4.29
1630573786250,4.37
1630573786265,4.66
1630573786281,5.05
1630573786296,5.32
1630573786312,5.34
1630573786328,5.05
1630573786343,4.54
1630573786359,3.95
1630573786375,3.43
1630573786390,3.05
1630573786406,2.81
1630573786421,2.64
1630573786437,2.44
1630573786453,2.13
1630573786468,1.67
1630573786484,1.05
1630573786500,0.32
1630573786515,-0.47
1630573786531,-1.23
1630573786546,-1.89
1630573786562,-2.4
1630573786578,-2.77
1630573786593,-3.09
1630573786609,-3.43
1630573786625,-3.88
1630573786640,-4.45
1630573786656,-5.09
1630573786671,-5.72
1630573786687,-6.32
1630573786703,-6.89
1630573786718,-7.49
1630573786734,-8.15
1630573786750,-8.84
1630573786765,-9.45
1630573786781,-9.8
1630573786796,-9.74
1630573786812,-9.19
1630573786828,-8.19
1630573786843,-6.86
1630573786859,-5.34
1630573786875,-3.73
1630573786890,-2.09
1630573786906,-0.41
1630573786921,1.34
1630573786937,3.11
1630573786953,4.82
1630573786968,6.38
1630573786984,7.68
1630573787000,8.7
1630573787015,9.53
1630573787031,10.26
1630573787046,10.96
1630573787062,11.64
1630573787078,12.24
1630573787093,12.7
1630573787109,13.04
1630573787125,13.33
1630573787140,13.64
1630573787156,14.03
1630573787171,14.41
1630573787187,14.67
1630573787203,14.66
1630573787218,14.31
1630573787234,13.62
1630573787250,12.66
1630573787265,11.51
1630573787281,10.21
1630573787296,8.77
1630573787312,7.19
1630573787328,5.45
1630573787343,3.6
1630573787359,1.72
1630573787375,-0.06
1630573787390,-1.65
1630573787406,-2.97
1630573787421,-4.03
1630573787437,-4.87
1630573787453,-5.6
1630573787468,-6.27
1630573787484,-6.9
1630573787500,-7.47
1630573787515,-7.96
1630573787531,-8.38
1630573787546,-8.75
1630573787562,-9.1
1630573787578,-9.45
1630573787593,-9.79
1630573787609,-10.09
1630573787625,-10.33
1630573787640,-10.52
1630573787656,-10.66
1630573787671,-10.77
1630573787687,-10.88
1630573787703,-11.03
1630573787718,-11.25
1630573787734,-11.53
1630573787750,-11.83
1630573787765,-12.05
1630573787781,-12.07
1630573787796,-11.8
1630573787812,-11.19
1630573787828,-10.26
1630573787843,-9.07
1630573787859,-7.71
1630573787875,-6.26
1630573787890,-4.8
1630573787906,-3.38
1630573787921,-2.04
1630573787937,-0.74
1630573787953,0.55
1630573787968,1.83
1630573787984,3.08
1630573788000,4.22
1630573788015,5.16
1630573788031,5.83
1630573788046,6.26
1630573788062,6.5
1630573788078,6.63
1630573788093,6.72
1630573788109,6.77
1630573788125,6.8
1630573788140,6.78
1630573788156,6.74
1630573788171,6.72
1630573788187,6.75
1630573788203,6.8
1630573788218,6.84
1630573788234,6.82
1630573788250,6.71
1630573788265,6.53
1630573788281,6.28
1630573788296,6.0
1630573788312,5.7
1630573788328,5.4
1630573788343,5.06
1630573788359,4.68
1630573788375,4.21
1630573788390,3.65
1630573788406,3.03
1630573788421,2.39
1630573788437,1.79
1630573788453,1.3
1630573788468,0.92
1630573788484,0.66
1630573788500,0.48
1630573788515,0.32
1630573788531,0.12
1630573788546,-0.16
1630573788562,-0.51
1630573788578,-0.92
1630573788593,-1.36
1630573788609,-1.82
1630573788625,-2.28
1630573788640,-2.76
1630573788656,-3.3
1630573788671,-3.9
1630573788687,-4.55
1630573788703,-5.21
1630573788718,-5.81
1630573788734,-6.35
1630573788750,-6.81
1630573788765,-7.17
1630573788781,-7.39
1630573788796,-7.41
1630573788812,-7.17
1630573788828,-6.66
1630573788843,-5.95
1630573788859,-5.13
1630573788875,-4.25
1630573788890,-3.31
1630573788906,-2.25
1630573788921,-1.04
1630573788937,0.29
1630573788953,1.64
1630573788968,2.81
1630573788984,3.66
1630573789000,4.14
1630573789015,4.33
1630573789031,4.34
1630573789046,4.32
1630573789062,4.33
1630573789078,4.37
1630573789093,4.44
1630573789109,4.51
1630573789125,4.59
1630573789140,4.7
1630573789156,4.85
1630573789171,5.03
1630573789187,5.18
1630573789203,5.27
1630573789218,5.27
1630573789234,5.16
1630573789250,4.98
1630573789265,4.76
1630573789281,4.51
1630573789296,4.23
1630573789312,3.92
1630573789328,3.61
1630573789343,3.33
1630573789359,3.12
1630573789375,2.99
1630573789390,2.92
1630573789406,2.83
1630573789421,2.66
1630573789437,2.35
1630573789453,1.89
1630573789468,1.27
1630573789484,0.55
1630573789500,-0.2
1630573789515,-0.92
1630573789531,-1.52
1630573789546,-1.95
1630573789562,-2.22
1630573789578,-2.38
1630573789593,-2.55
1630573789609,-2.81
1630573789625,-3.21
1630573789640,-3.76
1630573789656,-4.39
1630573789671,-5.04
1630573789687,-5.67
1630573789703,-6.24
1630573789718,-6.7
1630573789734,-7.01
1630573789750,-7.12
1630573789765,-7.01
1630573789781,-6.71
1630573789796,-6.31
1630573789812,-5.88
1630573789828,-5.45
1630573789843,-4.98
1630573789859,-4.4
1630573789875,-3.6
1630573789890,-2.56
1630573789906,-1.33
1630573789921,-0.05
1630573789937,1.13
1630573789953,2.09
1630573789968,2.79
1630573789984,3.22
1630573790000,3.43
1630573790015,3.47
1630573790031,3.41
1630573790046,3.31
1630573790062,3.26
1630573790078,3.31
1630573790093,3.48
1630573790109,3.75
1630573790125,4.03
1630573790140,4.24
1630573790156,4.3
1630573790171,4.21
1630573790187,3.98
1630573790203,3.69
1630573790218,3.39
1630573790234,3.15
1630573790250,2.96
1630573790265,2.82
1630573790281,2.67
1630573790296,2.47
1630573790312,2.22
1630573790328,1.97
1630573790343,1.79
1630573790359,1.72
1630573790375,1.72
1630573790390,1.67
1630573790406,1.48
1630573790421,1.09
1630573790437,0.56
1630573790453,-0.0
1630573790468,-0.47
1630573790484,-0.81
1630573790500,-1.07
1630573790515,-1.35
1630573790531,-1.75
1630573790546,-2.28
1630573790562,-2.87
1630573790578,-3.42
1630573790593,-3.87
1630573790609,-4.18
1630573790625,-4.33
1630573790640,-4.39
1630573790656,-4.45
1630573790671,-4.6
1630573790687,-4.95
1630573790703,-5.52
1630573790718,-6.23
1630573790734,-6.91
1630573790750,-7.37
1630573790765,-7.49
1630573790781,-7.27
1630573790796,-6.8
1630573790812,-6.22
1630573790828,-5.58
1630573790843,-4.86
1630573790859,-3.98
1630573790875,-2.92
1630573790890,-1.74
1630573790906,-0.58
1630573790921,0.42
1630573790937,1.21
1630573790953,1.8
1630573790968,2.28
1630573790984,2.72
1630573791000,3.17
1630573791015,3.62
1630573791031,4.02
1630573791046,4.36
1630573791062,4.6
1630573791078,4.74
1630573791093,4.75
1630573791109,4.65
1630573791125,4.5
1630573791140,4.36
1630573791156,4.3
1630573791171,4.33
1630573791187,4.41
1630573791203,4.46
1630573791218,4.4
1630573791234,4.21
1630573791250,3.9
1630573791265,3.54
1630573791281,3.17
1630573791296,2.83
1630573791312,2.54
1630573791328,2.29
1630573791343,2.09
1630573791359,1.92
1630573791375,1.77
1630573791390,1.6
1630573791406,1.37
1630573791421,1.08
1630573791437,0.74
1630573791453,0.37
1630573791468,-0.01
1630573791484,-0.39
1630573791500,-0.79
1630573791515,-1.19
1630573791531,-1.59
1630573791546,-1.92
1630573791562,-2.17
1630573791578,-2.33
1630573791593,-2.46
1630573791609,-2.62
1630573791625,-2.89
1630573791640,-3.29
1630573791656,-3.82
1630573791671,-4.42
1630573791687,-5.06
1630573791703,-5.73
1630573791718,-6.43
1630573791734,-7.12
1630573791750,-7.72
1630573791765,-8.12
1630573791781,-8.21
1630573791796,-7.95
1630573791812,-7.33
1630573791828,-6.47
1630573791843,-5.48
1630573791859,-4.48
1630573791875,-3.53
1630573791890,-2.64
1630573791906,-1.81
1630573791921,-1.02
1630573791937,-0.31
1630573791953,0.32
1630573791968,0.86
1630573791984,1.34
1630573792000,1.79
1630573792015,2.26
1630573792031,2.77
1630573792046,3.31
1630573792062,3.82
1630573792078,4.24
1630573792093,4.53
1630573792109,4.65
1630573792125,4.62
1630573792140,4.44
1630573792156,4.15
1630573792171,3.82
1630573792187,3.56
1630573792203,3.48
1630573792218,3.64
1630573792234,3.99
1630573792250,4.41
1630573792265,4.73
1630573792281,4.82
1630573792296,4.67
1630573792312,4.32
1630573792328,3.89
1630573792343,3.45
1630573792359,3.04
1630573792375,2.67
1630573792390,2.34
1630573792406,2.07
1630573792421,1.9
1630573792437,1.8
1630573792453,1.72
1630573792468,1.56
1630573792484,1.27
1630573792500,0.85
1630573792515,0.42
1630573792531,0.07
1630573792546,-0.12
1630573792562,-0.23
1630573792578,-0.35
1630573792593,-0.61
1630573792609,-1.07
1630573792625,-1.68
1630573792640,-2.33
1630573792656,-2.91
1630573792671,-3.36
1630573792687,-3.67
1630573792703,-3.91
1630573792718,-4.13
1630573792734,-4.38
1630573792750,-4.69
1630573792765,-5.06
1630573792781,-5.47
1630573792796,-5.91
1630573792812,-6.3
1630573792828,-6.59
1630573792843,-6.7
1630573792859,-6.58
1630573792875,-6.21
1630573792890,-5.64
1630573792906,-4.93
1630573792921,-4.16
1630573792937,-3.35
1630573792953,-2.53
1630573792968,-1.69
1630573792984,-0.81
1630573793000,0.09
1630573793015,0.98
1630573793031,1.8
1630573793046,2.51
1630573793062,3.06
1630573793078,3.46
1630573793093,3.73
1630573793109,3.91
1630573793125,4.06
1630573793140,4.22
1630573793156,4.41
1630573793171,4.6
1630573793187,4.72
1630573793203,4.72
1630573793218,4.55
1630573793234,4.25
1630573793250,3.89
1630573793265,3.57
1630573793281,3.37
1630573793296,3.3
1630573793312,3.34
1630573793328,3.44
1630573793343,3.52
1630573793359,3.55
1630573793375,3.54
1630573793390,3.49
1630573793406,3.42
1630573793421,3.29
1630573793437,3.09
1630573793453,2.78
1630573793468,2.4
1630573793484,1.99
1630573793500,1.63
1630573793515,1.35
1630573793531,1.18
1630573793546,1.07
1630573793562,0.94
1630573793578,0.72
1630573793593,0.37
1630573793609,-0.1
1630573793625,-0.65
1630573793640,-1.2
1630573793656,-1.67
1630573793671,-2.05
1630573793687,-2.36
1630573793703,-2.68
1630573793718,-3.09
1630573793734,-3.64
1630573793750,-4.32
1630573793765,-5.05
1630573793781,-5.76
1630573793796,-6.36
1630573793812,-6.81
1630573793828,-7.13
1630573793843,-7.31
1630573793859,-7.33
1630573793875,-7.19
1630573793890,-6.84
1630573793906,-6.33
1630573793921,-5.71
1630573793937,-5.05
1630573793953,-4.39
1630573793968,-3.72
1630573793984,-2.99
1630573794000,-2.12
1630573794015,-1.11
1630573794031,-0.02
1630573794046,1.04
1630573794062,1.97
1630573794078,2.72
1630573794093,3.28
1630573794109,3.73
1630573794125,4.12
1630573794140,4.5
1630573794156,4.85
1630573794171,5.12
1630573794187,5.27
1630573794203,5.25
1630573794218,5.09
1630573794234,4.83
1630573794250,4.56
1630573794265,4.31
1630573794281,4.08
1630573794296,3.85
1630573794312,3.58
1630573794328,3.26
1630573794343,2.93
1630573794359,2.66
1630573794375,2.52
1630573794390,2.52
1630573794406,2.62
1630573794421,2.72
1630573794437,2.72
1630573794453,2.55
1630573794468,2.24
1630573794484,1.85
1630573794500,1.45
1630573794515,1.09
1630573794531,0.77
1630573794546,0.47
1630573794562,0.16
1630573794578,-0.17
1630573794593,-0.51
1630573794609,-0.84
1630573794625,-1.16
1630573794640,-1.49
1630573794656,-1.84
1630573794671,-2.21
1630573794687,-2.59
1630573794703,-2.94
1630573794718,-3.25
1630573794734,-3.49
1630573794750,-3.74
1630573794765,-4.09
1630573794781,-4.64
1630573794796,-5.44
1630573794812,-6.38
1630573794828,-7.27
1630573794843,-7.86
1630573794859,-8.0
1630573794875,-7.7
1630573794890,-7.11
1630573794906,-6.47
1630573794921,-5.9
1630573794937,-5.43
1630573794953,-4.95
1630573794968,-4.31
1630573794984,-3.43
1630573795000,-2.34
1630573795015,-1.15
1630573795031,-0.02
1630573795046,0.96
1630573795062,1.75
1630573795078,2.39
1630573795093,2.91
1630573795109,3.36
1630573795125,3.75
1630573795140,4.07
1630573795156,4.32
1630573795171,4.46
1630573795187,4.53
1630573795203,4.53
1630573795218,4.49
1630573795234,4.42
1630573795250,4.32
1630573795265,4.2
1630573795281,4.09
1630573795296,4.03
1630573795312,4.03
1630573795328,4.07
1630573795343,4.1
1630573795359,4.07
1630573795375,3.98
1630573795390,3.87
1630573795406,3.79
1630573795421,3.78
1630573795437,3.8
1630573795453,3.76
1630573795468,3.59
1630573795484,3.25
1630573795500,2.77
1630573795515,2.21
1630573795531,1.61
1630573795546,1.02
1630573795562,0.47
