timestamp,bvp
1629724800000,-17.25
1629724800015,-15.62
1629724800031,-14.1
1629724800046,-13.54
1629724800062,-14.61
1629724800078,-17.6
1629724800093,-22.3
1629724800109,-28.04
1629724800125,-33.78
1629724800140,-38.38
1629724800156,-40.89
1629724800171,-40.87
1629724800187,-38.53
1629724800203,-34.64
1629724800218,-30.19
1629724800234,-26.03
1629724800250,-22.5
1629724800265,-19.4
1629724800281,-16.17
1629724800296,-12.21
1629724800312,-7.09
1629724800328,-0.75
1629724800343,6.62
1629724800359,14.64
1629724800375,22.86
1629724800390,30.82
1629724800406,38.08
1629724800421,44.3
1629724800437,49.3
1629724800453,53.06
1629724800468,55.77
1629724800484,57.72
1629724800500,59.13
1629724800515,60.1
1629724800531,60.54
1629724800546,60.23
1629724800562,58.96
1629724800578,56.64
1629724800593,53.38
1629724800609,49.42
1629724800625,45.11
1629724800640,40.76
1629724800656,36.56
1629724800671,32.49
1629724800687,28.39
1629724800703,23.99
1629724800718,19.13
1629724800734,13.79
1629724800750,8.25
1629724800765,2.89
1629724800781,-1.9
1629724800796,-5.93
1629724800812,-9.31
1629724800828,-12.38
1629724800843,-15.53
1629724800859,-18.98
1629724800875,-22.74
1629724800890,-26.6
1629724800906,-30.29
1629724800921,-33.64
1629724800937,-36.62
1629724800953,-39.32
1629724800968,-41.89
1629724800984,-44.44
1629724801000,-47.17
1629724801015,-50.29
1629724801031,-53.98
1629724801046,-58.22
1629724801062,-62.59
1629724801078,-66.18
1629724801093,-67.83
1629724801109,-66.58
1629724801125,-62.11
1629724801140,-54.98
1629724801156,-46.41
1629724801171,-37.87
1629724801187,-30.41
1629724801203,-24.42
1629724801218,-19.57
1629724801234,-15.21
1629724801250,-10.72
1629724801265,-5.87
1629724801281,-0.79
1629724801296,4.17
1629724801312,8.67
1629724801328,12.55
1629724801343,15.85
1629724801359,18.73
1629724801375,21.43
1629724801390,24.11
1629724801406,26.87
1629724801421,29.65
1629724801437,32.37
1629724801453,34.89
1629724801468,37.11
1629724801484,39.03
1629724801500,40.64
1629724801515,41.93
1629724801531,42.79
1629724801546,43.01
1629724801562,42.36
1629724801578,40.73
1629724801593,38.23
1629724801609,35.21
1629724801625,32.12
1629724801640,29.35
1629724801656,27.05
1629724801671,25.09
1629724801687,23.2
1629724801703,21.17
1629724801718,18.93
1629724801734,16.65
1629724801750,14.51
1629724801765,12.53
1629724801781,10.58
1629724801796,8.41
1629724801812,5.86
1629724801828,3.0
1629724801843,0.09
1629724801859,-2.51
1629724801875,-4.56
1629724801890,-6.04
1629724801906,-7.19
1629724801921,-8.39
1629724801937,-10.08
1629724801953,-12.59
1629724801968,-16.13
1629724801984,-20.72
1629724802000,-26.11
1629724802015,-31.72
1629724802031,-36.72
1629724802046,-40.14
1629724802062,-41.22
1629724802078,-39.72
1629724802093,-35.99
1629724802109,-30.97
1629724802125,-25.84
1629724802140,-21.6
1629724802156,-18.75
1629724802171,-17.22
1629724802187,-16.46
1629724802203,-15.83
1629724802218,-14.99
1629724802234,-14.05
1629724802250,-13.62
1629724802265,-14.42
1629724802281,-16.95
1629724802296,-21.07
1629724802312,-25.96
1629724802328,-30.23
1629724802343,-32.41
1629724802359,-31.4
1629724802375,-26.83
1629724802390,-19.04
1629724802406,-8.85
1629724802421,2.76
1629724802437,14.93
1629724802453,27.0
1629724802468,38.43
1629724802484,48.76
1629724802500,57.55
1629724802515,64.53
1629724802531,69.68
1629724802546,73.25
1629724802562,75.61
1629724802578,76.99
1629724802593,77.28
1629724802609,76.04
1629724802625,72.73
1629724802640,66.95
1629724802656,58.77
1629724802671,48.77
1629724802687,37.93
1629724802703,27.33
1629724802718,17.85
1629724802734,9.99
1629724802750,3.86
1629724802765,-0.67
1629724802781,-3.88
1629724802796,-6.12
1629724802812,-7.73
1629724802828,-9.12
1629724802843,-10.73
1629724802859,-12.96
1629724802875,-16.05
1629724802890,-20.1
1629724802906,-24.97
1629724802921,-30.33
1629724802937,-35.67
1629724802953,-40.43
1629724802968,-44.0
1629724802984,-45.88
1629724803000,-45.79
1629724803015,-43.71
1629724803031,-39.94
1629724803046,-35.0
1629724803062,-29.51
1629724803078,-24.1
1629724803093,-19.26
1629724803109,-15.36
1629724803125,-12.63
1629724803140,-11.1
1629724803156,-10.68
1629724803171,-11.1
1629724803187,-11.93
1629724803203,-12.6
1629724803218,-12.52
1629724803234,-11.16
1629724803250,-8.25
1629724803265,-3.82
1629724803281,1.77
1629724803296,7.9
1629724803312,13.89
1629724803328,19.15
1629724803343,23.33
1629724803359,26.32
1629724803375,28.17
1629724803390,29.04
1629724803406,29.14
1629724803421,28.69
1629724803437,27.91
1629724803453,27.03
1629724803468,26.18
1629724803484,25.4
1629724803500,24.58
1629724803515,23.58
1629724803531,22.29
1629724803546,20.71
1629724803562,18.95
1629724803578,17.13
1629724803593,15.35
1629724803609,13.58
1629724803625,11.69
1629724803640,9.58
1629724803656,7.19
1629724803671,4.58
1629724803687,1.91
1629724803703,-0.68
1629724803718,-3.1
1629724803734,-5.35
1629724803750,-7.52
1629724803765,-9.78
1629724803781,-12.36
1629724803796,-15.49
1629724803812,-19.38
1629724803828,-24.04
1629724803843,-29.16
1629724803859,-34.07
1629724803875,-37.82
1629724803890,-39.51
1629724803906,-38.57
1629724803921,-35.05
1629724803937,-29.61
1629724803953,-23.27
1629724803968,-17.01
1629724803984,-11.52
1629724804000,-7.05
1629724804015,-3.51
1629724804031,-0.67
1629724804046,1.72
1629724804062,3.88
1629724804078,5.9
1629724804093,7.89
1629724804109,9.89
1629724804125,11.91
1629724804140,13.85
1629724804156,15.59
1629724804171,17.06
1629724804187,18.2
1629724804203,19.08
1629724804218,19.77
1629724804234,20.33
1629724804250,20.77
1629724804265,21.09
1629724804281,21.3
1629724804296,21.39
1629724804312,21.38
1629724804328,21.21
1629724804343,20.79
1629724804359,19.98
1629724804375,18.71
1629724804390,16.97
1629724804406,14.91
1629724804421,12.78
1629724804437,10.83
1629724804453,9.26
1629724804468,8.08
1629724804484,7.15
1629724804500,6.2
1629724804515,4.96
1629724804531,3.27
1629724804546,1.13
1629724804562,-1.26
1629724804578,-3.67
1629724804593,-5.88
1629724804609,-7.84
1629724804625,-9.67
1629724804640,-11.63
1629724804656,-14.01
1629724804671,-17.04
1629724804687,-20.83
1629724804703,-25.33
1629724804718,-30.29
1629724804734,-35.24
1629724804750,-39.47
1629724804765,-42.13
1629724804781,-42.4
1629724804796,-39.85
1629724804812,-34.6
1629724804828,-27.39
1629724804843,-19.33
1629724804859,-11.58
1629724804875,-4.95
1629724804890,0.24
1629724804906,4.13
1629724804921,7.11
1629724804937,9.54
1629724804953,11.59
1629724804968,13.27
1629724804984,14.47
1629724805000,15.12
1629724805015,15.3
1629724805031,15.18
1629724805046,15.04
1629724805062,15.08
1629724805078,15.37
1629724805093,15.87
1629724805109,16.4
1629724805125,16.77
1629724805140,16.87
1629724805156,16.69
1629724805171,16.31
1629724805187,15.87
1629724805203,15.43
1629724805218,15.01
1629724805234,14.54
1629724805250,13.94
1629724805265,13.16
1629724805281,12.2
1629724805296,11.17
1629724805312,10.19
1629724805328,9.39
1629724805343,8.75
1629724805359,8.11
1629724805375,7.19
1629724805390,5.69
1629724805406,3.5
1629724805421,0.7
1629724805437,-2.42
1629724805453,-5.49
1629724805468,-8.26
1629724805484,-10.67
1629724805500,-12.85
1629724805515,-15.06
1629724805531,-17.54
1629724805546,-20.51
1629724805562,-24.15
1629724805578,-28.53
1629724805593,-33.59
1629724805609,-38.99
1629724805625,-44.06
1629724805640,-47.88
1629724805656,-49.51
1629724805671,-48.37
1629724805687,-44.47
1629724805703,-38.46
1629724805718,-31.38
1629724805734,-24.32
1629724805750,-18.0
1629724805765,-12.65
1629724805781,-8.11
1629724805796,-3.99
1629724805812,-0.01
1629724805828,3.94
1629724805843,7.76
1629724805859,11.3
1629724805875,14.41
1629724805890,17.05
1629724805906,19.22
1629724805921,20.97
1629724805937,22.32
1629724805953,23.32
1629724805968,24.03
1629724805984,24.53
1629724806000,24.94
1629724806015,25.29
1629724806031,25.59
1629724806046,25.79
1629724806062,25.83
1629724806078,25.66
1629724806093,25.29
1629724806109,24.72
1629724806125,24.01
1629724806140,23.22
1629724806156,22.39
1629724806171,21.56
1629724806187,20.7
1629724806203,19.7
1629724806218,18.41
1629724806234,16.71
1629724806250,14.6
1629724806265,12.23
1629724806281,9.88
1629724806296,7.76
1629724806312,5.93
1629724806328,4.25
1629724806343,2.42
1629724806359,0.2
1629724806375,-2.51
1629724806390,-5.62
1629724806406,-8.88
1629724806421,-12.06
1629724806437,-15.02
1629724806453,-17.76
1629724806468,-20.4
1629724806484,-23.16
1629724806500,-26.28
1629724806515,-29.96
1629724806531,-34.24
1629724806546,-38.95
1629724806562,-43.55
1629724806578,-47.27
1629724806593,-49.2
1629724806609,-48.65
1629724806625,-45.44
1629724806640,-39.96
1629724806656,-33.1
1629724806671,-25.92
1629724806687,-19.31
1629724806703,-13.69
1629724806718,-9.05
1629724806734,-5.03
1629724806750,-1.26
1629724806765,2.52
1629724806781,6.37
1629724806796,10.24
1629724806812,14.0
1629724806828,17.55
1629724806843,20.79
1629724806859,23.59
1629724806875,25.81
1629724806890,27.38
1629724806906,28.3
1629724806921,28.7
1629724806937,28.83
1629724806953,28.93
1629724806968,29.23
1629724806984,29.77
1629724807000,30.48
1629724807015,31.13
1629724807031,31.44
1629724807046,31.15
1629724807062,30.17
1629724807078,28.56
1629724807093,26.54
1629724807109,24.44
1629724807125,22.49
1629724807140,20.79
1629724807156,19.24
1629724807171,17.64
1629724807187,15.8
1629724807203,13.64
1629724807218,11.24
1629724807234,8.8
1629724807250,6.53
1629724807265,4.56
1629724807281,2.87
1629724807296,1.28
1629724807312,-0.47
1629724807328,-2.59
1629724807343,-5.17
1629724807359,-8.14
1629724807375,-11.32
1629724807390,-14.47
1629724807406,-17.43
1629724807421,-20.17
1629724807437,-22.8
1629724807453,-25.52
1629724807468,-28.54
1629724807484,-31.99
1629724807500,-35.86
1629724807515,-39.91
1629724807531,-43.64
1629724807546,-46.39
1629724807562,-47.49
1629724807578,-46.46
1629724807593,-43.2
1629724807609,-38.01
1629724807625,-31.58
1629724807640,-24.72
1629724807656,-18.2
1629724807671,-12.5
1629724807687,-7.74
1629724807703,-3.76
1629724807718,-0.22
1629724807734,3.24
1629724807750,6.78
1629724807765,10.39
1629724807781,13.85
1629724807796,16.91
1629724807812,19.46
1629724807828,21.53
1629724807843,23.29
1629724807859,24.93
1629724807875,26.52
1629724807890,27.99
1629724807906,29.21
1629724807921,30.06
1629724807937,30.56
1629724807953,30.8
1629724807968,30.87
1629724807984,30.76
1629724808000,30.39
1629724808015,29.61
1629724808031,28.36
1629724808046,26.73
1629724808062,24.86
1629724808078,22.94
1629724808093,21.1
1629724808109,19.4
1629724808125,17.84
1629724808140,16.37
1629724808156,14.93
1629724808171,13.42
1629724808187,11.78
1629724808203,9.96
1629724808218,7.97
1629724808234,5.89
1629724808250,3.8
1629724808265,1.72
1629724808281,-0.38
1629724808296,-2.56
1629724808312,-4.81
1629724808328,-7.04
1629724808343,-9.12
1629724808359,-10.99
1629724808375,-12.74
1629724808390,-14.61
1629724808406,-16.92
1629724808421,-19.92
1629724808437,-23.62
1629724808453,-27.67
1629724808468,-31.43
1629724808484,-34.09
1629724808500,-34.97
1629724808515,-33.71
1629724808531,-30.41
1629724808546,-25.61
1629724808562,-20.05
1629724808578,-14.49
1629724808593,-9.43
1629724808609,-5.09
1629724808625,-1.43
1629724808640,1.72
1629724808656,4.47
1629724808671,6.86
1629724808687,8.89
1629724808703,10.58
1629724808718,12.01
1629724808734,13.3
1629724808750,14.56
1629724808765,15.82
1629724808781,17.03
1629724808796,18.05
1629724808812,18.78
1629724808828,19.21
1629724808843,19.45
1629724808859,19.65
1629724808875,19.95
1629724808890,20.34
1629724808906,20.66
1629724808921,20.7
1629724808937,20.23
1629724808953,19.13
1629724808968,17.41
1629724808984,15.26
1629724809000,12.96
1629724809015,10.8
1629724809031,8.98
1629724809046,7.52
1629724809062,6.24
1629724809078,4.85
1629724809093,3.05
1629724809109,0.71
1629724809125,-2.04
1629724809140,-4.87
1629724809156,-7.43
1629724809171,-9.5
1629724809187,-11.1
1629724809203,-12.56
1629724809218,-14.29
1629724809234,-16.67
1629724809250,-19.89
1629724809265,-23.93
1629724809281,-28.54
1629724809296,-33.26
1629724809312,-37.45
1629724809328,-40.39
1629724809343,-41.42
1629724809359,-40.17
1629724809375,-36.66
1629724809390,-31.35
1629724809406,-25.07
1629724809421,-18.74
1629724809437,-13.11
1629724809453,-8.61
1629724809468,-5.25
1629724809484,-2.72
1629724809500,-0.55
1629724809515,1.64
1629724809531,4.07
1629724809546,6.73
1629724809562,9.47
1629724809578,12.07
1629724809593,14.38
1629724809609,16.3
1629724809625,17.87
1629724809640,19.1
1629724809656,20.0
1629724809671,20.54
1629724809687,20.78
1629724809703,20.8
1629724809718,20.76
1629724809734,20.76
1629724809750,20.72
1629724809765,20.46
1629724809781,19.71
1629724809796,18.3
1629724809812,16.26
1629724809828,13.81
1629724809843,11.27
1629724809859,8.92
1629724809875,6.87
1629724809890,5.05
1629724809906,3.24
1629724809921,1.21
1629724809937,-1.17
1629724809953,-3.85
1629724809968,-6.64
1629724809984,-9.33
1629724810000,-11.76
1629724810015,-13.94
1629724810031,-16.1
1629724810046,-18.59
1629724810062,-21.73
1629724810078,-25.68
1629724810093,-30.32
1629724810109,-35.23
1629724810125,-39.74
1629724810140,-43.12
1629724810156,-44.72
1629724810171,-44.19
1629724810187,-41.56
1629724810203,-37.26
1629724810218,-31.99
1629724810234,-26.53
1629724810250,-21.48
1629724810265,-17.16
1629724810281,-13.49
1629724810296,-10.13
1629724810312,-6.72
1629724810328,-2.98
1629724810343,1.1
1629724810359,5.34
1629724810375,9.46
1629724810390,13.22
1629724810406,16.46
1629724810421,19.16
1629724810437,21.42
1629724810453,23.31
1629724810468,24.92
1629724810484,26.26
1629724810500,27.3
1629724810515,28.09
1629724810531,28.64
1629724810546,28.98
1629724810562,29.14
1629724810578,29.08
1629724810593,28.72
1629724810609,27.98
1629724810625,26.76
1629724810640,25.06
1629724810656,22.97
1629724810671,20.63
1629724810687,18.2
1629724810703,15.83
1629724810718,13.55
1629724810734,11.29
1629724810750,8.91
1629724810765,6.24
1629724810781,3.13
1629724810796,-0.38
1629724810812,-4.19
1629724810828,-8.05
1629724810843,-11.71
1629724810859,-15.0
1629724810875,-17.96
1629724810890,-20.73
1629724810906,-23.57
1629724810921,-26.78
1629724810937,-30.62
1629724810953,-35.22
1629724810968,-40.47
1629724810984,-45.94
1629724811000,-50.87
1629724811015,-54.34
1629724811031,-55.5
1629724811046,-53.92
1629724811062,-49.72
1629724811078,-43.59
1629724811093,-36.51
1629724811109,-29.43
1629724811125,-22.95
1629724811140,-17.28
1629724811156,-12.27
1629724811171,-7.64
1629724811187,-3.1
1629724811203,1.57
1629724811218,6.42
1629724811234,11.42
1629724811250,16.4
1629724811265,21.16
1629724811281,25.43
1629724811296,29.02
1629724811312,31.85
1629724811328,33.9
1629724811343,35.28
1629724811359,36.11
1629724811375,36.59
1629724811390,36.93
1629724811406,37.37
1629724811421,38.01
1629724811437,38.76
1629724811453,39.39
1629724811468,39.53
1629724811484,38.9
1629724811500,37.43
1629724811515,35.29
1629724811531,32.77
1629724811546,30.17
1629724811562,27.64
1629724811578,25.2
1629724811593,22.78
1629724811609,20.34
1629724811625,17.88
1629724811640,15.47
1629724811656,13.11
1629724811671,10.72
1629724811687,8.15
1629724811703,5.24
1629724811718,1.93
1629724811734,-1.75
1629724811750,-5.7
1629724811765,-9.84
1629724811781,-14.13
1629724811796,-18.52
1629724811812,-22.93
1629724811828,-27.24
1629724811843,-31.36
1629724811859,-35.33
1629724811875,-39.4
1629724811890,-43.93
1629724811906,-49.12
1629724811921,-54.79
1629724811937,-60.26
1629724811953,-64.45
1629724811968,-66.26
1629724811984,-65.0
1629724812000,-60.66
1629724812015,-53.92
1629724812031,-45.86
1629724812046,-37.56
1629724812062,-29.78
1629724812078,-22.82
1629724812093,-16.57
1629724812109,-10.73
1629724812125,-4.96
1629724812140,0.97
1629724812156,7.14
1629724812171,13.46
1629724812187,19.72
1629724812203,25.59
1629724812218,30.75
1629724812234,34.96
1629724812250,38.09
1629724812265,40.2
1629724812281,41.48
1629724812296,42.19
1629724812312,42.57
1629724812328,42.87
1629724812343,43.24
1629724812359,43.74
1629724812375,44.3
1629724812390,44.7
1629724812406,44.65
1629724812421,43.91
1629724812437,42.39
1629724812453,40.2
1629724812468,37.68
1629724812484,35.22
1629724812500,33.07
1629724812515,31.27
1629724812531,29.64
1629724812546,27.87
1629724812562,25.71
1629724812578,23.05
1629724812593,19.94
1629724812609,16.59
1629724812625,13.23
1629724812640,10.02
1629724812656,7.03
1629724812671,4.17
1629724812687,1.32
1629724812703,-1.67
1629724812718,-4.89
1629724812734,-8.35
1629724812750,-11.97
1629724812765,-15.65
1629724812781,-19.28
1629724812796,-22.83
1629724812812,-26.35
1629724812828,-29.95
1629724812843,-33.84
1629724812859,-38.26
1629724812875,-43.39
1629724812890,-49.19
1629724812906,-55.25
1629724812921,-60.78
1629724812937,-64.73
1629724812953,-66.1
1629724812968,-64.31
1629724812984,-59.41
1629724813000,-52.14
1629724813015,-43.66
1629724813031,-35.13
1629724813046,-27.35
1629724813062,-20.59
1629724813078,-14.68
1629724813093,-9.18
1629724813109,-3.65
1629724813125,2.16
1629724813140,8.29
1629724813156,14.61
1629724813171,20.83
1629724813187,26.61
1629724813203,31.61
1629724813218,35.56
1629724813234,38.33
1629724813250,39.96
1629724813265,40.65
1629724813281,40.75
1629724813296,40.65
1629724813312,40.69
1629724813328,41.06
1629724813343,41.81
1629724813359,42.76
1629724813375,43.65
1629724813390,44.18
1629724813406,44.07
1629724813421,43.19
1629724813437,41.57
1629724813453,39.36
1629724813468,36.88
1629724813484,34.43
1629724813500,32.24
1629724813515,30.38
1629724813531,28.71
1629724813546,26.95
1629724813562,24.86
1629724813578,22.27
1629724813593,19.27
1629724813609,16.08
1629724813625,12.97
1629724813640,10.14
1629724813656,7.6
1629724813671,5.25
1629724813687,2.85
1629724813703,0.26
1629724813718,-2.6
1629724813734,-5.68
1629724813750,-8.84
1629724813765,-11.93
1629724813781,-14.88
1629724813796,-17.7
1629724813812,-20.51
1629724813828,-23.51
1629724813843,-26.91
1629724813859,-30.91
1629724813875,-35.62
1629724813890,-40.91
1629724813906,-46.39
1629724813921,-51.36
1629724813937,-54.97
1629724813953,-56.38
1629724813968,-55.09
1629724813984,-51.12
1629724814000,-45.06
1629724814015,-37.85
1629724814031,-30.47
1629724814046,-23.63
1629724814062,-17.62
1629724814078,-12.33
1629724814093,-7.41
1629724814109,-2.52
1629724814125,2.53
1629724814140,7.75
1629724814156,12.97
1629724814171,17.98
1629724814187,22.54
1629724814203,26.46
1629724814218,29.61
1629724814234,31.93
1629724814250,33.41
1629724814265,34.14
1629724814281,34.26
1629724814296,34.03
1629724814312,33.76
1629724814328,33.72
1629724814343,34.0
1629724814359,34.53
1629724814375,35.06
1629724814390,35.22
1629724814406,34.76
1629724814421,33.61
1629724814437,31.91
1629724814453,29.97
1629724814468,28.08
1629724814484,26.38
1629724814500,24.87
1629724814515,23.4
1629724814531,21.82
1629724814546,20.07
1629724814562,18.15
1629724814578,16.14
1629724814593,14.1
1629724814609,12.06
1629724814625,10.03
1629724814640,8.01
1629724814656,5.99
1629724814671,3.92
1629724814687,1.71
1629724814703,-0.79
1629724814718,-3.66
1629724814734,-6.86
1629724814750,-10.2
1629724814765,-13.4
1629724814781,-16.25
1629724814796,-18.65
1629724814812,-20.7
1629724814828,-22.64
1629724814843,-24.77
1629724814859,-27.35
1629724814875,-30.47
1629724814890,-34.04
1629724814906,-37.64
1629724814921,-40.67
1629724814937,-42.43
1629724814953,-42.35
1629724814968,-40.21
1629724814984,-36.23
1629724815000,-31.0
1629724815015,-25.23
1629724815031,-19.53
1629724815046,-14.25
1629724815062,-9.5
1629724815078,-5.23
1629724815093,-1.37
1629724815109,2.13
1629724815125,5.29
1629724815140,8.14
1629724815156,10.72
1629724815171,13.05
1629724815187,15.14
1629724815203,16.99
1629724815218,18.58
1629724815234,19.95
1629724815250,21.11
1629724815265,22.11
1629724815281,22.92
1629724815296,23.5
1629724815312,23.8
1629724815328,23.78
1629724815343,23.48
1629724815359,22.94
1629724815375,22.2
1629724815390,21.27
1629724815406,20.1
1629724815421,18.65
1629724815437,16.98
1629724815453,15.17
1629724815468,13.39
1629724815484,11.77
1629724815500,10.39
1629724815515,9.22
1629724815531,8.13
1629724815546,6.95
1629724815562,5.55
1629724815578,3.89
1629724815593,1.99
1629724815609,-0.07
1629724815625,-2.2
1629724815640,-4.37
1629724815656,-6.58
1629724815671,-8.88
1629724815687,-11.31
1629724815703,-13.88
1629724815718,-16.58
1629724815734,-19.42
1629724815750,-22.45
1629724815765,-25.74
1629724815781,-29.38
1629724815796,-33.27
1629724815812,-37.04
1629724815828,-40.07
1629724815843,-41.65
1629724815859,-41.22
1629724815875,-38.64
1629724815890,-34.33
1629724815906,-29.05
1629724815921,-23.71
1629724815937,-18.9
1629724815953,-14.84
1629724815968,-11.31
1629724815984,-7.97
1629724816000,-4.52
1629724816015,-0.93
1629724816031,2.64
1629724816046,5.95
1629724816062,8.87
1629724816078,11.45
1629724816093,13.8
1629724816109,16.03
1629724816125,18.09
1629724816140,19.86
1629724816156,21.16
1629724816171,21.95
1629724816187,22.3
1629724816203,22.38
1629724816218,22.38
1629724816234,22.4
1629724816250,22.45
1629724816265,22.48
1629724816281,22.37
1629724816296,22.03
1629724816312,21.32
1629724816328,20.14
1629724816343,18.41
1629724816359,16.15
1629724816375,13.5
1629724816390,10.72
1629724816406,8.05
1629724816421,5.61
1629724816437,3.38
1629724816453,1.23
1629724816468,-0.98
1629724816484,-3.34
1629724816500,-5.83
1629724816515,-8.34
1629724816531,-10.73
1629724816546,-12.89
1629724816562,-14.82
1629724816578,-16.59
1629724816593,-18.39
1629724816609,-20.49
1629724816625,-23.12
1629724816640,-26.46
1629724816656,-30.48
1629724816671,-34.88
1629724816687,-39.07
1629724816703,-42.28
1629724816718,-43.8
1629724816734,-43.16
1629724816750,-40.37
1629724816765,-35.86
1629724816781,-30.39
1629724816796,-24.72
1629724816812,-19.41
1629724816828,-14.7
1629724816843,-10.51
1629724816859,-6.63
1629724816875,-2.82
1629724816890,1.04
1629724816906,4.98
1629724816921,8.87
1629724816937,12.56
1629724816953,15.85
1629724816968,18.59
1629724816984,20.7
1629724817000,22.26
1629724817015,23.38
1629724817031,24.23
1629724817046,24.92
1629724817062,25.5
1629724817078,26.02
1629724817093,26.57
1629724817109,27.16
1629724817125,27.8
1629724817140,28.35
1629724817156,28.58
1629724817171,28.28
1629724817187,27.35
1629724817203,25.85
1629724817218,23.99
1629724817234,21.98
1629724817250,19.94
1629724817265,17.87
1629724817281,15.73
1629724817296,13.5
1629724817312,11.25
1629724817328,9.09
1629724817343,7.12
1629724817359,5.34
1629724817375,3.65
1629724817390,1.84
1629724817406,-0.27
1629724817421,-2.79
1629724817437,-5.75
1629724817453,-9.04
1629724817468,-12.49
1629724817484,-15.92
1629724817500,-19.15
1629724817515,-22.08
1629724817531,-24.76
1629724817546,-27.35
1629724817562,-30.16
1629724817578,-33.47
1629724817593,-37.39
1629724817609,-41.72
1629724817625,-45.95
1629724817640,-49.35
1629724817656,-51.17
1629724817671,-50.86
1629724817687,-48.27
1629724817703,-43.66
1629724817718,-37.67
1629724817734,-31.08
1629724817750,-24.61
1629724817765,-18.77
1629724817781,-13.69
1629724817796,-9.25
1629724817812,-5.13
1629724817828,-1.05
1629724817843,3.16
1629724817859,7.47
1629724817875,11.76
1629724817890,15.83
1629724817906,19.55
1629724817921,22.78
1629724817937,25.41
1629724817953,27.4
1629724817968,28.75
1629724817984,29.55
1629724818000,29.97
1629724818015,30.22
1629724818031,30.47
1629724818046,30.81
1629724818062,31.22
1629724818078,31.55
1629724818093,31.63
1629724818109,31.3
1629724818125,30.47
1629724818140,29.15
1629724818156,27.45
1629724818171,25.57
1629724818187,23.72
1629724818203,22.0
1629724818218,20.42
1629724818234,18.87
1629724818250,17.22
1629724818265,15.36
1629724818281,13.24
1629724818296,10.93
1629724818312,8.53
1629724818328,6.14
1629724818343,3.83
1629724818359,1.6
1629724818375,-0.61
1629724818390,-2.94
1629724818406,-5.51
1629724818421,-8.4
1629724818437,-11.57
1629724818453,-14.92
1629724818468,-18.29
1629724818484,-21.53
1629724818500,-24.6
1629724818515,-27.52
1629724818531,-30.43
1629724818546,-33.47
1629724818562,-36.79
1629724818578,-40.48
1629724818593,-44.49
1629724818609,-48.51
1629724818625,-52.04
1629724818640,-54.38
1629724818656,-54.88
1629724818671,-53.14
1629724818687,-49.17
1629724818703,-43.48
1629724818718,-36.87
1629724818734,-30.18
1629724818750,-24.01
1629724818765,-18.57
1629724818781,-13.71
1629724818796,-9.06
1629724818812,-4.23
1629724818828,0.96
1629724818843,6.44
1629724818859,11.93
1629724818875,17.07
1629724818890,21.53
1629724818906,25.13
1629724818921,27.88
1629724818937,29.89
1629724818953,31.32
1629724818968,32.32
1629724818984,33.01
1629724819000,33.48
1629724819015,33.83
1629724819031,34.11
1629724819046,34.34
1629724819062,34.45
1629724819078,34.33
1629724819093,33.85
1629724819109,32.92
1629724819125,31.55
1629724819140,29.86
1629724819156,27.99
1629724819171,26.08
1629724819187,24.24
1629724819203,22.55
1629724819218,21.01
1629724819234,19.62
1629724819250,18.29
1629724819265,16.92
1629724819281,15.41
1629724819296,13.69
1629724819312,11.76
1629724819328,9.69
1629724819343,7.56
1629724819359,5.46
1629724819375,3.39
1629724819390,1.24
1629724819406,-1.11
1629724819421,-3.8
1629724819437,-6.87
1629724819453,-10.24
1629724819468,-13.7
1629724819484,-16.98
1629724819500,-19.86
1629724819515,-22.28
1629724819531,-24.35
1629724819546,-26.39
1629724819562,-28.79
1629724819578,-31.93
1629724819593,-35.99
1629724819609,-40.88
1629724819625,-46.15
1629724819640,-51.08
1629724819656,-54.73
1629724819671,-56.29
1629724819687,-55.23
1629724819703,-51.56
1629724819718,-45.82
1629724819734,-38.92
1629724819750,-31.83
1629724819765,-25.31
1629724819781,-19.71
1629724819796,-15.0
1629724819812,-10.85
1629724819828,-6.85
1629724819843,-2.67
1629724819859,1.86
1629724819875,6.68
1629724819890,11.57
1629724819906,16.24
1629724819921,20.39
1629724819937,23.82
1629724819953,26.42
1629724819968,28.23
1629724819984,29.4
1629724820000,30.11
1629724820015,30.54
1629724820031,30.85
1629724820046,31.12
1629724820062,31.36
1629724820078,31.49
1629724820093,31.38
1629724820109,30.89
1629724820125,29.98
1629724820140,28.7
1629724820156,27.23
1629724820171,25.71
1629724820187,24.25
1629724820203,22.9
1629724820218,21.64
1629724820234,20.47
1629724820250,19.37
1629724820265,18.27
1629724820281,17.08
1629724820296,15.62
1629724820312,13.77
1629724820328,11.53
1629724820343,9.09
1629724820359,6.72
1629724820375,4.7
1629724820390,3.16
1629724820406,2.01
1629724820421,0.93
1629724820437,-0.39
1629724820453,-2.24
1629724820468,-4.71
1629724820484,-7.7
1629724820500,-10.95
1629724820515,-14.14
1629724820531,-16.99
1629724820546,-19.41
1629724820562,-21.5
1629724820578,-23.54
1629724820593,-25.9
1629724820609,-28.88
1629724820625,-32.58
1629724820640,-36.82
1629724820656,-41.13
1629724820671,-44.83
1629724820687,-47.21
1629724820703,-47.7
1629724820718,-45.99
1629724820734,-42.19
1629724820750,-36.73
1629724820765,-30.3
1629724820781,-23.66
1629724820796,-17.46
1629724820812,-12.09
1629724820828,-7.64
1629724820843,-3.95
1629724820859,-0.68
1629724820875,2.51
1629724820890,5.79
1629724820906,9.18
1629724820921,12.47
1629724820937,15.42
1629724820953,17.82
1629724820968,19.59
1629724820984,20.82
1629724821000,21.64
1629724821015,22.21
1629724821031,22.64
1629724821046,23.02
1629724821062,23.4
1629724821078,23.84
1629724821093,24.38
1629724821109,24.97
1629724821125,25.5
1629724821140,25.75
1629724821156,25.56
1629724821171,24.83
1629724821187,23.62
1629724821203,22.11
1629724821218,20.53
1629724821234,19.05
1629724821250,17.67
1629724821265,16.31
1629724821281,14.83
1629724821296,13.13
1629724821312,11.24
1629724821328,9.26
1629724821343,7.25
1629724821359,5.26
1629724821375,3.25
1629724821390,1.16
1629724821406,-1.04
1629724821421,-3.32
1629724821437,-5.61
1629724821453,-7.84
1629724821468,-10.0
1629724821484,-12.14
1629724821500,-14.32
1629724821515,-16.56
1629724821531,-18.85
1629724821546,-21.17
1629724821562,-23.63
1629724821578,-26.46
1629724821593,-29.85
1629724821609,-33.85
1629724821625,-38.06
1629724821640,-41.7
1629724821656,-43.8
1629724821671,-43.56
1629724821687,-40.69
1629724821703,-35.58
1629724821718,-29.11
1629724821734,-22.3
1629724821750,-15.97
1629724821765,-10.51
1629724821781,-5.92
1629724821796,-2.02
1629724821812,1.36
1629724821828,4.27
1629724821843,6.71
1629724821859,8.69
1629724821875,10.32
1629724821890,11.8
1629724821906,13.31
1629724821921,14.93
1629724821937,16.62
1629724821953,18.21
1629724821968,19.49
1629724821984,20.31
1629724822000,20.62
1629724822015,20.53
1629724822031,20.21
1629724822046,19.86
1629724822062,19.6
1629724822078,19.43
1629724822093,19.24
1629724822109,18.86
1629724822125,18.11
1629724822140,16.94
1629724822156,15.43
1629724822171,13.74
1629724822187,12.05
1629724822203,10.5
1629724822218,9.08
1629724822234,7.73
1629724822250,6.33
1629724822265,4.78
1629724822281,3.03
1629724822296,1.11
1629724822312,-0.94
1629724822328,-3.07
1629724822343,-5.22
1629724822359,-7.35
1629724822375,-9.41
1629724822390,-11.42
1629724822406,-13.42
1629724822421,-15.51
1629724822437,-17.85
1629724822453,-20.6
1629724822468,-23.89
1629724822484,-27.75
1629724822500,-31.98
1629724822515,-36.13
1629724822531,-39.55
1629724822546,-41.52
1629724822562,-41.53
1629724822578,-39.46
1629724822593,-35.59
1629724822609,-30.55
1629724822625,-25.09
1629724822640,-19.84
1629724822656,-15.16
1629724822671,-11.09
1629724822687,-7.45
1629724822703,-4.0
1629724822718,-0.56
1629724822734,2.87
1629724822750,6.2
1629724822765,9.28
1629724822781,12.0
1629724822796,14.35
1629724822812,16.44
1629724822828,18.34
1629724822843,20.1
1629724822859,21.66
1629724822875,22.9
1629724822890,23.72
1629724822906,24.08
1629724822921,24.09
1629724822937,23.88
1629724822953,23.58
1629724822968,23.26
1629724822984,22.87
1629724823000,22.32
1629724823015,21.47
1629724823031,20.23
1629724823046,18.57
1629724823062,16.56
1629724823078,14.3
1629724823093,11.93
1629724823109,9.58
1629724823125,7.36
1629724823140,5.3
1629724823156,3.38
1629724823171,1.53
1629724823187,-0.38
1629724823203,-2.44
1629724823218,-4.7
1629724823234,-7.14
1629724823250,-9.68
1629724823265,-12.18
1629724823281,-14.56
1629724823296,-16.84
1629724823312,-19.16
1629724823328,-21.8
1629724823343,-25.05
1629724823359,-29.12
1629724823375,-34.01
1629724823390,-39.42
1629724823406,-44.73
1629724823421,-49.1
1629724823437,-51.66
1629724823453,-51.77
1629724823468,-49.28
1629724823484,-44.52
1629724823500,-38.25
1629724823515,-31.43
1629724823531,-24.86
1629724823546,-19.03
1629724823562,-14.03
1629724823578,-9.67
1629724823593,-5.6
1629724823609,-1.55
1629724823625,2.69
1629724823640,7.15
1629724823656,11.7
1629724823671,16.12
1629724823687,20.17
1629724823703,23.56
1629724823718,26.13
1629724823734,27.85
1629724823750,28.8
1629724823765,29.22
1629724823781,29.36
1629724823796,29.47
1629724823812,29.7
1629724823828,30.14
1629724823843,30.74
1629724823859,31.36
1629724823875,31.82
1629724823890,31.91
1629724823906,31.43
1629724823921,30.34
1629724823937,28.7
1629724823953,26.66
1629724823968,24.43
1629724823984,22.16
1629724824000,20.0
1629724824015,18.0
1629724824031,16.14
1629724824046,14.35
1629724824062,12.57
1629724824078,10.66
1629724824093,8.54
1629724824109,6.16
1629724824125,3.49
1629724824140,0.59
1629724824156,-2.49
1629724824171,-5.71
1629724824187,-9.02
1629724824203,-12.32
1629724824218,-15.51
1629724824234,-18.47
1629724824250,-21.15
1629724824265,-23.63
1629724824281,-26.12
1629724824296,-28.95
1629724824312,-32.46
1629724824328,-36.85
1629724824343,-42.04
1629724824359,-47.65
1629724824375,-52.96
1629724824390,-57.09
1629724824406,-59.24
1629724824421,-58.87
1629724824437,-55.93
1629724824453,-50.83
1629724824468,-44.32
1629724824484,-37.28
1629724824500,-30.45
1629724824515,-24.22
1629724824531,-18.62
1629724824546,-13.38
1629724824562,-8.13
1629724824578,-2.59
1629724824593,3.25
1629724824609,9.18
1629724824625,14.82
1629724824640,19.84
1629724824656,24.03
1629724824671,27.36
1629724824687,29.93
1629724824703,31.89
1629724824718,33.37
1629724824734,34.44
1629724824750,35.18
1629724824765,35.67
1629724824781,35.98
1629724824796,36.16
1629724824812,36.22
1629724824828,36.08
1629724824843,35.69
1629724824859,35.0
1629724824875,34.0
1629724824890,32.76
1629724824906,31.35
1629724824921,29.83
1629724824937,28.25
1629724824953,26.65
1629724824968,25.06
1629724824984,23.49
1629724825000,21.9
1629724825015,20.26
1629724825031,18.46
1629724825046,16.48
1629724825062,14.26
1629724825078,11.84
1629724825093,9.27
1629724825109,6.59
1629724825125,3.8
1629724825140,0.87
1629724825156,-2.25
1629724825171,-5.57
1629724825187,-9.07
1629724825203,-12.69
1629724825218,-16.33
1629724825234,-19.93
1629724825250,-23.48
1629724825265,-27.04
1629724825281,-30.72
1629724825296,-34.68
1629724825312,-39.06
1629724825328,-43.94
1629724825343,-49.26
1629724825359,-54.71
1629724825375,-59.69
1629724825390,-63.42
1629724825406,-65.1
1629724825421,-64.16
1629724825437,-60.48
1629724825453,-54.49
1629724825468,-46.94
1629724825484,-38.76
1629724825500,-30.74
1629724825515,-23.35
1629724825531,-16.7
1629724825546,-10.63
1629724825562,-4.88
1629724825578,0.78
1629724825593,6.44
1629724825609,12.06
1629724825625,17.44
1629724825640,22.36
1629724825656,26.6
1629724825671,30.04
1629724825687,32.66
1629724825703,34.5
1629724825718,35.68
1629724825734,36.35
1629724825750,36.67
1629724825765,36.82
1629724825781,36.98
1629724825796,37.26
1629724825812,37.68
1629724825828,38.16
1629724825843,38.52
1629724825859,38.59
1629724825875,38.2
1629724825890,37.28
1629724825906,35.83
1629724825921,33.96
1629724825937,31.8
1629724825953,29.55
1629724825968,27.37
1629724825984,25.32
1629724826000,23.39
1629724826015,21.49
1629724826031,19.52
1629724826046,17.42
1629724826062,15.22
1629724826078,12.99
1629724826093,10.79
1629724826109,8.63
1629724826125,6.43
1629724826140,4.08
1629724826156,1.44
1629724826171,-1.57
1629724826187,-4.94
1629724826203,-8.59
1629724826218,-12.36
1629724826234,-16.08
1629724826250,-19.61
1629724826265,-22.91
1629724826281,-26.07
1629724826296,-29.29
1629724826312,-32.81
1629724826328,-36.82
1629724826343,-41.4
1629724826359,-46.45
1629724826375,-51.65
1629724826390,-56.46
1629724826406,-60.19
1629724826421,-62.14
1629724826437,-61.79
1629724826453,-58.94
1629724826468,-53.83
1629724826484,-47.1
1629724826500,-39.53
1629724826515,-31.87
1629724826531,-24.62
1629724826546,-17.92
1629724826562,-11.69
1629724826578,-5.74
1629724826593,0.09
1629724826609,5.88
1629724826625,11.57
1629724826640,17.03
1629724826656,22.07
1629724826671,26.43
1629724826687,29.96
1629724826703,32.53
1629724826718,34.2
1629724826734,35.12
1629724826750,35.51
1629724826765,35.64
1629724826781,35.7
1629724826796,35.85
1629724826812,36.14
1629724826828,36.54
1629724826843,36.95
1629724826859,37.2
1629724826875,37.12
1629724826890,36.61
1629724826906,35.71
1629724826921,34.52
1629724826937,33.24
1629724826953,31.98
1629724826968,30.76
1629724826984,29.49
1629724827000,28.04
1629724827015,26.36
1629724827031,24.42
1629724827046,22.27
1629724827062,19.97
1629724827078,17.6
1629724827093,15.19
1629724827109,12.75
1629724827125,10.28
1629724827140,7.78
1629724827156,5.23
1629724827171,2.59
1629724827187,-0.18
1629724827203,-3.15
1629724827218,-6.33
1629724827234,-9.7
1629724827250,-13.16
1629724827265,-16.54
1629724827281,-19.7
1629724827296,-22.54
1629724827312,-25.08
1629724827328,-27.53
1629724827343,-30.21
1629724827359,-33.48
1629724827375,-37.54
1629724827390,-42.34
1629724827406,-47.44
1629724827421,-52.11
1629724827437,-55.46
1629724827453,-56.73
1629724827468,-55.5
1629724827484,-51.79
1629724827500,-46.11
1629724827515,-39.21
1629724827531,-31.86
1629724827546,-24.71
1629724827562,-18.13
1629724827578,-12.28
1629724827593,-7.13
1629724827609,-2.55
1629724827625,1.7
1629724827640,5.83
1629724827656,10.02
1629724827671,14.3
1629724827687,18.48
1629724827703,22.27
1629724827718,25.35
1629724827734,27.56
1629724827750,28.97
1629724827765,29.84
1629724827781,30.48
1629724827796,31.11
1629724827812,31.78
1629724827828,32.4
1629724827843,32.88
1629724827859,33.12
1629724827875,33.15
1629724827890,33.03
1629724827906,32.75
1629724827921,32.22
1629724827937,31.31
1629724827953,29.94
1629724827968,28.16
1629724827984,26.18
1629724828000,24.25
1629724828015,22.54
1629724828031,21.02
1629724828046,19.53
1629724828062,17.86
1629724828078,15.93
1629724828093,13.83
1629724828109,11.77
1629724828125,9.95
1629724828140,8.43
1629724828156,7.1
1629724828171,5.74
1629724828187,4.15
1629724828203,2.2
1629724828218,-0.08
1629724828234,-2.63
1629724828250,-5.4
1629724828265,-8.35
1629724828281,-11.43
1629724828296,-14.53
1629724828312,-17.5
1629724828328,-20.23
1629724828343,-22.79
1629724828359,-25.39
1629724828375,-28.4
1629724828390,-32.02
1629724828406,-36.11
1629724828421,-40.07
1629724828437,-42.98
1629724828453,-43.95
1629724828468,-42.5
1629724828484,-38.7
1629724828500,-33.22
1629724828515,-26.93
1629724828531,-20.68
1629724828546,-14.95
1629724828562,-9.93
1629724828578,-5.56
1629724828593,-1.69
1629724828609,1.77
1629724828625,4.86
1629724828640,7.6
1629724828656,10.02
1629724828671,12.14
1629724828687,13.97
1629724828703,15.55
1629724828718,16.82
1629724828734,17.79
1629724828750,18.5
1629724828765,19.01
1629724828781,19.43
1629724828796,19.87
1629724828812,20.39
1629724828828,21.01
1629724828843,21.69
1629724828859,22.33
1629724828875,22.81
1629724828890,23.01
1629724828906,22.8
1629724828921,22.1
1629724828937,20.91
1629724828953,19.29
1629724828968,17.38
1629724828984,15.35
1629724829000,13.37
1629724829015,11.56
1629724829031,9.94
1629724829046,8.42
1629724829062,6.81
1629724829078,4.94
1629724829093,2.7
1629724829109,0.11
1629724829125,-2.7
1629724829140,-5.53
1629724829156,-8.25
1629724829171,-10.76
1629724829187,-13.12
1629724829203,-15.35
1629724829218,-17.53
1629724829234,-19.67
1629724829250,-21.84
1629724829265,-24.19
1629724829281,-26.92
1629724829296,-30.2
1629724829312,-33.96
1629724829328,-37.78
1629724829343,-40.92
1629724829359,-42.54
1629724829375,-42.07
1629724829390,-39.35
1629724829406,-34.82
1629724829421,-29.2
1629724829437,-23.38
1629724829453,-17.98
1629724829468,-13.35
1629724829484,-9.45
1629724829500,-6.06
1629724829515,-2.87
1629724829531,0.37
1629724829546,3.72
1629724829562,7.1
1629724829578,10.25
1629724829593,12.94
1629724829609,15.05
1629724829625,16.68
1629724829640,18.07
1629724829656,19.47
1629724829671,20.98
1629724829687,22.46
1629724829703,23.61
1629724829718,24.15
1629724829734,23.99
1629724829750,23.34
1629724829765,22.56
1629724829781,21.96
1629724829796,21.7
1629724829812,21.65
1629724829828,21.53
1629724829843,21.08
1629724829859,20.15
1629724829875,18.75
1629724829890,16.99
1629724829906,15.05
1629724829921,13.08
1629724829937,11.21
1629724829953,9.52
1629724829968,8.04
1629724829984,6.71
1629724830000,5.38
1629724830015,3.82
1629724830031,1.82
1629724830046,-0.76
1629724830062,-3.87
1629724830078,-7.33
1629724830093,-10.86
1629724830109,-14.25
1629724830125,-17.37
1629724830140,-20.26
1629724830156,-23.09
1629724830171,-26.12
1629724830187,-29.56
1629724830203,-33.48
1629724830218,-37.73
1629724830234,-41.92
1629724830250,-45.45
1629724830265,-47.67
1629724830281,-48.09
1629724830296,-46.49
1629724830312,-43.01
1629724830328,-38.13
1629724830343,-32.5
1629724830359,-26.74
1629724830375,-21.27
1629724830390,-16.25
1629724830406,-11.6
1629724830421,-7.12
1629724830437,-2.57
1629724830453,2.14
1629724830468,7.01
1629724830484,11.83
1629724830500,16.33
1629724830515,20.21
1629724830531,23.22
1629724830546,25.28
1629724830562,26.47
1629724830578,27.02
1629724830593,27.19
1629724830609,27.23
1629724830625,27.29
1629724830640,27.46
1629724830656,27.72
1629724830671,28.04
1629724830687,28.32
1629724830703,28.42
1629724830718,28.18
1629724830734,27.47
1629724830750,26.24
1629724830765,24.55
1629724830781,22.55
1629724830796,20.45
1629724830812,18.4
1629724830828,16.49
1629724830843,14.68
1629724830859,12.89
1629724830875,11.04
1629724830890,9.11
1629724830906,7.15
1629724830921,5.17
1629724830937,3.13
1629724830953,0.94
1629724830968,-1.56
1629724830984,-4.42
1629724831000,-7.59
1629724831015,-10.89
1629724831031,-14.14
1629724831046,-17.21
1629724831062,-20.14
1629724831078,-23.09
1629724831093,-26.28
1629724831109,-29.95
1629724831125,-34.23
1629724831140,-39.11
1629724831156,-44.37
1629724831171,-49.53
1629724831187,-53.89
1629724831203,-56.62
1629724831218,-57.0
1629724831234,-54.71
1629724831250,-49.98
1629724831265,-43.55
1629724831281,-36.44
1629724831296,-29.59
1629724831312,-23.53
1629724831328,-18.33
1629724831343,-13.66
1629724831359,-9.11
1629724831375,-4.37
1629724831390,0.62
1629724831406,5.76
1629724831421,10.82
1629724831437,15.59
1629724831453,19.93
1629724831468,23.71
1629724831484,26.86
1629724831500,29.3
1629724831515,31.04
1629724831531,32.19
1629724831546,32.96
1629724831562,33.6
1629724831578,34.24
1629724831593,34.91
1629724831609,35.48
1629724831625,35.77
1629724831640,35.69
1629724831656,35.18
1629724831671,34.33
1629724831687,33.23
1629724831703,31.92
1629724831718,30.39
1629724831734,28.6
1629724831750,26.57
1629724831765,24.39
1629724831781,22.22
1629724831796,20.18
1629724831812,18.29
1629724831828,16.48
1629724831843,14.6
1629724831859,12.54
1629724831875,10.33
1629724831890,8.07
1629724831906,5.9
1629724831921,3.83
1629724831937,1.74
1629724831953,-0.57
1629724831968,-3.33
1629724831984,-6.6
1629724832000,-10.3
1629724832015,-14.2
1629724832031,-18.03
1629724832046,-21.62
1629724832062,-24.9
1629724832078,-28.01
1629724832093,-31.18
1629724832109,-34.69
1629724832125,-38.75
1629724832140,-43.43
1629724832156,-48.55
1629724832171,-53.64
1629724832187,-57.97
1629724832203,-60.76
1629724832218,-61.33
1629724832234,-59.38
1629724832250,-55.07
1629724832265,-49.01
1629724832281,-42.02
1629724832296,-34.88
1629724832312,-28.13
1629724832328,-21.97
1629724832343,-16.31
1629724832359,-10.94
1629724832375,-5.64
1629724832390,-0.29
1629724832406,5.1
1629724832421,10.42
1629724832437,15.53
1629724832453,20.28
1629724832468,24.54
1629724832484,28.22
1629724832500,31.29
1629724832515,33.72
1629724832531,35.48
1629724832546,36.56
1629724832562,36.97
1629724832578,36.82
1629724832593,36.34
1629724832609,35.85
1629724832625,35.59
1629724832640,35.69
1629724832656,35.99
1629724832671,36.2
1629724832687,35.99
1629724832703,35.17
1629724832718,33.72
1629724832734,31.81
1629724832750,29.7
1629724832765,27.58
1629724832781,25.57
1629724832796,23.68
1629724832812,21.84
1629724832828,20.02
1629724832843,18.16
1629724832859,16.24
1629724832875,14.26
1629724832890,12.21
1629724832906,10.12
1629724832921,7.96
1629724832937,5.72
1629724832953,3.25
1629724832968,0.44
1629724832984,-2.8
1629724833000,-6.47
1629724833015,-10.39
1629724833031,-14.34
1629724833046,-18.1
1629724833062,-21.53
1629724833078,-24.65
1629724833093,-27.6
1629724833109,-30.57
1629724833125,-33.81
1629724833140,-37.57
1629724833156,-41.99
1629724833171,-47.06
1629724833187,-52.46
1629724833203,-57.49
1629724833218,-61.21
1629724833234,-62.67
1629724833250,-61.24
1629724833265,-56.92
1629724833281,-50.32
1629724833296,-42.45
1629724833312,-34.37
1629724833328,-26.82
1629724833343,-20.11
1629724833359,-14.19
1629724833375,-8.8
1629724833390,-3.65
1629724833406,1.48
1629724833421,6.68
1629724833437,11.91
1629724833453,17.05
1629724833468,21.83
1629724833484,25.99
1629724833500,29.3
1629724833515,31.7
1629724833531,33.27
1629724833546,34.22
1629724833562,34.76
1629724833578,35.04
1629724833593,35.13
1629724833609,35.13
1629724833625,35.08
1629724833640,35.06
1629724833656,35.06
1629724833671,35.04
1629724833687,34.87
1629724833703,34.42
1629724833718,33.63
1629724833734,32.52
1629724833750,31.16
1629724833765,29.61
1629724833781,27.93
1629724833796,26.16
1629724833812,24.33
1629724833828,22.47
1629724833843,20.6
1629724833859,18.72
1629724833875,16.77
1629724833890,14.74
1629724833906,12.64
1629724833921,10.53
1629724833937,8.47
1629724833953,6.5
1629724833968,4.56
1629724833984,2.53
1629724834000,0.25
1629724834015,-2.41
1629724834031,-5.47
1629724834046,-8.86
1629724834062,-12.4
1629724834078,-15.86
1629724834093,-19.05
1629724834109,-21.83
1629724834125,-24.22
1629724834140,-26.46
1629724834156,-28.91
1629724834171,-31.99
1629724834187,-35.99
1629724834203,-40.88
1629724834218,-46.23
1629724834234,-51.29
1629724834250,-55.11
1629724834265,-56.84
1629724834281,-56.01
1629724834296,-52.59
1629724834312,-46.99
1629724834328,-39.95
1629724834343,-32.28
1629724834359,-24.73
1629724834375,-17.84
1629724834390,-11.87
1629724834406,-6.82
1629724834421,-2.44
1629724834437,1.62
1629724834453,5.68
1629724834468,9.89
1629724834484,14.19
1629724834500,18.3
1629724834515,21.87
1629724834531,24.67
1629724834546,26.61
1629724834562,27.82
1629724834578,28.52
1629724834593,28.96
1629724834609,29.3
1629724834625,29.66
1629724834640,30.09
1629724834656,30.57
1629724834671,31.05
1629724834687,31.4
1629724834703,31.51
1629724834718,31.25
1629724834734,30.61
1629724834750,29.59
1629724834765,28.31
1629724834781,26.84
1629724834796,25.29
1629724834812,23.73
1629724834828,22.28
1629724834843,21.01
1629724834859,19.9
1629724834875,18.85
1629724834890,17.63
1629724834906,16.05
1629724834921,14.02
1629724834937,11.65
1629724834953,9.22
1629724834968,6.99
1629724834984,5.16
1629724835000,3.66
1629724835015,2.29
1629724835031,0.76
1629724835046,-1.19
1629724835062,-3.65
1629724835078,-6.57
1629724835093,-9.8
1629724835109,-13.16
1629724835125,-16.49
1629724835140,-19.62
1629724835156,-22.46
1629724835171,-25.02
1629724835187,-27.46
1629724835203,-30.05
1629724835218,-33.12
1629724835234,-36.87
1629724835250,-41.18
1629724835265,-45.62
1629724835281,-49.4
1629724835296,-51.64
1629724835312,-51.63
1629724835328,-49.11
1629724835343,-44.34
1629724835359,-38.02
1629724835375,-31.05
1629724835390,-24.23
1629724835406,-18.09
1629724835421,-12.78
1629724835437,-8.24
1629724835453,-4.22
1629724835468,-0.5
1629724835484,3.09
1629724835500,6.58
1629724835515,9.96
1629724835531,13.19
1629724835546,16.18
1629724835562,18.87
1629724835578,21.19
1629724835593,23.05
1629724835609,24.44
1629724835625,25.36
1629724835640,25.96
1629724835656,26.43
1629724835671,26.99
1629724835687,27.8
1629724835703,28.84
1629724835718,29.9
1629724835734,30.65
1629724835750,30.75
1629724835765,30.04
1629724835781,28.61
1629724835796,26.75
1629724835812,24.83
1629724835828,23.14
1629724835843,21.81
1629724835859,20.74
1629724835875,19.75
1629724835890,18.61
1629724835906,17.17
1629724835921,15.38
1629724835937,13.3
1629724835953,11.1
1629724835968,8.98
1629724835984,7.1
1629724836000,5.49
1629724836015,4.06
1629724836031,2.58
1629724836046,0.79
1629724836062,-1.45
1629724836078,-4.16
1629724836093,-7.2
1629724836109,-10.35
1629724836125,-13.39
1629724836140,-16.2
1629724836156,-18.75
1629724836171,-21.12
1629724836187,-23.43
1629724836203,-25.88
1629724836218,-28.65
1629724836234,-31.85
1629724836250,-35.36
1629724836265,-38.76
1629724836281,-41.38
1629724836296,-42.44
1629724836312,-41.4
1629724836328,-38.16
1629724836343,-33.13
1629724836359,-27.15
1629724836375,-21.08
1629724836390,-15.57
1629724836406,-10.88
1629724836421,-6.87
1629724836437,-3.31
1629724836453,0.05
1629724836468,3.24
1629724836484,6.17
1629724836500,8.73
1629724836515,10.87
1629724836531,12.63
1629724836546,14.16
1629724836562,15.58
1629724836578,16.97
1629724836593,18.3
1629724836609,19.5
1629724836625,20.48
1629724836640,21.15
1629724836656,21.48
1629724836671,21.52
1629724836687,21.31
1629724836703,20.85
1629724836718,20.15
1629724836734,19.19
1629724836750,18.0
1629724836765,16.67
1629724836781,15.28
1629724836796,13.9
1629724836812,12.53
1629724836828,11.11
1629724836843,9.57
1629724836859,7.88
1629724836875,6.1
1629724836890,4.27
1629724836906,2.4
1629724836921,0.42
1629724836937,-1.77
1629724836953,-4.21
1629724836968,-6.86
1629724836984,-9.55
1629724837000,-12.12
1629724837015,-14.43
1629724837031,-16.46
1629724837046,-18.27
1629724837062,-20.05
1629724837078,-22.03
1629724837093,-24.47
1629724837109,-27.52
1629724837125,-31.15
1629724837140,-35.03
1629724837156,-38.52
1629724837171,-40.83
1629724837187,-41.26
1629724837203,-39.52
1629724837218,-35.79
1629724837234,-30.74
1629724837250,-25.25
1629724837265,-20.09
1629724837281,-15.68
1629724837296,-12.03
1629724837312,-8.83
1629724837328,-5.68
1629724837343,-2.27
1629724837359,1.45
1629724837375,5.29
1629724837390,8.91
1629724837406,11.99
1629724837421,14.34
1629724837437,15.98
1629724837453,17.09
1629724837468,17.95
1629724837484,18.75
1629724837500,19.56
1629724837515,20.33
1629724837531,20.93
1629724837546,21.3
1629724837562,21.46
1629724837578,21.51
1629724837593,21.5
1629724837609,21.41
1629724837625,21.09
1629724837640,20.33
1629724837656,19.01
1629724837671,17.19
1629724837687,15.08
1629724837703,12.98
1629724837718,11.1
1629724837734,9.48
1629724837750,7.95
1629724837765,6.22
1629724837781,4.06
1629724837796,1.39
1629724837812,-1.66
1629724837828,-4.87
1629724837843,-7.99
1629724837859,-10.87
1629724837875,-13.43
1629724837890,-15.74
1629724837906,-17.94
1629724837921,-20.25
1629724837937,-22.91
1629724837953,-26.12
1629724837968,-30.0
1629724837984,-34.46
1629724838000,-39.15
1629724838015,-43.48
1629724838031,-46.7
1629724838046,-48.13
1629724838062,-47.3
1629724838078,-44.18
1629724838093,-39.17
1629724838109,-32.99
1629724838125,-26.47
1629724838140,-20.3
1629724838156,-14.83
1629724838171,-10.02
1629724838187,-5.57
1629724838203,-1.11
1629724838218,3.57
1629724838234,8.43
1629724838250,13.18
1629724838265,17.43
1629724838281,20.86
1629724838296,23.31
1629724838312,24.86
1629724838328,25.77
1629724838343,26.35
1629724838359,26.85
1629724838375,27.37
1629724838390,27.89
1629724838406,28.32
1629724838421,28.61
1629724838437,28.78
1629724838453,28.83
1629724838468,28.74
1629724838484,28.39
1629724838500,27.61
1629724838515,26.3
1629724838531,24.41
1629724838546,22.1
1629724838562,19.64
1629724838578,17.3
1629724838593,15.27
1629724838609,13.52
1629724838625,11.87
1629724838640,10.05
1629724838656,7.84
1629724838671,5.14
1629724838687,2.0
1629724838703,-1.38
1629724838718,-4.79
1629724838734,-8.05
1629724838750,-11.04
1629724838765,-13.78
1629724838781,-16.34
1629724838796,-18.84
1629724838812,-21.52
1629724838828,-24.63
1629724838843,-28.45
1629724838859,-33.17
1629724838875,-38.72
1629724838890,-44.72
1629724838906,-50.5
1629724838921,-55.14
1629724838937,-57.74
1629724838953,-57.72
1629724838968,-54.93
1629724838984,-49.78
1629724839000,-43.09
1629724839015,-35.78
1629724839031,-28.62
1629724839046,-22.02
1629724839062,-16.01
1629724839078,-10.37
1629724839093,-4.82
1629724839109,0.82
1629724839125,6.5
1629724839140,12.03
1629724839156,17.16
1629724839171,21.62
1629724839187,25.34
1629724839203,28.33
1629724839218,30.7
1629724839234,32.57
1629724839250,34.07
1629724839265,35.25
1629724839281,36.15
1629724839296,36.77
1629724839312,37.16
1629724839328,37.37
1629724839343,37.38
1629724839359,37.13
1629724839375,36.52
1629724839390,35.48
1629724839406,34.01
1629724839421,32.21
1629724839437,30.24
1629724839453,28.22
1629724839468,26.19
1629724839484,24.15
1629724839500,22.07
1629724839515,19.92
1629724839531,17.7
1629724839546,15.37
1629724839562,12.91
1629724839578,10.29
1629724839593,7.49
1629724839609,4.55
1629724839625,1.49
1629724839640,-1.65
1629724839656,-4.86
1629724839671,-8.17
1629724839687,-11.6
1629724839703,-15.15
1629724839718,-18.74
1629724839734,-22.31
1629724839750,-25.76
1629724839765,-29.12
1629724839781,-32.53
1629724839796,-36.25
1629724839812,-40.58
1629724839828,-45.65
1629724839843,-51.22
1629724839859,-56.56
1629724839875,-60.66
1629724839890,-62.46
1629724839906,-61.27
1629724839921,-57.08
1629724839937,-50.5
1629724839953,-42.62
1629724839968,-34.54
1629724839984,-27.08
1629724840000,-20.58
1629724840015,-14.95
1629724840031,-9.84
1629724840046,-4.88
1629724840062,0.24
1629724840078,5.64
1629724840093,11.29
1629724840109,17.0
1629724840125,22.46
1629724840140,27.34
1629724840156,31.33
1629724840171,34.25
1629724840187,36.12
1629724840203,37.13
1629724840218,37.56
1629724840234,37.72
1629724840250,37.83
1629724840265,38.03
1629724840281,38.34
1629724840296,38.65
1629724840312,38.86
1629724840328,38.76
1629724840343,38.24
1629724840359,37.21
1629724840375,35.71
1629724840390,33.87
1629724840406,31.87
1629724840421,29.88
1629724840437,27.98
1629724840453,26.13
1629724840468,24.2
1629724840484,22.0
1629724840500,19.39
1629724840515,16.33
1629724840531,12.97
1629724840546,9.49
1629724840562,6.11
1629724840578,3.01
1629724840593,0.2
1629724840609,-2.45
1629724840625,-5.13
1629724840640,-8.02
1629724840656,-11.21
1629724840671,-14.63
1629724840687,-18.12
1629724840703,-21.46
1629724840718,-24.51
1629724840734,-27.31
1629724840750,-30.03
1629724840765,-33.0
1629724840781,-36.55
1629724840796,-40.9
1629724840812,-45.98
1629724840828,-51.41
1629724840843,-56.46
1629724840859,-60.2
1629724840875,-61.75
1629724840890,-60.55
1629724840906,-56.54
1629724840921,-50.25
1629724840937,-42.58
1629724840953,-34.48
1629724840968,-26.74
1629724840984,-19.75
1629724841000,-13.49
1629724841015,-7.73
1629724841031,-2.2
1629724841046,3.3
1629724841062,8.81
1629724841078,14.22
1629724841093,19.36
1629724841109,24.01
1629724841125,27.95
1629724841140,31.06
1629724841156,33.32
1629724841171,34.83
1629724841187,35.78
1629724841203,36.4
1629724841218,36.86
1629724841234,37.32
1629724841250,37.83
1629724841265,38.37
1629724841281,38.86
1629724841296,39.1
1629724841312,38.9
1629724841328,38.12
1629724841343,36.76
1629724841359,34.94
1629724841375,32.94
1629724841390,31.02
1629724841406,29.35
1629724841421,27.98
1629724841437,26.79
1629724841453,25.62
1629724841468,24.27
1629724841484,22.58
1629724841500,20.47
1629724841515,17.94
1629724841531,15.1
1629724841546,12.11
1629724841562,9.21
1629724841578,6.54
1629724841593,4.17
1629724841609,1.97
1629724841625,-0.28
1629724841640,-2.83
1629724841656,-5.82
1629724841671,-9.2
1629724841687,-12.78
1629724841703,-16.29
1629724841718,-19.54
1629724841734,-22.47
1629724841750,-25.26
1629724841765,-28.19
1629724841781,-31.6
1629724841796,-35.75
1629724841812,-40.64
1629724841828,-45.96
1629724841843,-51.02
1629724841859,-54.96
1629724841875,-56.9
1629724841890,-56.28
1629724841906,-53.07
1629724841921,-47.78
1629724841937,-41.24
1629724841953,-34.33
1629724841968,-27.71
1629724841984,-21.65
1629724842000,-16.14
1629724842015,-11.01
1629724842031,-6.05
1629724842046,-1.15
1629724842062,3.73
1629724842078,8.56
1629724842093,13.27
1629724842109,17.77
1629724842125,21.89
1629724842140,25.5
1629724842156,28.5
1629724842171,30.86
1629724842187,32.65
1629724842203,34.04
1629724842218,35.17
1629724842234,36.15
1629724842250,37.04
1629724842265,37.81
1629724842281,38.39
1629724842296,38.69
1629724842312,38.6
1629724842328,38.03
1629724842343,36.92
1629724842359,35.27
1629724842375,33.17
1629724842390,30.81
1629724842406,28.39
1629724842421,26.15
1629724842437,24.19
1629724842453,22.46
1629724842468,20.81
1629724842484,19.03
1629724842500,17.0
1629724842515,14.73
1629724842531,12.39
1629724842546,10.19
1629724842562,8.3
1629724842578,6.71
1629724842593,5.24
1629724842609,3.59
1629724842625,1.47
1629724842640,-1.23
1629724842656,-4.39
1629724842671,-7.72
1629724842687,-10.88
1629724842703,-13.63
1629724842718,-15.99
1629724842734,-18.18
1629724842750,-20.5
1629724842765,-23.25
1629724842781,-26.54
1629724842796,-30.41
1629724842812,-34.75
1629724842828,-39.36
1629724842843,-43.89
1629724842859,-47.8
1629724842875,-50.39
1629724842890,-50.96
1629724842906,-49.1
1629724842921,-44.82
1629724842937,-38.66
1629724842953,-31.51
1629724842968,-24.3
1629724842984,-17.73
1629724843000,-12.06
1629724843015,-7.19
1629724843031,-2.78
1629724843046,1.5
1629724843062,5.76
1629724843078,9.95
1629724843093,13.83
1629724843109,17.17
1629724843125,19.84
1629724843140,21.85
1629724843156,23.36
1629724843171,24.55
1629724843187,25.6
1629724843203,26.58
1629724843218,27.55
1629724843234,28.46
1629724843250,29.28
1629724843265,29.91
1629724843281,30.23
1629724843296,30.12
1629724843312,29.51
1629724843328,28.4
1629724843343,26.9
1629724843359,25.19
1629724843375,23.46
1629724843390,21.85
1629724843406,20.41
1629724843421,19.09
1629724843437,17.76
1629724843453,16.34
1629724843468,14.77
1629724843484,13.1
1629724843500,11.39
1629724843515,9.67
1629724843531,7.94
1629724843546,6.13
1629724843562,4.19
1629724843578,2.07
1629724843593,-0.18
1629724843609,-2.51
1629724843625,-4.86
1629724843640,-7.18
1629724843656,-9.48
1629724843671,-11.77
1629724843687,-14.09
1629724843703,-16.5
1629724843718,-19.12
1629724843734,-22.08
1629724843750,-25.5
1629724843765,-29.38
1629724843781,-33.47
1629724843796,-37.31
1629724843812,-40.27
1629724843828,-41.71
1629724843843,-41.19
1629724843859,-38.58
1629724843875,-34.19
1629724843890,-28.68
1629724843906,-22.83
1629724843921,-17.33
1629724843937,-12.53
1629724843953,-8.41
1629724843968,-4.75
1629724843984,-1.23
1629724844000,2.3
1629724844015,5.79
1629724844031,9.07
1629724844046,11.98
1629724844062,14.47
1629724844078,16.57
1629724844093,18.4
1629724844109,20.04
1629724844125,21.47
1629724844140,22.66
1629724844156,23.57
1629724844171,24.17
1629724844187,24.46
1629724844203,24.47
1629724844218,24.19
1629724844234,23.62
1629724844250,22.72
1629724844265,21.51
1629724844281,19.98
1629724844296,18.19
1629724844312,16.18
1629724844328,14.05
1629724844343,11.9
1629724844359,9.88
1629724844375,8.11
1629724844390,6.67
1629724844406,5.53
1629724844421,4.52
1629724844437,3.41
1629724844453,1.96
1629724844468,0.06
1629724844484,-2.23
1629724844500,-4.72
1629724844515,-7.21
1629724844531,-9.6
1629724844546,-11.88
1629724844562,-14.16
1629724844578,-16.59
1629724844593,-19.29
1629724844609,-22.33
1629724844625,-25.75
1629724844640,-29.53
1629724844656,-33.57
1629724844671,-37.52
1629724844687,-40.87
1629724844703,-42.93
1629724844718,-43.07
1629724844734,-40.98
1629724844750,-36.82
1629724844765,-31.19
1629724844781,-24.94
1629724844796,-18.83
1629724844812,-13.36
1629724844828,-8.66
1629724844843,-4.56
1629724844859,-0.77
1629724844875,2.91
1629724844890,6.55
1629724844906,10.08
1629724844921,13.35
1629724844937,16.26
1629724844953,18.75
1629724844968,20.81
1629724844984,22.41
1629724845000,23.56
1629724845015,24.27
1629724845031,24.58
1629724845046,24.59
1629724845062,24.42
1629724845078,24.22
1629724845093,24.08
1629724845109,24.06
1629724845125,24.12
1629724845140,24.15
1629724845156,23.99
1629724845171,23.45
1629724845187,22.39
1629724845203,20.8
1629724845218,18.78
1629724845234,16.58
1629724845250,14.46
1629724845265,12.64
1629724845281,11.17
1629724845296,9.95
1629724845312,8.73
1629724845328,7.23
1629724845343,5.18
1629724845359,2.48
1629724845375,-0.82
1629724845390,-4.52
1629724845406,-8.35
1629724845421,-12.03
1629724845437,-15.32
1629724845453,-18.16
1629724845468,-20.61
1629724845484,-22.88
1629724845500,-25.28
1629724845515,-28.13
1629724845531,-31.65
1629724845546,-35.87
1629724845562,-40.54
1629724845578,-45.1
1629724845593,-48.78
1629724845609,-50.78
1629724845625,-50.5
1629724845640,-47.76
1629724845656,-42.88
1629724845671,-36.56
1629724845687,-29.65
1629724845703,-22.89
1629724845718,-16.73
1629724845734,-11.28
1629724845750,-6.38
1629724845765,-1.74
1629724845781,2.89
1629724845796,7.61
1629724845812,12.35
1629724845828,16.83
1629724845843,20.7
1629724845859,23.68
1629724845875,25.63
1629724845890,26.68
1629724845906,27.13
1629724845921,27.29
1629724845937,27.43
1629724845953,27.62
1629724845968,27.87
1629724845984,28.13
1629724846000,28.42
1629724846015,28.72
1629724846031,28.92
1629724846046,28.83
1629724846062,28.2
1629724846078,26.91
1629724846093,25.08
1629724846109,23.05
1629724846125,21.17
1629724846140,19.66
1629724846156,18.45
1629724846171,17.23
1629724846187,15.66
1629724846203,13.53
1629724846218,10.94
1629724846234,8.19
1629724846250,5.58
1629724846265,3.34
1629724846281,1.43
1629724846296,-0.37
1629724846312,-2.3
1629724846328,-4.53
1629724846343,-7.07
1629724846359,-9.78
1629724846375,-12.56
1629724846390,-15.33
1629724846406,-18.15
1629724846421,-21.12
1629724846437,-24.31
1629724846453,-27.72
1629724846468,-31.33
1629724846484,-35.17
1629724846500,-39.29
1629724846515,-43.67
1629724846531,-48.05
1629724846546,-51.86
1629724846562,-54.23
1629724846578,-54.36
1629724846593,-51.8
1629724846609,-46.72
1629724846625,-39.89
1629724846640,-32.35
1629724846656,-25.07
1629724846671,-18.66
1629724846687,-13.25
1629724846703,-8.65
1629724846718,-4.48
1629724846734,-0.42
1629724846750,3.76
1629724846765,8.12
1629724846781,12.59
1629724846796,17.0
1629724846812,21.11
1629724846828,24.69
1629724846843,27.54
1629724846859,29.59
1629724846875,30.85
1629724846890,31.42
1629724846906,31.45
1629724846921,31.12
1629724846937,30.63
1629724846953,30.2
1629724846968,30.03
1629724846984,30.19
1629724847000,30.56
1629724847015,30.88
1629724847031,30.84
1629724847046,30.18
1629724847062,28.85
1629724847078,27.06
1629724847093,25.13
1629724847109,23.38
1629724847125,21.96
1629724847140,20.78
1629724847156,19.62
1629724847171,18.26
1629724847187,16.54
1629724847203,14.46
1629724847218,12.1
1629724847234,9.58
1629724847250,7.0
1629724847265,4.45
1629724847281,1.98
1629724847296,-0.41
1629724847312,-2.81
1629724847328,-5.33
1629724847343,-8.08
1629724847359,-11.12
1629724847375,-14.35
1629724847390,-17.58
1629724847406,-20.6
1629724847421,-23.26
1629724847437,-25.64
1629724847453,-27.94
1629724847468,-30.48
1629724847484,-33.54
1629724847500,-37.32
1629724847515,-41.77
1629724847531,-46.58
1629724847546,-51.13
1629724847562,-54.63
1629724847578,-56.25
1629724847593,-55.41
1629724847609,-52.02
1629724847625,-46.47
1629724847640,-39.6
1629724847656,-32.35
1629724847671,-25.46
1629724847687,-19.27
1629724847703,-13.77
1629724847718,-8.71
1629724847734,-3.79
1629724847750,1.12
1629724847765,6.04
1629724847781,10.86
1629724847796,15.45
1629724847812,19.7
1629724847828,23.51
1629724847843,26.79
1629724847859,29.47
1629724847875,31.47
1629724847890,32.78
1629724847906,33.46
1629724847921,33.63
1629724847937,33.45
1629724847953,33.11
1629724847968,32.73
1629724847984,32.4
1629724848000,32.1
1629724848015,31.71
1629724848031,31.12
1629724848046,30.23
1629724848062,29.03
1629724848078,27.58
1629724848093,25.96
1629724848109,24.26
1629724848125,22.56
1629724848140,20.88
1629724848156,19.26
1629724848171,17.74
1629724848187,16.32
1629724848203,14.98
1629724848218,13.62
1629724848234,12.12
1629724848250,10.39
1629724848265,8.39
1629724848281,6.21
1629724848296,3.94
1629724848312,1.68
1629724848328,-0.54
1629724848343,-2.78
1629724848359,-5.13
1629724848375,-7.68
1629724848390,-10.44
1629724848406,-13.32
1629724848421,-16.19
1629724848437,-18.9
1629724848453,-21.39
1629724848468,-23.68
1629724848484,-25.89
1629724848500,-28.24
1629724848515,-31.02
1629724848531,-34.43
1629724848546,-38.49
1629724848562,-42.88
1629724848578,-46.95
1629724848593,-49.84
1629724848609,-50.74
1629724848625,-49.19
1629724848640,-45.27
1629724848656,-39.56
1629724848671,-32.92
1629724848687,-26.21
1629724848703,-20.04
1629724848718,-14.6
1629724848734,-9.83
1629724848750,-5.48
1629724848765,-1.31
1629724848781,2.77
1629724848796,6.77
1629724848812,10.62
1629724848828,14.2
1629724848843,17.43
1629724848859,20.24
1629724848875,22.57
1629724848890,24.41
1629724848906,25.73
1629724848921,26.57
1629724848937,27.03
1629724848953,27.24
1629724848968,27.36
1629724848984,27.52
1629724849000,27.78
1629724849015,28.08
1629724849031,28.26
1629724849046,28.13
1629724849062,27.51
1629724849078,26.33
1629724849093,24.66
1629724849109,22.74
1629724849125,20.83
1629724849140,19.18
1629724849156,17.89
1629724849171,16.9
1629724849187,16.03
1629724849203,15.03
1629724849218,13.75
1629724849234,12.13
1629724849250,10.25
1629724849265,8.23
1629724849281,6.16
1629724849296,4.11
1629724849312,2.06
1629724849328,-0.02
1629724849343,-2.19
1629724849359,-4.46
1629724849375,-6.85
1629724849390,-9.3
1629724849406,-11.79
1629724849421,-14.18
1629724849437,-16.42
1629724849453,-18.44
1629724849468,-20.32
1629724849484,-22.24
1629724849500,-24.47
1629724849515,-27.31
1629724849531,-30.84
1629724849546,-34.91
1629724849562,-38.96
1629724849578,-42.21
1629724849593,-43.78
1629724849609,-43.06
1629724849625,-39.93
1629724849640,-34.78
1629724849656,-28.49
1629724849671,-22.0
1629724849687,-16.05
1629724849703,-11.01
1629724849718,-6.83
1629724849734,-3.23
1629724849750,0.1
1629724849765,3.34
1629724849781,6.53
1629724849796,9.56
1629724849812,12.31
1629724849828,14.69
1629724849843,16.69
1629724849859,18.29
1629724849875,19.55
1629724849890,20.49
1629724849906,21.11
1629724849921,21.45
1629724849937,21.55
1629724849953,21.5
1629724849968,21.42
1629724849984,21.38
1629724850000,21.34
1629724850015,21.18
1629724850031,20.76
1629724850046,19.94
1629724850062,18.71
1629724850078,17.15
1629724850093,15.44
1629724850109,13.7
1629724850125,12.02
1629724850140,10.39
1629724850156,8.81
1629724850171,7.31
1629724850187,5.96
1629724850203,4.83
1629724850218,3.9
1629724850234,3.08
1629724850250,2.15
1629724850265,0.9
1629724850281,-0.81
1629724850296,-2.97
1629724850312,-5.46
1629724850328,-8.11
1629724850343,-10.78
1629724850359,-13.39
1629724850375,-15.95
1629724850390,-18.52
1629724850406,-21.18
1629724850421,-24.04
1629724850437,-27.12
1629724850453,-30.35
1629724850468,-33.47
1629724850484,-36.0
1629724850500,-37.38
1629724850515,-37.15
1629724850531,-35.09
1629724850546,-31.38
1629724850562,-26.51
1629724850578,-21.17
1629724850593,-15.99
1629724850609,-11.33
1629724850625,-7.28
1629724850640,-3.73
1629724850656,-0.47
1629724850671,2.6
1629724850687,5.48
1629724850703,8.06
1629724850718,10.23
1629724850734,11.99
1629724850750,13.41
1629724850765,14.65
1629724850781,15.85
1629724850796,17.07
1629724850812,18.24
1629724850828,19.26
1629724850843,20.04
1629724850859,20.57
1629724850875,20.89
1629724850890,21.05
1629724850906,21.04
1629724850921,20.76
1629724850937,20.1
1629724850953,18.99
1629724850968,17.49
1629724850984,15.78
1629724851000,14.04
1629724851015,12.45
1629724851031,11.05
1629724851046,9.81
1629724851062,8.59
1629724851078,7.24
1629724851093,5.65
1629724851109,3.8
1629724851125,1.74
1629724851140,-0.46
1629724851156,-2.71
1629724851171,-4.97
1629724851187,-7.2
1629724851203,-9.42
1629724851218,-11.67
1629724851234,-13.97
1629724851250,-16.37
1629724851265,-18.95
1629724851281,-21.83
1629724851296,-25.13
1629724851312,-28.92
1629724851328,-33.18
1629724851343,-37.65
1629724851359,-41.85
1629724851375,-45.16
1629724851390,-46.95
1629724851406,-46.75
1629724851421,-44.4
1629724851437,-40.13
1629724851453,-34.46
1629724851468,-28.12
1629724851484,-21.8
1629724851500,-16.01
1629724851515,-10.97
1629724851531,-6.62
1629724851546,-2.76
1629724851562,0.86
1629724851578,4.38
1629724851593,7.85
1629724851609,11.15
1629724851625,14.18
1629724851640,16.82
1629724851656,19.02
1629724851671,20.79
1629724851687,22.16
1629724851703,23.14
1629724851718,23.81
1629724851734,24.22
1629724851750,24.47
1629724851765,24.64
1629724851781,24.79
1629724851796,24.92
1629724851812,25.02
1629724851828,25.03
1629724851843,24.89
1629724851859,24.55
1629724851875,23.95
1629724851890,22.99
1629724851906,21.65
1629724851921,19.94
1629724851937,17.95
1629724851953,15.84
1629724851968,13.77
1629724851984,11.82
1629724852000,9.98
1629724852015,8.15
1629724852031,6.18
1629724852046,3.93
1629724852062,1.28
1629724852078,-1.84
1629724852093,-5.35
1629724852109,-9.13
1629724852125,-12.94
1629724852140,-16.55
1629724852156,-19.83
1629724852171,-22.74
1629724852187,-25.37
1629724852203,-27.95
1629724852218,-30.76
1629724852234,-34.07
1629724852250,-38.06
1629724852265,-42.67
1629724852281,-47.53
1629724852296,-51.96
1629724852312,-55.1
1629724852328,-56.14
1629724852343,-54.6
1629724852359,-50.52
1629724852375,-44.41
1629724852390,-37.16
1629724852406,-29.7
1629724852421,-22.75
1629724852437,-16.73
1629724852453,-11.64
1629724852468,-7.24
1629724852484,-3.12
1629724852500,1.06
1629724852515,5.52
1629724852531,10.2
1629724852546,14.87
1629724852562,19.22
1629724852578,22.97
1629724852593,26.01
1629724852609,28.34
1629724852625,30.06
1629724852640,31.3
1629724852656,32.17
1629724852671,32.8
1629724852687,33.29
1629724852703,33.76
1629724852718,34.27
1629724852734,34.77
1629724852750,35.09
1629724852765,35.03
1629724852781,34.44
1629724852796,33.3
1629724852812,31.68
1629724852828,29.75
1629724852843,27.71
1629724852859,25.69
1629724852875,23.77
1629724852890,21.91
1629724852906,20.01
1629724852921,17.92
1629724852937,15.54
1629724852953,12.86
1629724852968,9.97
1629724852984,7.01
1629724853000,4.06
1629724853015,1.13
1629724853031,-1.86
1629724853046,-5.01
1629724853062,-8.36
1629724853078,-11.83
1629724853093,-15.28
1629724853109,-18.57
1629724853125,-21.63
1629724853140,-24.5
1629724853156,-27.25
1629724853171,-30.04
1629724853187,-33.06
1629724853203,-36.56
1629724853218,-40.76
1629724853234,-45.68
1629724853250,-51.0
1629724853265,-55.98
1629724853281,-59.61
1629724853296,-60.96
1629724853312,-59.49
1629724853328,-55.27
1629724853343,-48.92
1629724853359,-41.41
1629724853375,-33.68
1629724853390,-26.4
1629724853406,-19.84
1629724853421,-13.99
1629724853437,-8.6
1629724853453,-3.39
1629724853468,1.89
1629724853484,7.32
1629724853500,12.81
1629724853515,18.06
1629724853531,22.73
1629724853546,26.53
1629724853562,29.34
1629724853578,31.3
1629724853593,32.67
1629724853609,33.72
1629724853625,34.63
1629724853640,35.43
1629724853656,36.12
1629724853671,36.71
1629724853687,37.29
1629724853703,37.91
1629724853718,38.51
1629724853734,38.89
1629724853750,38.7
1629724853765,37.66
1629724853781,35.69
1629724853796,32.98
1629724853812,29.92
1629724853828,26.95
1629724853843,24.39
1629724853859,22.33
1629724853875,20.64
1629724853890,19.13
1629724853906,17.58
1629724853921,15.9
1629724853937,14.06
1629724853953,12.07
1629724853968,9.89
1629724853984,7.49
1629724854000,4.8
1629724854015,1.8
1629724854031,-1.46
1629724854046,-4.88
1629724854062,-8.26
1629724854078,-11.47
1629724854093,-14.4
1629724854109,-17.11
1629724854125,-19.73
1629724854140,-22.47
1629724854156,-25.52
1629724854171,-29.04
1629724854187,-33.13
1629724854203,-37.8
1629724854218,-42.9
1629724854234,-48.08
1629724854250,-52.73
1629724854265,-56.06
1629724854281,-57.34
1629724854296,-56.12
1629724854312,-52.43
1629724854328,-46.77
1629724854343,-39.91
1629724854359,-32.62
1629724854375,-25.46
1629724854390,-18.68
1629724854406,-12.32
1629724854421,-6.32
1629724854437,-0.6
1629724854453,4.91
1629724854468,10.24
1629724854484,15.36
1629724854500,20.17
1629724854515,24.45
1629724854531,28.0
1629724854546,30.62
1629724854562,32.32
1629724854578,33.26
1629724854593,33.7
1629724854609,33.92
1629724854625,34.09
1629724854640,34.3
1629724854656,34.59
1629724854671,34.97
1629724854687,35.39
1629724854703,35.77
1629724854718,35.95
1629724854734,35.72
1629724854750,34.94
1629724854765,33.58
1629724854781,31.76
1629724854796,29.75
1629724854812,27.8
1629724854828,26.05
1629724854843,24.46
1629724854859,22.87
1629724854875,21.05
1629724854890,18.9
1629724854906,16.45
1629724854921,13.83
1629724854937,11.22
1629724854953,8.74
1629724854968,6.43
1629724854984,4.23
1629724855000,2.03
1629724855015,-0.28
1629724855031,-2.81
1629724855046,-5.67
1629724855062,-8.84
1629724855078,-12.22
1629724855093,-15.6
1629724855109,-18.74
1629724855125,-21.5
1629724855140,-23.98
1629724855156,-26.5
1629724855171,-29.5
1629724855187,-33.35
1629724855203,-38.15
1629724855218,-43.53
1629724855234,-48.76
1629724855250,-52.88
1629724855265,-55.01
1629724855281,-54.57
1629724855296,-51.5
1629724855312,-46.19
1629724855328,-39.36
1629724855343,-31.88
1629724855359,-24.51
1629724855375,-17.82
1629724855390,-12.07
1629724855406,-7.24
1629724855421,-3.08
1629724855437,0.71
1629724855453,4.47
1629724855468,8.39
1629724855484,12.47
1629724855500,16.52
1629724855515,20.28
1629724855531,23.51
1629724855546,26.12
1629724855562,28.15
1629724855578,29.71
1629724855593,30.91
1629724855609,31.85
1629724855625,32.51
1629724855640,32.9
1629724855656,33.04
1629724855671,32.97
1629724855687,32.74
1629724855703,32.35
1629724855718,31.72
1629724855734,30.78
1629724855750,29.49
1629724855765,27.9
1629724855781,26.19
1629724855796,24.55
1629724855812,23.07
1629724855828,21.71
1629724855843,20.32
1629724855859,18.69
1629724855875,16.75
1629724855890,14.54
1629724855906,12.28
1629724855921,10.16
1629724855937,8.31
1629724855953,6.72
1629724855968,5.25
1629724855984,3.73
1629724856000,2.01
1629724856015,-0.02
1629724856031,-2.37
1629724856046,-5.01
1629724856062,-7.83
1629724856078,-10.68
1629724856093,-13.42
1629724856109,-15.98
1629724856125,-18.38
1629724856140,-20.8
1629724856156,-23.5
1629724856171,-26.63
1629724856187,-30.14
1629724856203,-33.64
1629724856218,-36.46
1629724856234,-37.82
1629724856250,-37.11
1629724856265,-34.13
1629724856281,-29.22
1629724856296,-23.15
1629724856312,-16.83
1629724856328,-11.03
1629724856343,-6.12
1629724856359,-2.05
1629724856375,1.5
1629724856390,4.88
1629724856406,8.27
1629724856421,11.68
1629724856437,14.92
1629724856453,17.86
1629724856468,20.38
1629724856484,22.46
1629724856500,24.16
1629724856515,25.53
1629724856531,26.57
1629724856546,27.31
1629724856562,27.75
1629724856578,27.93
1629724856593,27.91
1629724856609,27.76
1629724856625,27.56
1629724856640,27.33
1629724856656,27.02
1629724856671,26.5
1629724856687,25.61
1629724856703,24.23
1629724856718,22.36
1629724856734,20.18
1629724856750,17.92
1629724856765,15.88
1629724856781,14.2
1629724856796,12.89
1629724856812,11.8
1629724856828,10.72
1629724856843,9.44
1629724856859,7.8
1629724856875,5.72
1629724856890,3.15
1629724856906,0.13
1629724856921,-3.2
1629724856937,-6.61
1629724856953,-9.87
1629724856968,-12.73
1629724856984,-15.14
1629724857000,-17.17
1629724857015,-19.07
1629724857031,-21.15
1629724857046,-23.72
1629724857062,-26.95
1629724857078,-30.74
1629724857093,-34.66
1629724857109,-37.97
1629724857125,-39.84
1629724857140,-39.68
1629724857156,-37.33
1629724857171,-33.21
1629724857187,-28.13
1629724857203,-22.97
1629724857218,-18.32
1629724857234,-14.34
1629724857250,-10.85
1629724857265,-7.57
1629724857281,-4.34
1629724857296,-1.2
1629724857312,1.66
1629724857328,4.11
1629724857343,6.13
1629724857359,7.87
1629724857375,9.54
1629724857390,11.28
1629724857406,13.07
1629724857421,14.8
1629724857437,16.26
1629724857453,17.3
1629724857468,17.89
1629724857484,18.18
1629724857500,18.42
1629724857515,18.78
1629724857531,19.3
1629724857546,19.78
1629724857562,19.92
1629724857578,19.4
1629724857593,18.1
1629724857609,16.11
1629724857625,13.74
1629724857640,11.34
1629724857656,9.18
1629724857671,7.38
1629724857687,5.89
1629724857703,4.54
1629724857718,3.13
1629724857734,1.49
1629724857750,-0.47
1629724857765,-2.79
1629724857781,-5.44
1629724857796,-8.34
1629724857812,-11.34
1629724857828,-14.29
1629724857843,-17.07
1629724857859,-19.62
1629724857875,-22.0
1629724857890,-24.42
1629724857906,-27.19
1629724857921,-30.61
1629724857937,-34.86
1629724857953,-39.81
1629724857968,-45.0
1629724857984,-49.66
1629724858000,-52.89
1629724858015,-53.92
1629724858031,-52.4
1629724858046,-48.49
1629724858062,-42.79
1629724858078,-36.2
1629724858093,-29.53
1629724858109,-23.37
1629724858125,-17.92
1629724858140,-13.03
1629724858156,-8.39
1629724858171,-3.7
1629724858187,1.21
1629724858203,6.33
1629724858218,11.49
1629724858234,16.42
1629724858250,20.85
1629724858265,24.52
1629724858281,27.3
1629724858296,29.11
1629724858312,30.03
1629724858328,30.32
1629724858343,30.26
1629724858359,30.13
1629724858375,30.1
1629724858390,30.25
1629724858406,30.46
1629724858421,30.61
1629724858437,30.52
1629724858453,30.07
1629724858468,29.22
1629724858484,27.98
1629724858500,26.46
1629724858515,24.8
1629724858531,23.11
1629724858546,21.41
1629724858562,19.68
1629724858578,17.84
1629724858593,15.83
1629724858609,13.7
1629724858625,11.55
1629724858640,9.49
1629724858656,7.55
1629724858671,5.64
1629724858687,3.56
1629724858703,1.14
1629724858718,-1.75
1629724858734,-5.12
1629724858750,-8.86
1629724858765,-12.82
1629724858781,-16.81
1629724858796,-20.65
1629724858812,-24.28
1629724858828,-27.7
1629724858843,-31.06
1629724858859,-34.6
1629724858875,-38.61
1629724858890,-43.25
1629724858906,-48.49
1629724858921,-54.0
1629724858937,-59.1
1629724858953,-62.91
1629724858968,-64.52
1629724858984,-63.29
1629724859000,-59.09
1629724859015,-52.39
1629724859031,-44.15
1629724859046,-35.53
1629724859062,-27.48
1629724859078,-20.52
1629724859093,-14.64
1629724859109,-9.46
1629724859125,-4.48
1629724859140,0.68
1629724859156,6.15
1629724859171,11.76
1629724859187,17.16
1629724859203,21.99
1629724859218,25.96
1629724859234,28.98
1629724859250,31.12
1629724859265,32.57
1629724859281,33.54
1629724859296,34.2
1629724859312,34.68
1629724859328,35.06
1629724859343,35.44
1629724859359,35.89
1629724859375,36.39
1629724859390,36.82
1629724859406,36.97
1629724859421,36.59
1629724859437,35.55
1629724859453,33.89
1629724859468,31.82
1629724859484,29.66
1629724859500,27.69
1629724859515,26.03
1629724859531,24.6
1629724859546,23.18
1629724859562,21.51
1629724859578,19.43
1629724859593,16.95
1629724859609,14.2
1629724859625,11.42
1629724859640,8.79
1629724859656,6.39
1629724859671,4.16
1629724859687,1.95
1629724859703,-0.44
1629724859718,-3.16
1629724859734,-6.26
1629724859750,-9.7
1629724859765,-13.37
1629724859781,-17.14
1629724859796,-20.89
1629724859812,-24.54
1629724859828,-28.1
1629724859843,-31.69
1629724859859,-35.48
1629724859875,-39.69
1629724859890,-44.4
1629724859906,-49.48
1629724859921,-54.42
1629724859937,-58.43
1629724859953,-60.55
1629724859968,-60.04
1629724859984,-56.63
1629724860000,-50.68
1629724860015,-43.06
1629724860031,-34.88
1629724860046,-27.07
1629724860062,-20.15
1629724860078,-14.22
1629724860093,-8.98
1629724860109,-4.06
1629724860125,0.87
1629724860140,5.94
1629724860156,11.12
1629724860171,16.2
1629724860187,20.94
1629724860203,25.08
1629724860218,28.42
1629724860234,30.87
1629724860250,32.43
1629724860265,33.26
1629724860281,33.55
1629724860296,33.56
1629724860312,33.52
1629724860328,33.6
1629724860343,33.91
1629724860359,34.45
1629724860375,35.14
1629724860390,35.82
1629724860406,36.32
1629724860421,36.42
1629724860437,35.95
1629724860453,34.86
1629724860468,33.22
1629724860484,31.24
1629724860500,29.16
1629724860515,27.22
1629724860531,25.47
1629724860546,23.83
1629724860562,22.08
1629724860578,20.02
1629724860593,17.58
1629724860609,14.87
1629724860625,12.13
1629724860640,9.56
1629724860656,7.25
1629724860671,5.09
1629724860687,2.88
1629724860703,0.41
1629724860718,-2.4
1629724860734,-5.47
1629724860750,-8.62
1629724860765,-11.67
1629724860781,-14.53
1629724860796,-17.22
1629724860812,-19.82
1629724860828,-22.46
1629724860843,-25.27
1629724860859,-28.4
1629724860875,-31.97
1629724860890,-36.06
1629724860906,-40.53
1629724860921,-45.03
1629724860937,-48.89
1629724860953,-51.34
1629724860968,-51.68
1629724860984,-49.53
1629724861000,-44.98
1629724861015,-38.62
1629724861031,-31.4
1629724861046,-24.28
1629724861062,-17.97
1629724861078,-12.74
1629724861093,-8.42
1629724861109,-4.54
1629724861125,-0.61
1629724861140,3.63
1629724861156,8.16
1629724861171,12.68
1629724861187,16.82
1629724861203,20.26
1629724861218,22.89
1629724861234,24.8
1629724861250,26.15
1629724861265,27.1
1629724861281,27.76
1629724861296,28.19
1629724861312,28.46
1629724861328,28.69
1629724861343,28.99
1629724861359,29.43
1629724861375,29.96
1629724861390,30.38
1629724861406,30.42
1629724861421,29.85
1629724861437,28.61
1629724861453,26.83
1629724861468,24.79
1629724861484,22.78
1629724861500,20.98
1629724861515,19.39
1629724861531,17.93
1629724861546,16.47
1629724861562,14.9
1629724861578,13.23
1629724861593,11.43
1629724861609,9.51
1629724861625,7.37
1629724861640,4.9
1629724861656,2.08
1629724861671,-1.01
1629724861687,-4.2
1629724861703,-7.25
1629724861718,-10.01
1629724861734,-12.46
1629724861750,-14.73
1629724861765,-17.06
1629724861781,-19.71
1629724861796,-22.89
1629724861812,-26.71
1629724861828,-31.07
1629724861843,-35.68
1629724861859,-39.97
1629724861875,-43.25
1629724861890,-44.8
1629724861906,-44.15
1629724861921,-41.2
1629724861937,-36.29
1629724861953,-30.13
1629724861968,-23.51
1629724861984,-17.15
1629724862000,-11.46
1629724862015,-6.57
1629724862031,-2.39
1629724862046,1.27
1629724862062,4.55
1629724862078,7.53
1629724862093,10.2
1629724862109,12.58
1629724862125,14.69
1629724862140,16.65
1629724862156,18.5
1629724862171,20.25
1629724862187,21.82
1629724862203,23.03
1629724862218,23.77
1629724862234,23.99
1629724862250,23.82
1629724862265,23.42
1629724862281,22.97
1629724862296,22.56
1629724862312,22.2
1629724862328,21.81
1629724862343,21.29
1629724862359,20.52
1629724862375,19.38
1629724862390,17.8
1629724862406,15.82
1629724862421,13.62
1629724862437,11.47
1629724862453,9.63
1629724862468,8.19
1629724862484,6.97
1629724862500,5.62
1629724862515,3.79
1629724862531,1.29
1629724862546,-1.76
1629724862562,-4.98
1629724862578,-7.99
1629724862593,-10.55
1629724862609,-12.68
1629724862625,-14.62
1629724862640,-16.69
1629724862656,-19.16
1629724862671,-22.22
1629724862687,-25.88
1629724862703,-30.05
1629724862718,-34.48
1629724862734,-38.7
1629724862750,-42.09
1629724862765,-43.96
1629724862781,-43.76
1629724862796,-41.25
1629724862812,-36.69
1629724862828,-30.76
1629724862843,-24.36
1629724862859,-18.32
1629724862875,-13.17
1629724862890,-9.0
1629724862906,-5.54
1629724862921,-2.39
1629724862937,0.83
1629724862953,4.26
1629724862968,7.83
1629724862984,11.3
1629724863000,14.41
1629724863015,17.0
1629724863031,19.02
1629724863046,20.53
1629724863062,21.65
1629724863078,22.47
1629724863093,23.12
1629724863109,23.64
1629724863125,24.12
1629724863140,24.61
1629724863156,25.14
1629724863171,25.65
1629724863187,26.02
1629724863203,26.07
1629724863218,25.61
1629724863234,24.56
1629724863250,22.92
1629724863265,20.85
1629724863281,18.58
1629724863296,16.33
1629724863312,14.24
1629724863328,12.35
1629724863343,10.65
1629724863359,9.01
1629724863375,7.3
1629724863390,5.4
1629724863406,3.21
1629724863421,0.7
1629724863437,-2.08
1629724863453,-5.04
1629724863468,-8.04
1629724863484,-10.94
1629724863500,-13.7
1629724863515,-16.32
1629724863531,-18.91
1629724863546,-21.6
1629724863562,-24.58
1629724863578,-28.06
1629724863593,-32.17
1629724863609,-36.89
1629724863625,-41.92
1629724863640,-46.64
1629724863656,-50.25
1629724863671,-51.98
1629724863687,-51.33
1629724863703,-48.26
1629724863718,-43.18
1629724863734,-36.78
1629724863750,-29.81
1629724863765,-22.93
1629724863781,-16.55
1629724863796,-10.82
1629724863812,-5.73
1629724863828,-1.09
1629724863843,3.34
1629724863859,7.76
1629724863875,12.26
1629724863890,16.72
1629724863906,20.87
1629724863921,24.38
1629724863937,27.02
1629724863953,28.75
1629724863968,29.73
1629724863984,30.24
1629724864000,30.54
1629724864015,30.78
1629724864031,30.99
1629724864046,31.15
1629724864062,31.21
1629724864078,31.16
1629724864093,31.02
1629724864109,30.78
1629724864125,30.31
1629724864140,29.51
1629724864156,28.27
1629724864171,26.57
1629724864187,24.51
1629724864203,22.31
1629724864218,20.09
1629724864234,17.93
1629724864250,15.79
1629724864265,13.58
1629724864281,11.26
1629724864296,8.94
1629724864312,6.76
1629724864328,4.78
1629724864343,2.95
1629724864359,1.04
1629724864375,-1.2
1629724864390,-3.95
1629724864406,-7.16
1629724864421,-10.65
1629724864437,-14.17
1629724864453,-17.5
1629724864468,-20.62
1629724864484,-23.61
1629724864500,-26.69
1629724864515,-30.11
1629724864531,-34.12
1629724864546,-38.89
1629724864562,-44.37
1629724864578,-50.23
1629724864593,-55.69
1629724864609,-59.75
1629724864625,-61.41
1629724864640,-60.07
1629724864656,-55.77
1629724864671,-49.23
1629724864687,-41.52
1629724864703,-33.71
1629724864718,-26.47
1629724864734,-20.0
1629724864750,-14.12
1629724864765,-8.52
1629724864781,-2.99
1629724864796,2.48
1629724864812,7.78
1629724864828,12.8
1629724864843,17.44
1629724864859,21.67
1629724864875,25.44
1629724864890,28.63
1629724864906,31.13
1629724864921,32.84
1629724864937,33.82
1629724864953,34.24
1629724864968,34.34
1629724864984,34.35
1629724865000,34.42
1629724865015,34.57
1629724865031,34.76
1629724865046,34.88
1629724865062,34.8
1629724865078,34.41
1629724865093,33.65
1629724865109,32.54
1629724865125,31.13
1629724865140,29.59
1629724865156,28.06
1629724865171,26.61
1629724865187,25.23
1629724865203,23.81
1629724865218,22.15
1629724865234,20.07
1629724865250,17.49
1629724865265,14.48
1629724865281,11.27
1629724865296,8.14
1629724865312,5.34
1629724865328,2.98
1629724865343,0.94
1629724865359,-1.02
1629724865375,-3.21
1629724865390,-5.85
1629724865406,-9.02
1629724865421,-12.59
1629724865437,-16.35
1629724865453,-20.03
1629724865468,-23.44
1629724865484,-26.56
1629724865500,-29.5
1629724865515,-32.49
1629724865531,-35.83
1629724865546,-39.78
1629724865562,-44.4
1629724865578,-49.49
1629724865593,-54.5
1629724865609,-58.58
1629724865625,-60.83
1629724865640,-60.51
1629724865656,-57.36
1629724865671,-51.69
1629724865687,-44.29
1629724865703,-36.17
1629724865718,-28.27
1629724865734,-21.1
1629724865750,-14.81
1629724865765,-9.24
1629724865781,-4.13
1629724865796,0.74
1629724865812,5.48
1629724865828,10.14
1629724865843,14.69
1629724865859,19.11
1629724865875,23.29
1629724865890,27.05
1629724865906,30.17
1629724865921,32.47
1629724865937,33.87
1629724865953,34.5
1629724865968,34.62
1629724865984,34.55
1629724866000,34.55
1629724866015,34.77
1629724866031,35.14
1629724866046,35.46
1629724866062,35.51
1629724866078,35.12
1629724866093,34.24
1629724866109,32.92
1629724866125,31.32
1629724866140,29.53
1629724866156,27.65
1629724866171,25.68
1629724866187,23.67
1629724866203,21.65
1629724866218,19.7
1629724866234,17.83
1629724866250,16.02
1629724866265,14.2
1629724866281,12.3
1629724866296,10.31
1629724866312,8.32
1629724866328,6.45
1629724866343,4.77
1629724866359,3.19
1629724866375,1.52
1629724866390,-0.51
1629724866406,-3.1
1629724866421,-6.25
1629724866437,-9.78
1629724866453,-13.41
1629724866468,-16.83
1629724866484,-19.84
1629724866500,-22.43
1629724866515,-24.77
1629724866531,-27.1
1629724866546,-29.7
1629724866562,-32.85
1629724866578,-36.67
1629724866593,-41.07
1629724866609,-45.69
1629724866625,-49.87
1629724866640,-52.77
1629724866656,-53.58
1629724866671,-51.84
1629724866687,-47.53
1629724866703,-41.19
1629724866718,-33.72
1629724866734,-26.1
1629724866750,-19.14
1629724866765,-13.26
1629724866781,-8.48
1629724866796,-4.48
1629724866812,-0.82
1629724866828,2.92
1629724866843,6.97
1629724866859,11.36
1629724866875,15.83
1629724866890,20.06
1629724866906,23.7
1629724866921,26.56
1629724866937,28.65
1629724866953,30.04
1629724866968,30.88
1629724866984,31.23
1629724867000,31.14
1629724867015,30.7
1629724867031,30.06
1629724867046,29.46
1629724867062,29.1
1629724867078,29.03
1629724867093,29.08
1629724867109,28.99
1629724867125,28.51
1629724867140,27.61
1629724867156,26.41
1629724867171,25.21
1629724867187,24.2
1629724867203,23.4
1629724867218,22.63
1629724867234,21.6
1629724867250,20.1
1629724867265,18.09
1629724867281,15.73
1629724867296,13.24
1629724867312,10.86
1629724867328,8.69
1629724867343,6.72
1629724867359,4.87
1629724867375,3.02
1629724867390,1.05
1629724867406,-1.11
1629724867421,-3.52
1629724867437,-6.15
1629724867453,-8.93
1629724867468,-11.75
1629724867484,-14.51
1629724867500,-17.11
1629724867515,-19.59
1629724867531,-22.03
1629724867546,-24.6
1629724867562,-27.42
1629724867578,-30.57
1629724867593,-33.95
1629724867609,-37.3
1629724867625,-40.16
1629724867640,-41.96
1629724867656,-42.15
1629724867671,-40.35
1629724867687,-36.52
1629724867703,-31.05
1629724867718,-24.62
1629724867734,-18.05
1629724867750,-12.03
1629724867765,-6.94
1629724867781,-2.78
1629724867796,0.69
1629724867812,3.83
1629724867828,6.83
1629724867843,9.7
1629724867859,12.29
1629724867875,14.44
1629724867890,16.13
1629724867906,17.44
1629724867921,18.55
1629724867937,19.55
1629724867953,20.47
1629724867968,21.22
1629724867984,21.69
1629724868000,21.86
1629724868015,21.8
1629724868031,21.63
1629724868046,21.46
1629724868062,21.34
1629724868078,21.18
1629724868093,20.87
1629724868109,20.31
1629724868125,19.42
1629724868140,18.21
1629724868156,16.73
1629724868171,15.02
1629724868187,13.18
1629724868203,11.27
1629724868218,9.38
1629724868234,7.57
1629724868250,5.86
1629724868265,4.19
1629724868281,2.46
1629724868296,0.55
1629724868312,-1.59
1629724868328,-3.94
1629724868343,-6.36
1629724868359,-8.69
1629724868375,-10.81
1629724868390,-12.72
1629724868406,-14.49
1629724868421,-16.26
1629724868437,-18.16
1629724868453,-20.28
1629724868468,-22.7
1629724868484,-25.46
1629724868500,-28.55
1629724868515,-31.84
1629724868531,-34.93
1629724868546,-37.23
1629724868562,-38.12
1629724868578,-37.11
1629724868593,-34.1
1629724868609,-29.43
1629724868625,-23.72
1629724868640,-17.72
1629724868656,-12.06
1629724868671,-7.08
1629724868687,-2.86
1629724868703,0.73
1629724868718,3.85
1629724868734,6.66
1629724868750,9.19
1629724868765,11.43
1629724868781,13.36
1629724868796,14.95
1629724868812,16.27
1629724868828,17.38
1629724868843,18.38
1629724868859,19.3
1629724868875,20.13
1629724868890,20.79
1629724868906,21.21
1629724868921,21.33
1629724868937,21.14
1629724868953,20.7
1629724868968,20.11
1629724868984,19.46
1629724869000,18.79
1629724869015,18.07
1629724869031,17.18
1629724869046,15.97
1629724869062,14.36
1629724869078,12.35
1629724869093,10.08
1629724869109,7.76
1629724869125,5.63
1629724869140,3.85
1629724869156,2.41
1629724869171,1.22
1629724869187,0.04
1629724869203,-1.36
1629724869218,-3.15
1629724869234,-5.38
1629724869250,-7.97
1629724869265,-10.75
1629724869281,-13.53
1629724869296,-16.16
1629724869312,-18.62
1629724869328,-20.97
1629724869343,-23.33
1629724869359,-25.86
1629724869375,-28.73
1629724869390,-32.03
1629724869406,-35.68
1629724869421,-39.38
1629724869437,-42.58
1629724869453,-44.59
1629724869468,-44.75
1629724869484,-42.69
1629724869500,-38.49
1629724869515,-32.68
1629724869531,-26.07
1629724869546,-19.51
1629724869562,-13.56
1629724869578,-8.47
1629724869593,-4.12
1629724869609,-0.22
1629724869625,3.55
1629724869640,7.33
1629724869656,11.12
1629724869671,14.76
1629724869687,18.02
1629724869703,20.7
1629724869718,22.71
1629724869734,24.06
1629724869750,24.89
1629724869765,25.34
1629724869781,25.59
1629724869796,25.78
1629724869812,26.01
1629724869828,26.33
1629724869843,26.7
1629724869859,27.05
1629724869875,27.23
1629724869890,27.09
1629724869906,26.47
1629724869921,25.32
1629724869937,23.67
1629724869953,21.64
1629724869968,19.45
1629724869984,17.33
1629724870000,15.44
1629724870015,13.8
1629724870031,12.34
1629724870046,10.9
1629724870062,9.28
1629724870078,7.4
1629724870093,5.22
1629724870109,2.82
1629724870125,0.3
1629724870140,-2.27
1629724870156,-4.89
1629724870171,-7.59
1629724870187,-10.39
1629724870203,-13.23
1629724870218,-16.03
1629724870234,-18.69
1629724870250,-21.21
1629724870265,-23.68
1629724870281,-26.33
1629724870296,-29.41
1629724870312,-33.15
1629724870328,-37.59
1629724870343,-42.51
1629724870359,-47.41
1629724870375,-51.57
1629724870390,-54.15
1629724870406,-54.48
1629724870421,-52.29
1629724870437,-47.81
1629724870453,-41.69
1629724870468,-34.84
1629724870484,-28.03
1629724870500,-21.74
1629724870515,-16.07
1629724870531,-10.92
1629724870546,-6.07
1629724870562,-1.43
1629724870578,3.08
1629724870593,7.45
1629724870609,11.68
1629724870625,15.78
1629724870640,19.71
1629724870656,23.32
1629724870671,26.41
1629724870687,28.81
1629724870703,30.45
1629724870718,31.4
1629724870734,31.82
1629724870750,31.91
1629724870765,31.85
1629724870781,31.72
1629724870796,31.58
1629724870812,31.42
1629724870828,31.2
1629724870843,30.89
1629724870859,30.42
1629724870875,29.7
1629724870890,28.68
1629724870906,27.37
1629724870921,25.81
1629724870937,24.09
1629724870953,22.32
1629724870968,20.52
1629724870984,18.67
1629724871000,16.71
1629724871015,14.59
1629724871031,12.29
1629724871046,9.85
1629724871062,7.38
1629724871078,4.99
1629724871093,2.74
1629724871109,0.63
1629724871125,-1.46
1629724871140,-3.68
1629724871156,-6.18
1629724871171,-9.06
1629724871187,-12.33
1629724871203,-15.84
1629724871218,-19.37
1629724871234,-22.68
1629724871250,-25.6
1629724871265,-28.18
1629724871281,-30.68
1629724871296,-33.55
1629724871312,-37.19
1629724871328,-41.84
1629724871343,-47.29
1629724871359,-52.9
1629724871375,-57.65
1629724871390,-60.47
1629724871406,-60.51
1629724871421,-57.45
1629724871437,-51.63
1629724871453,-43.89
1629724871468,-35.3
1629724871484,-26.9
1629724871500,-19.38
1629724871515,-13.01
1629724871531,-7.69
1629724871546,-3.13
1629724871562,1.03
1629724871578,5.07
1629724871593,9.14
1629724871609,13.25
1629724871625,17.32
1629724871640,21.17
1629724871656,24.56
1629724871671,27.26
1629724871687,29.11
1629724871703,30.13
1629724871718,30.48
1629724871734,30.5
1629724871750,30.53
1629724871765,30.82
1629724871781,31.45
1629724871796,32.31
1629724871812,33.16
1629724871828,33.77
1629724871843,33.94
1629724871859,33.57
1629724871875,32.63
1629724871890,31.18
1629724871906,29.34
1629724871921,27.3
1629724871937,25.27
1629724871953,23.46
1629724871968,21.98
1629724871984,20.76
1629724872000,19.59
1629724872015,18.22
1629724872031,16.43
1629724872046,14.19
1629724872062,11.58
1629724872078,8.88
1629724872093,6.32
1629724872109,4.09
1629724872125,2.19
1629724872140,0.44
1629724872156,-1.44
1629724872171,-3.75
1629724872187,-6.64
1629724872203,-10.07
1629724872218,-13.74
1629724872234,-17.31
1629724872250,-20.5
1629724872265,-23.19
1629724872281,-25.53
1629724872296,-27.85
1629724872312,-30.52
1629724872328,-33.83
1629724872343,-37.87
1629724872359,-42.42
1629724872375,-46.93
1629724872390,-50.65
1629724872406,-52.67
1629724872421,-52.31
1629724872437,-49.29
1629724872453,-43.9
1629724872468,-36.92
1629724872484,-29.37
1629724872500,-22.21
1629724872515,-15.98
1629724872531,-10.79
1629724872546,-6.32
1629724872562,-2.14
1629724872578,2.13
1629724872593,6.61
1629724872609,11.15
1629724872625,15.47
1629724872640,19.26
1629724872656,22.32
1629724872671,24.58
1629724872687,26.13
1629724872703,27.06
1629724872718,27.55
1629724872734,27.76
1629724872750,27.88
1629724872765,28.1
1629724872781,28.57
1629724872796,29.3
1629724872812,30.12
1629724872828,30.76
1629724872843,30.9
1629724872859,30.37
1629724872875,29.19
1629724872890,27.6
1629724872906,25.89
1629724872921,24.31
1629724872937,22.94
1629724872953,21.73
1629724872968,20.54
1629724872984,19.26
1629724873000,17.85
1629724873015,16.34
1629724873031,14.74
1629724873046,13.04
1629724873062,11.18
1629724873078,9.05
1629724873093,6.58
1629724873109,3.75
1629724873125,0.63
1629724873140,-2.65
1629724873156,-5.89
1629724873171,-8.94
1629724873187,-11.66
1629724873203,-14.06
1629724873218,-16.24
1629724873234,-18.37
1629724873250,-20.68
1629724873265,-23.38
1629724873281,-26.56
1629724873296,-30.16
1629724873312,-33.88
1629724873328,-37.18
1629724873343,-39.39
1629724873359,-39.85
1629724873375,-38.21
1629724873390,-34.48
1629724873406,-29.16
1629724873421,-23.0
1629724873437,-16.81
1629724873453,-11.21
1629724873468,-6.49
1629724873484,-2.63
1629724873500,0.6
1629724873515,3.51
1629724873531,6.32
1629724873546,9.09
1629724873562,11.78
1629724873578,14.28
1629724873593,16.43
1629724873609,18.13
1629724873625,19.37
1629724873640,20.22
1629724873656,20.82
1629724873671,21.31
1629724873687,21.79
1629724873703,22.25
1629724873718,22.63
1629724873734,22.81
1629724873750,22.67
1629724873765,22.15
1629724873781,21.25
1629724873796,20.03
1629724873812,18.56
1629724873828,16.89
1629724873843,15.1
1629724873859,13.26
1629724873875,11.44
1629724873890,9.75
1629724873906,8.24
1629724873921,6.88
1629724873937,5.54
1629724873953,4.02
1629724873968,2.15
1629724873984,-0.16
1629724874000,-2.8
1629724874015,-5.56
1629724874031,-8.14
1629724874046,-10.38
1629724874062,-12.28
1629724874078,-14.07
1629724874093,-16.07
1629724874109,-18.57
1629724874125,-21.78
1629724874140,-25.72
1629724874156,-30.23
1629724874171,-34.94
1629724874187,-39.33
1629724874203,-42.73
1629724874218,-44.45
1629724874234,-43.96
1629724874250,-41.1
1629724874265,-36.15
1629724874281,-29.8
1629724874296,-22.94
1629724874312,-16.4
1629724874328,-10.75
1629724874343,-6.14
1629724874359,-2.38
1629724874375,0.89
1629724874390,4.04
1629724874406,7.26
1629724874421,10.52
1629724874437,13.63
1629724874453,16.34
1629724874468,18.52
1629724874484,20.18
1629724874500,21.46
1629724874515,22.51
1629724874531,23.39
1629724874546,24.06
1629724874562,24.44
1629724874578,24.48
1629724874593,24.22
1629724874609,23.8
1629724874625,23.37
1629724874640,23.01
1629724874656,22.68
1629724874671,22.22
1629724874687,21.47
1629724874703,20.28
1629724874718,18.64
1629724874734,16.62
1629724874750,14.36
1629724874765,12.02
1629724874781,9.75
1629724874796,7.65
1629724874812,5.71
1629724874828,3.85
1629724874843,1.87
1629724874859,-0.35
1629724874875,-2.89
1629724874890,-5.69
1629724874906,-8.58
1629724874921,-11.4
1629724874937,-14.05
1629724874953,-16.6
1629724874968,-19.2
1629724874984,-22.06
1629724875000,-25.32
1629724875015,-29.04
1629724875031,-33.18
1629724875046,-37.61
1629724875062,-42.14
1629724875078,-46.36
1629724875093,-49.76
1629724875109,-51.66
1629724875125,-51.51
1629724875140,-49.02
1629724875156,-44.35
1629724875171,-38.08
1629724875187,-31.0
1629724875203,-23.9
1629724875218,-17.32
1629724875234,-11.51
1629724875250,-6.41
1629724875265,-1.76
1629724875281,2.72
1629724875296,7.28
1629724875312,11.96
1629724875328,16.61
1629724875343,20.94
1629724875359,24.58
1629724875375,27.3
1629724875390,29.09
1629724875406,30.14
1629724875421,30.76
1629724875437,31.2
1629724875453,31.62
1629724875468,32.05
1629724875484,32.49
1629724875500,32.86
1629724875515,33.09
1629724875531,33.1
1629724875546,32.73
1629724875562,31.88
1629724875578,30.55
1629724875593,28.83
1629724875609,26.94
1629724875625,25.07
1629724875640,23.32
1629724875656,21.66
1629724875671,19.96
1629724875687,18.12
1629724875703,16.06
1629724875718,13.83
1629724875734,11.51
1629724875750,9.12
1629724875765,6.67
1629724875781,4.08
1629724875796,1.26
1629724875812,-1.87
1629724875828,-5.33
1629724875843,-9.02
1629724875859,-12.75
1629724875875,-16.32
1629724875890,-19.57
1629724875906,-22.43
1629724875921,-25.0
1629724875937,-27.55
1629724875953,-30.45
1629724875968,-34.04
1629724875984,-38.54
1629724876000,-43.87
1629724876015,-49.6
1629724876031,-54.97
1629724876046,-59.0
1629724876062,-60.77
1629724876078,-59.68
1629724876093,-55.62
1629724876109,-49.02
1629724876125,-40.78
1629724876140,-32.02
1629724876156,-23.74
1629724876171,-16.59
1629724876187,-10.74
1629724876203,-5.95
1629724876218,-1.72
1629724876234,2.45
1629724876250,6.86
1629724876265,11.53
1629724876281,16.23
1629724876296,20.68
1629724876312,24.63
1629724876328,28.0
1629724876343,30.75
1629724876359,32.92
1629724876375,34.57
1629724876390,35.7
1629724876406,36.41
1629724876421,36.81
1629724876437,37.05
1629724876453,37.28
1629724876468,37.52
1629724876484,37.67
1629724876500,37.58
1629724876515,37.06
1629724876531,36.01
1629724876546,34.48
1629724876562,32.65
1629724876578,30.72
1629724876593,28.85
1629724876609,27.07
1629724876625,25.27
1629724876640,23.26
1629724876656,20.84
1629724876671,17.94
1629724876687,14.67
1629724876703,11.25
1629724876718,8.0
1629724876734,5.14
1629724876750,2.74
1629724876765,0.64
1629724876781,-1.44
1629724876796,-3.8
1629724876812,-6.61
1629724876828,-9.83
1629724876843,-13.27
1629724876859,-16.68
1629724876875,-19.89
1629724876890,-22.85
1629724876906,-25.66
1629724876921,-28.49
1629724876937,-31.47
1629724876953,-34.75
1629724876968,-38.48
1629724876984,-42.74
1629724877000,-47.46
1629724877015,-52.28
1629724877031,-56.45
1629724877046,-59.01
1629724877062,-59.07
1629724877078,-56.24
1629724877093,-50.73
1629724877109,-43.39
1629724877125,-35.31
1629724877140,-27.47
1629724877156,-20.49
1629724877171,-14.47
1629724877187,-9.19
1629724877203,-4.26
1629724877218,0.65
1629724877234,5.74
1629724877250,11.02
1629724877265,16.32
1629724877281,21.36
1629724877296,25.82
1629724877312,29.47
1629724877328,32.19
1629724877343,34.04
1629724877359,35.19
1629724877375,35.85
1629724877390,36.21
1629724877406,36.43
1629724877421,36.62
1629724877437,36.84
1629724877453,37.08
1629724877468,37.23
1629724877484,37.08
1629724877500,36.46
1629724877515,35.21
1629724877531,33.35
1629724877546,31.05
1629724877562,28.59
1629724877578,26.28
1629724877593,24.35
1629724877609,22.84
1629724877625,21.64
1629724877640,20.51
1629724877656,19.17
1629724877671,17.43
1629724877687,15.22
1629724877703,12.68
1629724877718,10.03
1629724877734,7.56
1629724877750,5.42
1629724877765,3.6
1629724877781,1.9
1629724877796,0.04
1629724877812,-2.21
1629724877828,-4.95
1629724877843,-8.07
1629724877859,-11.38
1629724877875,-14.65
1629724877890,-17.78
1629724877906,-20.77
1629724877921,-23.79
1629724877937,-27.05
1629724877953,-30.75
1629724877968,-34.99
1629724877984,-39.74
1629724878000,-44.7
1629724878015,-49.31
1629724878031,-52.84
1629724878046,-54.48
1629724878062,-53.64
1629724878078,-50.16
1629724878093,-44.4
1629724878109,-37.15
1629724878125,-29.39
1629724878140,-22.03
1629724878156,-15.62
1629724878171,-10.24
1629724878187,-5.64
1629724878203,-1.32
1629724878218,3.13
1629724878234,7.9
1629724878250,12.86
1629724878265,17.61
1629724878281,21.74
1629724878296,24.93
1629724878312,27.14
1629724878328,28.51
1629724878343,29.34
1629724878359,29.84
1629724878375,30.14
1629724878390,30.28
1629724878406,30.31
1629724878421,30.31
1629724878437,30.39
1629724878453,30.59
1629724878468,30.82
1629724878484,30.83
1629724878500,30.39
1629724878515,29.32
1629724878531,27.66
1629724878546,25.59
1629724878562,23.42
1629724878578,21.41
1629724878593,19.69
1629724878609,18.21
1629724878625,16.82
1629724878640,15.35
1629724878656,13.74
1629724878671,12.08
1629724878687,10.5
1629724878703,9.13
1629724878718,7.95
1629724878734,6.77
1629724878750,5.3
1629724878765,3.34
1629724878781,0.79
1629724878796,-2.21
1629724878812,-5.39
1629724878828,-8.45
1629724878843,-11.2
1629724878859,-13.6
1629724878875,-15.77
1629724878890,-17.97
1629724878906,-20.5
1629724878921,-23.63
1629724878937,-27.38
1629724878953,-31.55
1629724878968,-35.62
1629724878984,-38.91
1629724879000,-40.71
1629724879015,-40.57
1629724879031,-38.32
1629724879046,-34.19
1629724879062,-28.68
1629724879078,-22.44
1629724879093,-16.07
1629724879109,-10.08
1629724879125,-4.79
1629724879140,-0.36
1629724879156,3.15
1629724879171,5.8
1629724879187,7.68
1629724879203,8.95
1629724879218,9.78
1629724879234,10.4
1629724879250,10.99
1629724879265,11.75
1629724879281,12.78
1629724879296,14.1
1629724879312,15.67
1629724879328,17.37
1629724879343,19.0
1629724879359,20.42
1629724879375,21.44
1629724879390,21.98
1629724879406,22.02
1629724879421,21.67
1629724879437,21.07
1629724879453,20.35
1629724879468,19.57
1629724879484,18.65
1629724879500,17.48
1629724879515,15.95
1629724879531,14.09
1629724879546,12.02
1629724879562,9.9
1629724879578,7.85
1629724879593,5.87
1629724879609,3.87
1629724879625,1.72
1629724879640,-0.62
1629724879656,-3.13
1629724879671,-5.68
1629724879687,-8.1
1629724879703,-10.32
1629724879718,-12.35
1629724879734,-14.34
1629724879750,-16.55
1629724879765,-19.26
1629724879781,-22.7
1629724879796,-26.91
1629724879812,-31.65
1629724879828,-36.36
1629724879843,-40.31
1629724879859,-42.72
1629724879875,-43.01
1629724879890,-40.95
1629724879906,-36.75
1629724879921,-31.02
1629724879937,-24.55
1629724879953,-18.12
1629724879968,-12.29
1629724879984,-7.32
1629724880000,-3.17
1629724880015,0.38
1629724880031,3.61
1629724880046,6.67
1629724880062,9.58
1629724880078,12.26
1629724880093,14.59
1629724880109,16.5
1629724880125,18.01
1629724880140,19.23
1629724880156,20.3
1629724880171,21.32
1629724880187,22.31
1629724880203,23.2
1629724880218,23.86
1629724880234,24.2
1629724880250,24.17
1629724880265,23.82
1629724880281,23.26
1629724880296,22.6
1629724880312,21.87
1629724880328,21.0
1629724880343,19.9
1629724880359,18.44
1629724880375,16.6
1629724880390,14.43
1629724880406,12.11
1629724880421,9.81
1629724880437,7.68
1629724880453,5.74
1629724880468,3.89
1629724880484,1.99
1629724880500,-0.14
1629724880515,-2.56
1629724880531,-5.23
1629724880546,-8.01
1629724880562,-10.72
1629724880578,-13.26
1629724880593,-15.66
1629724880609,-18.12
1629724880625,-20.89
1629724880640,-24.26
1629724880656,-28.39
1629724880671,-33.21
1629724880687,-38.41
1629724880703,-43.37
1629724880718,-47.31
1629724880734,-49.42
1629724880750,-49.16
1629724880765,-46.39
1629724880781,-41.46
1629724880796,-35.1
1629724880812,-28.19
1629724880828,-21.47
1629724880843,-15.41
1629724880859,-10.16
1629724880875,-5.59
1629724880890,-1.49
1629724880906,2.41
1629724880921,6.28
1629724880937,10.2
1629724880953,14.16
1629724880968,18.04
1629724880984,21.62
1629724881000,24.66
1629724881015,26.97
1629724881031,28.47
1629724881046,29.27
1629724881062,29.54
1629724881078,29.51
1629724881093,29.34
1629724881109,29.12
1629724881125,28.86
1629724881140,28.55
1629724881156,28.16
1629724881171,27.69
1629724881187,27.08
1629724881203,26.25
1629724881218,25.12
1629724881234,23.6
1629724881250,21.7
1629724881265,19.51
1629724881281,17.17
1629724881296,14.86
1629724881312,12.69
1629724881328,10.73
1629724881343,8.96
1629724881359,7.31
1629724881375,5.71
1629724881390,4.03
1629724881406,2.18
1629724881421,0.0
1629724881437,-2.57
1629724881453,-5.55
1629724881468,-8.86
1629724881484,-12.32
1629724881500,-15.73
1629724881515,-18.93
1629724881531,-21.91
1629724881546,-24.81
1629724881562,-27.91
1629724881578,-31.56
1629724881593,-35.97
1629724881609,-41.08
1629724881625,-46.43
1629724881640,-51.2
1629724881656,-54.44
1629724881671,-55.32
1629724881687,-53.44
1629724881703,-48.99
1629724881718,-42.66
1629724881734,-35.36
1629724881750,-28.0
1629724881765,-21.19
1629724881781,-15.2
1629724881796,-9.99
1629724881812,-5.37
1629724881828,-1.02
1629724881843,3.31
1629724881859,7.78
1629724881875,12.33
1629724881890,16.77
1629724881906,20.79
1629724881921,24.09
1629724881937,26.52
1629724881953,28.1
1629724881968,29.0
1629724881984,29.44
1629724882000,29.67
1629724882015,29.87
1629724882031,30.18
1629724882046,30.71
1629724882062,31.47
1629724882078,32.35
1629724882093,33.12
1629724882109,33.48
1629724882125,33.18
1629724882140,32.14
1629724882156,30.43
1629724882171,28.3
1629724882187,26.05
1629724882203,23.93
1629724882218,22.04
1629724882234,20.36
1629724882250,18.72
1629724882265,16.88
1629724882281,14.64
1629724882296,11.92
1629724882312,8.77
1629724882328,5.4
1629724882343,2.09
1629724882359,-0.92
1629724882375,-3.58
1629724882390,-5.98
1629724882406,-8.34
1629724882421,-10.88
1629724882437,-13.68
1629724882453,-16.64
1629724882468,-19.57
1629724882484,-22.27
1629724882500,-24.73
1629724882515,-27.13
1629724882531,-29.77
1629724882546,-32.97
1629724882562,-36.9
1629724882578,-41.45
1629724882593,-46.21
1629724882609,-50.5
1629724882625,-53.49
1629724882640,-54.43
1629724882656,-52.84
1629724882671,-48.69
1629724882687,-42.44
1629724882703,-34.97
1629724882718,-27.26
1629724882734,-20.12
1629724882750,-14.0
1629724882765,-8.91
1629724882781,-4.55
1629724882796,-0.52
1629724882812,3.56
1629724882828,7.84
1629724882843,12.34
1629724882859,16.89
1629724882875,21.23
1629724882890,25.09
1629724882906,28.26
1629724882921,30.59
1629724882937,32.05
1629724882953,32.75
1629724882968,32.81
1629724882984,32.45
1629724883000,31.9
1629724883015,31.36
1629724883031,30.97
1629724883046,30.75
1629724883062,30.55
1629724883078,30.16
1629724883093,29.34
1629724883109,27.99
1629724883125,26.16
1629724883140,24.12
1629724883156,22.19
1629724883171,20.63
1629724883187,19.53
1629724883203,18.78
1629724883218,18.12
1629724883234,17.28
1629724883250,16.05
1629724883265,14.4
1629724883281,12.39
1629724883296,10.12
1629724883312,7.73
1629724883328,5.31
1629724883343,2.91
1629724883359,0.52
1629724883375,-1.9
1629724883390,-4.42
1629724883406,-7.07
1629724883421,-9.83
1629724883437,-12.61
1629724883453,-15.26
1629724883468,-17.67
1629724883484,-19.86
1629724883500,-22.01
1629724883515,-24.4
1629724883531,-27.35
1629724883546,-31.06
1629724883562,-35.51
1629724883578,-40.43
1629724883593,-45.22
1629724883609,-49.13
1629724883625,-51.3
1629724883640,-51.08
1629724883656,-48.2
1629724883671,-42.89
1629724883687,-35.86
1629724883703,-28.09
1629724883718,-20.55
1629724883734,-13.88
1629724883750,-8.34
1629724883765,-3.8
1629724883781,0.11
1629724883796,3.8
1629724883812,7.6
1629724883828,11.6
1629724883843,15.67
1629724883859,19.56
1629724883875,22.94
1629724883890,25.58
1629724883906,27.42
1629724883921,28.53
1629724883937,29.08
1629724883953,29.22
1629724883968,29.07
1629724883984,28.7
1629724884000,28.23
1629724884015,27.77
1629724884031,27.42
1629724884046,27.19
1629724884062,26.97
1629724884078,26.55
1629724884093,25.73
1629724884109,24.41
1629724884125,22.69
1629724884140,20.79
1629724884156,18.96
1629724884171,17.4
1629724884187,16.11
1629724884203,14.97
1629724884218,13.8
1629724884234,12.4
1629724884250,10.72
1629724884265,8.84
1629724884281,6.93
1629724884296,5.16
1629724884312,3.59
1629724884328,2.12
1629724884343,0.53
1629724884359,-1.35
1629724884375,-3.57
1629724884390,-6.01
1629724884406,-8.44
1629724884421,-10.68
1629724884437,-12.7
1629724884453,-14.63
1629724884468,-16.75
1629724884484,-19.32
1629724884500,-22.47
1629724884515,-26.14
1629724884531,-30.05
1629724884546,-33.73
1629724884562,-36.61
1629724884578,-38.09
1629724884593,-37.71
1629724884609,-35.3
1629724884625,-31.04
1629724884640,-25.47
1629724884656,-19.34
1629724884671,-13.36
1629724884687,-8.1
1629724884703,-3.78
1629724884718,-0.33
1629724884734,2.52
1629724884750,5.09
1629724884765,7.6
1629724884781,10.1
1629724884796,12.43
1629724884812,14.4
1629724884828,15.85
1629724884843,16.77
1629724884859,17.28
1629724884875,17.56
1629724884890,17.78
1629724884906,17.99
1629724884921,18.17
1629724884937,18.29
1629724884953,18.37
1629724884968,18.46
1629724884984,18.63
1629724885000,18.85
1629724885015,18.97
1629724885031,18.77
1629724885046,18.03
1629724885062,16.66
1629724885078,14.71
1629724885093,12.41
1629724885109,10.1
1629724885125,8.06
1629724885140,6.46
1629724885156,5.3
1629724885171,4.35
1629724885187,3.32
1629724885203,1.93
1629724885218,0.01
1629724885234,-2.37
1629724885250,-5.07
1629724885265,-7.81
1629724885281,-10.35
1629724885296,-12.54
1629724885312,-14.38
1629724885328,-16.06
1629724885343,-17.88
1629724885359,-20.22
1629724885375,-23.29
1629724885390,-27.06
1629724885406,-31.09
1629724885421,-34.66
1629724885437,-36.91
1629724885453,-37.19
1629724885468,-35.3
1629724885484,-31.48
1629724885500,-26.37
1629724885515,-20.71
1629724885531,-15.19
1629724885546,-10.2
1629724885562,-5.91
1629724885578,-2.28
1629724885593,0.85
1629724885609,3.65
1629724885625,6.23
1629724885640,8.65
1629724885656,10.88
1629724885671,12.84
1629724885687,14.47
1629724885703,15.76
1629724885718,16.74
1629724885734,17.48
1629724885750,17.99
1629724885765,18.28
1629724885781,18.33
1629724885796,18.16
1629724885812,17.87
1629724885828,17.54
1629724885843,17.21
1629724885859,16.79
1629724885875,16.15
1629724885890,15.17
1629724885906,13.77
1629724885921,12.05
1629724885937,10.12
1629724885953,8.15
1629724885968,6.19
1629724885984,4.26
1629724886000,2.35
1629724886015,0.43
1629724886031,-1.49
1629724886046,-3.42
1629724886062,-5.42
1629724886078,-7.57
1629724886093,-9.88
1629724886109,-12.34
1629724886125,-14.79
1629724886140,-17.05
1629724886156,-18.99
1629724886171,-20.64
1629724886187,-22.24
1629724886203,-24.18
1629724886218,-26.82
1629724886234,-30.25
1629724886250,-34.17
1629724886265,-37.87
1629724886281,-40.43
1629724886296,-41.05
1629724886312,-39.31
1629724886328,-35.4
1629724886343,-29.96
1629724886359,-23.86
1629724886375,-17.92
1629724886390,-12.64
1629724886406,-8.15
1629724886421,-4.26
1629724886437,-0.68
1629724886453,2.85
1629724886468,6.44
1629724886484,10.04
1629724886500,13.47
1629724886515,16.53
1629724886531,19.07
1629724886546,21.03
1629724886562,22.43
1629724886578,23.35
1629724886593,23.89
1629724886609,24.13
1629724886625,24.13
1629724886640,23.93
1629724886656,23.53
1629724886671,22.93
1629724886687,22.17
1629724886703,21.33
1629724886718,20.48
1629724886734,19.68
1629724886750,18.86
1629724886765,17.83
1629724886781,16.39
1629724886796,14.46
1629724886812,12.2
1629724886828,9.95
1629724886843,8.09
1629724886859,6.81
1629724886875,6.01
1629724886890,5.28
1629724886906,4.15
1629724886921,2.29
1629724886937,-0.32
1629724886953,-3.46
1629724886968,-6.77
1629724886984,-9.98
1629724887000,-12.92
1629724887015,-15.62
1629724887031,-18.16
1629724887046,-20.66
1629724887062,-23.25
1629724887078,-26.08
1629724887093,-29.33
1629724887109,-33.1
1629724887125,-37.29
1629724887140,-41.55
1629724887156,-45.19
1629724887171,-47.41
1629724887187,-47.52
1629724887203,-45.17
1629724887218,-40.57
1629724887234,-34.4
1629724887250,-27.61
1629724887265,-21.07
1629724887281,-15.34
1629724887296,-10.51
1629724887312,-6.33
1629724887328,-2.42
1629724887343,1.55
1629724887359,5.7
1629724887375,9.94
1629724887390,14.08
1629724887406,17.92
1629724887421,21.28
1629724887437,24.05
1629724887453,26.17
1629724887468,27.6
1629724887484,28.35
1629724887500,28.51
1629724887515,28.2
1629724887531,27.63
1629724887546,26.99
1629724887562,26.45
1629724887578,26.09
1629724887593,25.9
1629724887609,25.78
1629724887625,25.57
1629724887640,25.12
1629724887656,24.32
1629724887671,23.15
1629724887687,21.69
1629724887703,20.1
1629724887718,18.52
1629724887734,17.04
1629724887750,15.6
1629724887765,14.06
1629724887781,12.26
1629724887796,10.14
1629724887812,7.73
1629724887828,5.23
1629724887843,2.83
1629724887859,0.67
1629724887875,-1.29
1629724887890,-3.22
1629724887906,-5.3
1629724887921,-7.68
1629724887937,-10.37
1629724887953,-13.32
1629724887968,-16.39
1629724887984,-19.53
1629724888000,-22.76
1629724888015,-26.16
1629724888031,-29.88
1629724888046,-34.02
1629724888062,-38.53
1629724888078,-43.12
1629724888093,-47.29
1629724888109,-50.33
1629724888125,-51.55
1629724888140,-50.52
1629724888156,-47.17
1629724888171,-41.93
1629724888187,-35.54
1629724888203,-28.86
1629724888218,-22.57
1629724888234,-16.97
1629724888250,-12.03
1629724888265,-7.43
1629724888281,-2.82
1629724888296,2.03
1629724888312,7.15
1629724888328,12.3
1629724888343,17.17
1629724888359,21.37
1629724888375,24.64
1629724888390,26.88
1629724888406,28.17
1629724888421,28.75
1629724888437,28.9
1629724888453,28.93
1629724888468,29.03
1629724888484,29.36
1629724888500,29.92
1629724888515,30.65
1629724888531,31.39
1629724888546,31.99
1629724888562,32.26
1629724888578,32.06
1629724888593,31.33
1629724888609,30.11
1629724888625,28.51
1629724888640,26.69
1629724888656,24.81
1629724888671,22.99
1629724888687,21.27
1629724888703,19.65
1629724888718,18.05
1629724888734,16.38
1629724888750,14.57
1629724888765,12.57
1629724888781,10.42
1629724888796,8.18
1629724888812,5.89
1629724888828,3.54
1629724888843,1.04
1629724888859,-1.72
1629724888875,-4.81
1629724888890,-8.17
1629724888906,-11.64
1629724888921,-15.01
1629724888937,-18.1
1629724888953,-20.83
1629724888968,-23.25
1629724888984,-25.57
1629724889000,-28.02
1629724889015,-30.87
1629724889031,-34.31
1629724889046,-38.3
1629724889062,-42.5
1629724889078,-46.26
1629724889093,-48.73
1629724889109,-49.13
1629724889125,-47.05
1629724889140,-42.64
1629724889156,-36.55
1629724889171,-29.77
1629724889187,-23.19
1629724889203,-17.39
1629724889218,-12.51
1629724889234,-8.31
1629724889250,-4.45
1629724889265,-0.61
1629724889281,3.39
1629724889296,7.55
1629724889312,11.74
1629724889328,15.75
1629724889343,19.32
1629724889359,22.25
1629724889375,24.41
1629724889390,25.84
1629724889406,26.72
1629724889421,27.32
1629724889437,27.86
1629724889453,28.41
1629724889468,28.96
1629724889484,29.39
1629724889500,29.62
1629724889515,29.6
1629724889531,29.31
1629724889546,28.73
1629724889562,27.85
1629724889578,26.65
1629724889593,25.21
1629724889609,23.67
1629724889625,22.25
1629724889640,21.05
1629724889656,20.06
1629724889671,19.07
1629724889687,17.85
1629724889703,16.26
1629724889718,14.3
1629724889734,12.19
1629724889750,10.15
1629724889765,8.32
1629724889781,6.64
1629724889796,4.95
1629724889812,3.07
1629724889828,0.9
1629724889843,-1.52
1629724889859,-4.04
1629724889875,-6.54
1629724889890,-8.95
1629724889906,-11.27
1629724889921,-13.53
1629724889937,-15.79
1629724889953,-18.11
1629724889968,-20.58
1629724889984,-23.36
1629724890000,-26.62
1629724890015,-30.37
1629724890031,-34.34
1629724890046,-37.93
1629724890062,-40.29
1629724890078,-40.66
1629724890093,-38.64
1629724890109,-34.42
1629724890125,-28.69
1629724890140,-22.4
1629724890156,-16.42
1629724890171,-11.24
1629724890187,-6.9
1629724890203,-3.15
1629724890218,0.36
1629724890234,3.81
1629724890250,7.2
1629724890265,10.41
1629724890281,13.29
1629724890296,15.74
1629724890312,17.8
1629724890328,19.5
1629724890343,20.88
1629724890359,21.94
1629724890375,22.65
1629724890390,23.0
1629724890406,23.05
1629724890421,22.95
1629724890437,22.83
1629724890453,22.75
1629724890468,22.68
1629724890484,22.46
1629724890500,21.89
1629724890515,20.78
1629724890531,19.03
1629724890546,16.71
1629724890562,14.05
1629724890578,11.37
1629724890593,9.05
1629724890609,7.35
1629724890625,6.32
1629724890640,5.78
1629724890656,5.37
1629724890671,4.7
1629724890687,3.48
1629724890703,1.62
1629724890718,-0.74
1629724890734,-3.32
1629724890750,-5.84
1629724890765,-8.12
1629724890781,-10.19
1629724890796,-12.25
1629724890812,-14.58
1629724890828,-17.38
1629724890843,-20.75
1629724890859,-24.58
1629724890875,-28.58
1629724890890,-32.37
1629724890906,-35.51
1629724890921,-37.5
1629724890937,-37.9
1629724890953,-36.43
1629724890968,-33.06
1629724890984,-28.12
1629724891000,-22.22
1629724891015,-16.06
1629724891031,-10.25
1629724891046,-5.13
1629724891062,-0.73
1629724891078,3.12
1629724891093,6.64
1629724891109,9.93
1629724891125,12.96
1629724891140,15.58
1629724891156,17.62
1629724891171,18.99
1629724891187,19.77
1629724891203,20.17
1629724891218,20.44
1629724891234,20.74
1629724891250,21.1
1629724891265,21.36
1629724891281,21.35
1629724891296,20.99
1629724891312,20.38
1629724891328,19.77
1629724891343,19.37
1629724891359,19.24
1629724891375,19.19
1629724891390,18.88
1629724891406,18.01
1629724891421,16.51
1629724891437,14.54
1629724891453,12.41
1629724891468,10.39
1629724891484,8.59
1629724891500,6.92
1629724891515,5.15
1629724891531,3.12
1629724891546,0.76
1629724891562,-1.88
1629724891578,-4.66
1629724891593,-7.49
1629724891609,-10.28
1629724891625,-13.04
1629724891640,-15.74
1629724891656,-18.37
1629724891671,-20.95
1629724891687,-23.55
1629724891703,-26.33
1629724891718,-29.42
1629724891734,-32.87
1629724891750,-36.47
1629724891765,-39.74
1629724891781,-42.05
1629724891796,-42.74
1629724891812,-41.45
1629724891828,-38.18
1629724891843,-33.37
1629724891859,-27.67
1629724891875,-21.78
1629724891890,-16.19
1629724891906,-11.14
1629724891921,-6.61
1629724891937,-2.44
1629724891953,1.58
1629724891968,5.58
1629724891984,9.59
1629724892000,13.47
1629724892015,17.05
1629724892031,20.1
1629724892046,22.56
1629724892062,24.46
1629724892078,25.93
1629724892093,27.1
1629724892109,27.99
1629724892125,28.46
1629724892140,28.43
1629724892156,27.86
1629724892171,26.88
1629724892187,25.78
1629724892203,24.81
1629724892218,24.06
1629724892234,23.46
1629724892250,22.8
1629724892265,21.89
1629724892281,20.63
1629724892296,19.02
1629724892312,17.12
1629724892328,15.04
1629724892343,12.89
1629724892359,10.79
1629724892375,8.88
1629724892390,7.24
1629724892406,5.84
1629724892421,4.49
1629724892437,2.89
1629724892453,0.78
1629724892468,-1.92
1629724892484,-5.08
1629724892500,-8.4
1629724892515,-11.56
1629724892531,-14.4
1629724892546,-16.96
1629724892562,-19.44
1629724892578,-22.12
1629724892593,-25.22
1629724892609,-28.89
1629724892625,-33.16
1629724892640,-37.96
1629724892656,-43.01
1629724892671,-47.82
1629724892687,-51.69
1629724892703,-53.81
1629724892718,-53.54
1629724892734,-50.62
1629724892750,-45.38
1629724892765,-38.6
1629724892781,-31.26
1629724892796,-24.22
1629724892812,-17.93
1629724892828,-12.47
1629724892843,-7.61
1629724892859,-3.02
1629724892875,1.54
1629724892890,6.15
1629724892906,10.76
1629724892921,15.24
1629724892937,19.41
1629724892953,23.15
1629724892968,26.32
1629724892984,28.84
1629724893000,30.65
1629724893015,31.72
1629724893031,32.13
1629724893046,32.03
1629724893062,31.65
1629724893078,31.23
1629724893093,30.92
1629724893109,30.8
1629724893125,30.74
1629724893140,30.56
1629724893156,30.06
